Time,AGPnorm,Energy,Entropy
0,0,1,-1.43153121889228e-17
99.9999999999986,4.81818690068276e-05,1.00000000000248,0.00185876205131822
199.999999999993,0.00437575034395165,0.999999999998048,0.00304278000748807
300,0.0107663706685305,1.00000000000248,0.00539708478251538
400.000000000022,0.0152191012660319,1.00000000000018,0.00895202295384948
500.000000000045,0.0187487100262542,0.999999999999121,0.0123238496930355
600.000000000068,0.0259967806129712,1.00000000000297,0.016852088350351
700.000000000091,0.0323990831895323,0.99999999999813,0.0215718003120957
800.000000000113,0.0414013110858367,1.00000000000193,0.0267667718860688
900.000000000136,0.0515142124782624,1.00000000000103,0.0325037459109907
1000.00000000016,0.0596827449891022,0.999999999998305,0.0385609233214875
1100.0000000001,0.0701775358511473,1.00000000000322,0.045066904672737
1200,0.0826901761275162,0.999999999998646,0.0519719872453939
1299.99999999991,0.0948387651665421,1.00000000000106,0.0595147978742105
1399.99999999982,0.107021116438552,1.00000000000179,0.0672579369186663
1499.99999999973,0.119015187303466,0.999999999997835,0.0756242039679346
1599.99999999964,0.132225160496317,1.00000000000318,0.0845251221813229
1699.99999999955,0.147439729765385,0.999999999999399,0.0939368689786968
1799.99999999946,0.161060742364678,0.999999999999992,0.104332552821219
1899.99999999937,0.174105662642996,1.00000000000239,0.115034167256966
1999.99999999928,0.188407860816051,0.999999999997939,0.126860708700047
2099.99999999919,0.202913184408919,1.00000000000304,0.140003806475072
2199.99999999909,0.217912205807333,1.00000000000134,0.154369005756315
2299.999999999,0.231206943716271,1.00000000000427,0.170929739558018
2399.99999999891,0.24490340757671,1.00000000001917,0.189255838116009
2499.99999999882,0.257920897754745,1.00000000004258,0.209745682336716
2599.99999999873,0.274641017580296,1.00000000009336,0.231900809366866
2699.99999999864,0.290481962716612,1.00000000015301,0.253991683520105
2799.99999999855,0.307003500770321,1.00000000024051,0.276286758728759
2899.99999999846,0.344447892138417,1.00000000033593,0.297997447124935
2999.99999999837,0.388443757707773,1.00000000044085,0.319143005613472
3099.99999999828,0.470670677168653,1.00000000056522,0.340094431860642
3199.99999999819,0.599695371125773,1.00000000065093,0.359399896750229
3299.99999999809,0.783805587776312,1.00000000077396,0.378412056368714
3399.999999998,1.05997950356229,1.00000000085202,0.396566952586842
3499.99999999791,1.43670341814548,1.00000000093254,0.413225411127523
3599.99999999782,1.93855366522708,1.00000000102541,0.429841850479737
3699.99999999773,2.58682212964222,1.00000000109848,0.444429067090089
3799.99999999764,3.4066503073819,1.00000000121251,0.45849739086941
3899.99999999755,4.39479970063622,1.00000000126818,0.472186023986548
3999.99999999746,5.59162509263651,1.00000000131897,0.483700872964992
4099.99999999738,6.99908176449141,1.00000000135627,0.495528634904306
4199.99999999775,8.60066275429378,1.00000000136539,0.505955089628352
4299.99999999811,10.4560264370958,1.00000000138083,0.515247712282095
4399.99999999848,12.5042017971809,1.00000000145423,0.524787343194225
4499.99999999884,14.7797419678086,1.00000000149014,0.532352577331827
4599.9999999992,17.2961562190691,1.00000000147731,0.540115754815992
4699.99999999957,19.9731139543385,1.00000000153311,0.54736185363446
4799.99999999993,22.8958015099644,1.00000000152123,0.552883601414066
4900.00000000029,25.9843568170362,1.00000000150216,0.55939432077514
5000.00000000066,29.2300976342185,1.00000000152499,0.5643509267884
5100.00000000102,32.6840045953691,1.00000000154279,0.568811958678157
5200.00000000139,36.2226218727017,1.00000000151765,0.573963287506172
5300.00000000175,39.9256310011976,1.00000000148836,0.577076635192594
5400.00000000211,43.7389524211031,1.00000000146685,0.58099671165113
5500.00000000248,47.6047850636904,1.00000000150732,0.584404648485073
5600.00000000284,51.6026446306689,1.00000000143712,0.586488249500315
5700.00000000321,55.6076440157875,1.00000000145979,0.58974980930282
5800.00000000357,59.6693473888488,1.00000000146554,0.591375534566506
5900.00000000393,63.7754069931112,1.00000000142876,0.593356603161781
6000.0000000043,67.839697515772,1.0000000014451,0.595540590065228
6100.00000000466,71.946654775653,1.00000000137375,0.595994651275314
6200.00000000502,75.9983487573166,1.0000000013736,0.598006365637943
6300.00000000539,80.0105289911242,1.00000000138461,0.598929337581741
6400.00000000575,84.0042640205846,1.00000000133881,0.599267969443266
6500.00000000612,87.8899702687608,1.00000000134511,0.600512488346167
6600.00000000648,91.7393628983748,1.00000000130914,0.600222128530703
6700.00000000684,95.4901799265481,1.0000000012642,0.601319092859832
6800.00000000721,99.1343346062726,1.00000000126371,0.601602074361338
6900.00000000757,102.709665657039,1.00000000128206,0.601050372478512
7000.00000000793,106.138820914231,1.00000000125971,0.602136647839298
7100.0000000083,109.476357262132,1.00000000122668,0.601059466931106
7200.00000000866,112.688879360647,1.00000000119019,0.60144869923451
7300.00000000903,115.757491643536,1.00000000117983,0.601464035521643
7400.00000000939,118.723887837491,1.00000000116867,0.600953451816561
7500.00000000975,121.528174966458,1.00000000112982,0.600913755454043
7600.00000001012,124.21124901556,1.00000000113786,0.600299046404924
7700.00000001048,126.756655989536,1.00000000110542,0.600069478170043
7800.00000001084,129.146176748526,1.00000000106814,0.599905961460114
7900.00000001121,131.416426696212,1.00000000109959,0.599324475798343
8000.00000001157,133.528695206416,1.00000000102965,0.59834759303695
8100.00000001194,135.506614992215,1.00000000103712,0.599516707169365
8200.0000000123,137.352399134805,1.00000000101139,0.596538664381616
8300.00000001266,139.042721720638,1.00000000102229,0.598959912317211
8400.00000001303,140.615172672721,1.00000000095569,0.595321459919198
8500.00000001339,142.038270421858,1.00000000096921,0.59772909901503
8600.00000001376,143.33292029407,1.00000000093154,0.595060711269055
8700.00000001412,144.502326913225,1.00000000095216,0.596119677949705
8800.00000001448,145.532645692022,1.00000000090249,0.59511797078799
8900.00000001485,146.449771958065,1.00000000091729,0.594294185996146
9000.00000001521,147.238793157847,1.00000000089055,0.595105208546681
9100.00000001557,147.910076949344,1.00000000087635,0.593400850675911
9200.00000001594,148.473397242056,1.00000000087221,0.593694438645958
9300.0000000163,148.917753072054,1.00000000087091,0.594762295609518
9400.00000001667,149.265974088325,1.00000000084011,0.590702007758997
9500.00000001703,149.50649622994,1.00000000086816,0.594579354162622
9600.00000001739,149.655047838405,1.00000000083366,0.592722613684149
9700.00000001776,149.713637249834,1.00000000081389,0.588118982798855
9800.00000001812,149.679847794154,1.00000000084836,0.594734663507186
9900.00000001848,149.57779023124,1.00000000084113,0.587347948296387
10000.0000000188,149.390367998974,1.00000000079348,0.586672759744227
10100.0000000192,149.136569744061,1.00000000085236,0.593251709421366
10200.0000000196,148.827412935416,1.0000000007953,0.582799309321167
10300.0000000199,148.445644749357,1.00000000077301,0.582757365967246
10400.0000000203,148.018424315713,1.00000000086664,0.590159021683625
10500.0000000207,147.545007761184,1.00000000078821,0.581513975822718
10600.000000021,147.017143520858,1.00000000078883,0.575408785481593
10700.0000000214,146.451984815562,1.00000000090404,0.586529763783847
10800.0000000218,145.852964218722,1.00000000085071,0.584558637759148
10900.0000000221,145.217010969959,1.00000000077769,0.566630246890712
11000.0000000225,144.540761249749,1.00000000089957,0.582404194583827
11100.0000000229,143.845481646405,1.00000000089427,0.58638161046097
11200.0000000232,143.129239914169,1.00000000078707,0.567113529376301
11300.0000000236,142.374002210677,1.0000000008109,0.56927733845057
11400.0000000239,141.606681589636,1.00000000093925,0.583996020750588
11500.0000000243,140.831181988846,1.00000000087185,0.576488193323444
11600.0000000247,140.032802891968,1.00000000076366,0.55646666745948
11700.000000025,139.215352401415,1.00000000086992,0.575053410041929
11800.0000000254,138.392456035489,1.00000000097596,0.577326894745753
11900.0000000258,137.567604516704,1.00000000089219,0.568603625048862
12000.0000000261,136.725647006597,1.00000000077722,0.553940759188826
12100.0000000265,135.871605381709,1.00000000092438,0.573269291640638
12200.0000000269,135.021842649106,1.00000000093982,0.569745967917508
12300.0000000272,134.169229146205,1.00000000088067,0.56169219727493
12400.0000000276,133.311263875868,1.00000000084036,0.556918035787033
12500.0000000279,132.44689480894,1.00000000089974,0.562179186540567
12600.0000000283,131.583935684223,1.00000000092894,0.567970431386584
12700.0000000287,130.72719976047,1.00000000090624,0.555598268155863
12800.000000029,129.86724641755,1.00000000082664,0.554944999277258
12900.0000000294,129.008011992864,1.00000000094826,0.55985996738803
13000.0000000298,128.150862291047,1.00000000091061,0.559156856803538
13100.0000000301,127.297355540807,1.00000000096047,0.556817560887295
13200.0000000305,126.450924063988,1.00000000084597,0.545531483982424
13300.0000000309,125.604671729325,1.00000000089543,0.558833608737787
13400.0000000312,124.764671764078,1.00000000094209,0.559568508721502
13500.0000000316,123.928760986246,1.00000000084465,0.549649600235872
13600.0000000319,123.09746983231,1.0000000009612,0.550345137739126
13700.0000000323,122.273916222657,1.00000000084894,0.540854841879024
13800.0000000327,121.454336964648,1.00000000091143,0.557794762873295
13900.000000033,120.643037373165,1.00000000093314,0.562997550339839
14000.0000000334,119.837768354173,1.00000000084672,0.543489421439765
14100.0000000338,119.036506633379,1.00000000091437,0.545171429829825
14200.0000000341,118.243110196589,1.00000000089627,0.539878835691204
14300.0000000345,117.45585110072,1.00000000091901,0.546335971086479
14400.0000000349,116.677269799852,1.00000000092872,0.564466212164842
14500.0000000352,115.907027776875,1.00000000090229,0.555463752406617
14600.0000000356,115.142145224385,1.00000000082801,0.537996065581895
14700.0000000359,114.383665054239,1.00000000087493,0.538767533133808
14800.0000000363,113.631742692695,1.00000000091686,0.541892211259423
14900.0000000367,112.888445756301,1.00000000086974,0.547109643770587
15000.000000037,112.153823112947,1.00000000094124,0.561547025723272
15100.0000000374,111.426914491585,1.00000000088677,0.55702388104951
15200.0000000378,110.707881368363,1.00000000083229,0.540266463242585
15300.0000000381,109.995017077182,1.00000000079972,0.533653718433621
15400.0000000385,109.289126377564,1.00000000091664,0.547130492074103
15500.0000000389,108.591735603785,1.00000000084717,0.546133369013539
15600.0000000392,107.902694348912,1.00000000090087,0.553325475105871
15700.0000000396,107.222719256761,1.00000000088706,0.562934596752593
15800.0000000399,106.550534664881,1.00000000088423,0.550957514639454
15900.0000000403,105.88604206149,1.00000000081077,0.538950395275456
16000.0000000407,105.22944694824,1.00000000083068,0.537986235574187
16100.000000041,104.580732467818,1.0000000008574,0.547044414991532
16200.0000000414,103.940324988536,1.00000000087599,0.554738115814852
16300.0000000418,103.307987832846,1.00000000090103,0.551818935832179
16400.0000000418,102.684349456866,1.00000000087682,0.558426446960537
16500.0000000404,102.069429370635,1.00000000084436,0.55582247508658
16600.0000000389,101.462782799182,1.00000000082759,0.54350989313097
16700.0000000375,100.864535893743,1.00000000087358,0.538679277103934
16800.000000036,100.274726560425,1.00000000084693,0.539460893967129
16900.0000000346,99.693214042252,1.00000000090533,0.555057648924147
17000.0000000331,99.1190788537339,1.00000000089372,0.558375766602433
17100.0000000317,98.5526881168289,1.00000000088209,0.549338688690925
17200.0000000302,97.994159317186,1.00000000093046,0.55691093918737
17300.0000000287,97.4442176894079,1.00000000085648,0.552375164142667
17400.0000000273,96.9037499986319,1.00000000078278,0.539885165240391
17500.0000000258,96.3716933687033,1.00000000086927,0.536312171732224
17600.0000000244,95.8479403276037,1.00000000087498,0.538530531494971
17700.0000000229,95.3318104401625,1.00000000090939,0.54510806183261
17800.0000000215,94.8221120427658,1.00000000093897,0.554887688164327
17900.00000002,94.3191778114651,1.00000000085273,0.557683665336921
18000.0000000186,93.8227691161538,1.00000000094938,0.552713445586337
18100.0000000171,93.3328423137281,1.0000000009351,0.553691995458063
18200.0000000156,92.8519869334034,1.00000000082691,0.547679953568665
18300.0000000142,92.380839223914,1.00000000081019,0.537448967329563
18400.0000000127,91.9191433664342,1.00000000083341,0.531096383312251
18500.0000000113,91.4643378260271,1.00000000092927,0.536050136389738
18600.0000000098,91.0160847457418,1.00000000089953,0.540859895263191
18700.0000000084,90.5738738073767,1.00000000087434,0.544960489144475
18800.0000000069,90.1365135899404,1.00000000093186,0.557447831984544
18900.0000000055,89.703952669167,1.00000000090189,0.564005680592565
19000.000000004,89.2762402746287,1.00000000094294,0.553592058696129
19100.0000000026,88.8551780434064,1.00000000091643,0.546874374354446
19200.0000000011,88.4434860965473,1.00000000083658,0.542854640381683
19299.9999999996,88.0415951680402,1.00000000081768,0.538407527470329
19399.9999999982,87.6489176356003,1.00000000085189,0.531655418467306
19499.9999999967,87.262806480379,1.00000000089652,0.53049248345997
19599.9999999953,86.8824383573355,1.0000000009352,0.533706402757823
19699.9999999938,86.5078106098282,1.00000000088551,0.53809189349523
19799.9999999924,86.1366305137685,1.00000000094618,0.547201324937563
19899.9999999909,85.7670600588842,1.00000000097302,0.562529525419225
19999.9999999895,85.4004070204047,1.0000000009031,0.56222874502699
20099.999999988,85.03890769105,1.00000000090322,0.548383697222209
20199.9999999865,84.6842293035397,1.00000000089081,0.544735955906739
20299.9999999851,84.3369750043569,1.00000000086718,0.547354826145017
20399.9999999836,83.9991625783539,1.00000000084087,0.542261663133925
20499.9999999822,83.6695685358386,1.00000000084466,0.537601774498631
20599.9999999807,83.3479982126995,1.00000000085326,0.527840509553139
20699.9999999793,83.0329405201334,1.00000000088914,0.529586257598831
20799.9999999778,82.7226249813938,1.00000000089677,0.531463184342183
20899.9999999764,82.4159538878056,1.0000000009788,0.5455961292957
20999.9999999749,82.1095834773068,1.00000000097257,0.549451845782159
21099.9999999734,81.8034856745311,1.00000000097225,0.554535257221076
21199.999999972,81.4991212182053,1.00000000085223,0.557189099970934
21299.9999999705,81.1991046448222,1.00000000088137,0.551453570845784
21399.9999999691,80.9046582085899,1.00000000091043,0.547969420502961
21499.9999999676,80.6161956850946,1.00000000088368,0.547768967023827
21599.9999999662,80.3346597627165,1.00000000086957,0.551364046820994
21699.9999999647,80.0616019525839,1.00000000085426,0.541458256070827
21799.9999999633,79.7966896413896,1.00000000082073,0.536631353924211
21899.9999999618,79.5392332588847,1.00000000085082,0.532886825765522
21999.9999999603,79.2880954187048,1.00000000085642,0.533658328224834
22099.9999999589,79.0420776456209,1.00000000091849,0.537905079557841
22199.9999999574,78.798955562199,1.00000000088667,0.540803977034016
22299.999999956,78.5565192443434,1.00000000099226,0.546919256230156
22399.9999999545,78.3130787970174,1.00000000099146,0.553406172967449
22499.9999999531,78.0691571588293,1.00000000092689,0.555052417508889
22599.9999999516,77.8263607437281,1.00000000091319,0.560153219749926
22699.9999999502,77.5868321650173,1.0000000008935,0.557099649212038
22799.9999999487,77.3512676460419,1.00000000090698,0.55235678844167
22899.9999999473,77.121294257561,1.0000000008769,0.548704894046055
22999.9999999458,76.8973760365955,1.00000000087556,0.552517919711923
23099.9999999443,76.6808060917209,1.0000000008374,0.549843494641923
23199.9999999429,76.4737200943735,1.0000000007964,0.540026726554473
23299.9999999414,76.273444085633,1.00000000088752,0.542682751044153
23399.99999994,76.0783137557571,1.00000000092555,0.538374137377892
23499.9999999385,75.888175101655,1.00000000084847,0.536326814367996
23599.9999999371,75.7036641732838,1.00000000086292,0.538875497464935
23699.9999999356,75.522424734312,1.00000000092163,0.546027112796323
23799.9999999342,75.3418350875412,1.00000000090576,0.550678721225339
23899.9999999327,75.1602326184701,1.00000000092491,0.551386595729056
23999.9999999312,74.97520098609,1.00000000099061,0.557732807820117
24099.9999999298,74.7886425106263,1.0000000009428,0.557635806902204
24199.9999999283,74.6033459275061,1.00000000089646,0.56158729004876
24299.9999999269,74.4208344340484,1.00000000086294,0.556315682717325
24399.9999999254,74.2420571300919,1.00000000088494,0.551211305359642
24499.999999924,74.0673957412224,1.00000000089438,0.549390342267539
24599.9999999225,73.8966271484048,1.00000000095374,0.553127074607184
24699.9999999211,73.7323282160244,1.00000000083774,0.54987190986597
24799.9999999196,73.5756640921018,1.00000000084092,0.549916003999353
24899.9999999181,73.4261742837596,1.0000000008467,0.542939267641869
24999.9999999167,73.2821242860967,1.00000000092611,0.543439723456878
25099.9999999152,73.1415884941881,1.00000000091842,0.540072328686857
25199.9999999138,73.0071602539486,1.00000000084827,0.538308554866572
25299.9999999123,72.877893673621,1.00000000085878,0.543835097240905
25399.9999999109,72.7513015015987,1.00000000089709,0.552504554211272
25499.9999999094,72.6233044043975,1.00000000096281,0.563905932457696
25599.999999908,72.4928749781132,1.00000000097528,0.563196170677304
25699.9999999065,72.3595720050302,1.000000000967,0.557526287657685
25799.9999999051,72.2220223355421,1.00000000097249,0.560221668367018
25899.9999999036,72.0838471318698,1.0000000009142,0.5606018229601
25999.9999999021,71.9463745543969,1.00000000091629,0.568400325130774
26099.9999999007,71.8110981052895,1.00000000088939,0.567629553056539
26199.9999998992,71.6793587908694,1.00000000091984,0.565621065036267
26299.9999998978,71.5499822025737,1.00000000094977,0.55965958574908
26399.9999998963,71.4231387269738,1.00000000092772,0.553242579618471
26499.9999998949,71.2999679251491,1.00000000087831,0.553675473778156
26599.9999998934,71.1808646768322,1.00000000088732,0.557656745968377
26699.999999892,71.0683379152404,1.00000000088492,0.556271896323
26799.9999998905,70.9614875551679,1.00000000089653,0.551613039321029
26899.999999889,70.8608765899993,1.00000000087251,0.544944343575536
26999.9999998876,70.7659892092648,1.00000000087776,0.543483649846608
27099.9999998861,70.6755276285787,1.00000000088875,0.542463413078975
27199.9999998847,70.5892300260873,1.00000000090283,0.552135903881085
27299.9999998832,70.5041171129192,1.00000000093506,0.564307145720344
27399.9999998818,70.4180565642244,1.00000000094593,0.571347451756994
27499.9999998803,70.3289298830225,1.00000000098525,0.573414066044047
27599.9999998789,70.2359079063595,1.00000000099814,0.577050272165787
27699.9999998774,70.1396597398962,1.00000000095193,0.573698464043477
27799.9999998759,70.0415672322517,1.00000000091973,0.565068906046123
27899.9999998745,69.9423766573114,1.00000000095637,0.570241475298788
27999.999999873,69.8431934980695,1.00000000094726,0.57244013837174
28099.9999998716,69.744708784607,1.00000000089055,0.572247425060585
28199.9999998701,69.6483081440797,1.0000000009007,0.574505785709956
28299.9999998687,69.5539352795634,1.00000000090596,0.58006222484692
28399.9999998672,69.4616289914124,1.00000000091454,0.582167189242861
28499.9999998658,69.3711296075854,1.00000000092288,0.576947525811735
28599.9999998643,69.2817571158467,1.00000000091272,0.56998495618592
28699.9999998629,69.1947681803581,1.00000000092317,0.567630480825093
28799.9999998614,69.1103483505778,1.00000000093239,0.56854699185871
28899.9999998599,69.0303415890461,1.00000000088959,0.563659026585099
28999.9999998585,68.9575725597765,1.00000000082204,0.554615599236269
