Time,AGPnorm,Energy,Entropy
0,0,1,2.26909377353555e-18
99.9999999999986,0.0030306236981539,0.999999999998179,0.0101170480252029
199.999999999993,0.0085815319161144,1.00000000000076,0.0299923394042789
300,0.0182506402718325,0.999999999997652,0.0584640107531164
400.000000000022,0.0287835154776816,1.00000000000145,0.0941589230681623
500.000000000045,0.0417876470630667,0.999999999998792,0.138944442237046
600.000000000068,0.0553193439599499,1.00000000001515,0.196180094946861
700.000000000091,0.0698540274539202,1.00000000008982,0.269949269612001
800.000000000113,0.128295283874976,1.00000000030381,0.352235262277833
900.000000000136,0.332804410499932,1.00000000060583,0.425952138552838
1000.00000000016,0.950971876451072,1.00000000089755,0.480007523183106
1100.0000000001,2.21683439231908,1.00000000107024,0.51703114239834
1200,4.3082297305686,1.00000000124594,0.538120534787374
1299.99999999991,7.22550734936187,1.00000000125667,0.55143921666671
1399.99999999982,10.8679289760077,1.00000000129358,0.555308046519703
1499.99999999973,15.0001680673161,1.00000000120072,0.556058498223637
1599.99999999964,19.4285104996145,1.00000000118507,0.553457729032391
1699.99999999955,23.8714622616322,1.00000000113936,0.547554103187047
1799.99999999946,28.1921235588218,1.00000000112114,0.539739044712351
1899.99999999937,32.1620618728749,1.0000000010337,0.534010489916481
1999.99999999928,35.7348273148481,1.00000000096051,0.524991405373244
2099.99999999919,38.7663844171574,1.00000000093691,0.516073993090459
2199.99999999909,41.2866726149441,1.00000000093724,0.519890573459558
2299.999999999,43.239280870945,1.00000000078501,0.493648659415286
2399.99999999891,44.6405097936193,1.00000000081688,0.504177659097636
2499.99999999882,45.61876965737,1.00000000081462,0.52327111982748
2599.99999999873,46.129638639939,1.00000000055322,0.457265615652557
2699.99999999864,46.1682355925141,1.00000000068344,0.489300729992909
2799.99999999855,46.022227046047,1.0000000009262,0.551522744252157
2899.99999999846,45.7254838754659,1.00000000062998,0.468644125912475
2999.99999999837,45.0576691312914,1.00000000038564,0.391053692657087
3099.99999999828,44.2041397492994,1.00000000078724,0.511009083245115
3199.99999999819,43.4347375890701,1.00000000110784,0.569932861771387
3299.99999999809,42.7207895958743,1.00000000075521,0.485378934553299
3399.999999998,41.8396429788381,1.00000000029458,0.324807133489983
3499.99999999791,40.8063323847522,1.00000000050376,0.392034706198537
3599.99999999782,39.7898126807332,1.00000000104012,0.520508555914017
3699.99999999773,38.8940085657855,1.00000000113332,0.560722671817493
3799.99999999764,38.1146627574749,1.00000000088221,0.532589536277051
3899.99999999755,37.3227494332095,1.00000000054538,0.391285399622812
3999.99999999746,36.4664298291112,1.00000000028509,0.281104759540953
4099.99999999738,35.6173529403362,1.00000000051797,0.366870106152425
4199.99999999775,34.7908039038437,1.00000000086392,0.499925277153796
4299.99999999811,33.9888645051819,1.00000000085686,0.511160945915327
4399.99999999848,33.2353101114803,1.00000000098647,0.521878123389886
4499.99999999884,32.5470073302485,1.00000000097496,0.56290822214007
4599.9999999992,31.8974643737889,1.00000000069994,0.501049973657819
4699.99999999957,31.2524696188893,1.00000000036965,0.356217171618549
4799.99999999993,30.6623606259294,1.00000000031762,0.279262630932358
4900.00000000029,30.1754149725934,1.00000000047059,0.339383002085767
5000.00000000066,29.7416168640312,1.00000000077976,0.446045046410814
5100.00000000102,29.2758133974335,1.00000000097011,0.528254314265577
5200.00000000139,28.7795930664006,1.00000000075791,0.534082627698634
5300.00000000175,28.2970897814306,1.0000000006267,0.46452865734968
5400.00000000211,27.8210932024793,1.00000000086324,0.465248618365581
5500.00000000248,27.3288267158393,1.00000000112193,0.52921897244952
5600.00000000284,26.8435622662609,1.00000000110071,0.569660325336421
5700.00000000321,26.3818374712521,1.00000000094763,0.547368771161733
5800.00000000357,25.940752073393,1.00000000052027,0.448280509788102
5900.00000000393,25.5587618160377,1.0000000002922,0.336193940449125
6000.0000000043,25.3139917109988,1.00000000029224,0.278669569524502
6100.00000000466,25.2298449543243,1.00000000043852,0.313875909831857
6200.00000000502,25.2339887978697,1.00000000071878,0.404222742522069
6300.00000000539,25.2291792761341,1.00000000081526,0.485906500114456
6400.00000000575,25.1627911046733,1.00000000089498,0.518338710659452
6500.00000000612,25.0242122234021,1.00000000085859,0.515634463014044
6600.00000000648,24.8186371080986,1.00000000090199,0.534530428874067
6700.00000000684,24.5731300001614,1.00000000087783,0.541809623739513
6800.00000000721,24.3297497640569,1.00000000063571,0.507287822726588
6900.00000000757,24.1138230945439,1.00000000056147,0.481244883505758
7000.00000000793,23.9049145326026,1.00000000070877,0.503162728008636
7100.0000000083,23.6754260715167,1.00000000077934,0.511325509871656
7200.00000000866,23.4208500196311,1.00000000083012,0.509943017593878
7300.00000000903,23.1384646075989,1.00000000103786,0.522607915142028
7400.00000000939,22.8369743701766,1.00000000116221,0.554718382684638
7500.00000000975,22.536855751065,1.00000000108352,0.574839671375989
7600.00000001012,22.2454795440466,1.00000000091911,0.553602040378983
7700.00000001048,21.9645570133995,1.00000000055106,0.487016776914395
7800.00000001084,21.7248862913532,1.00000000035764,0.398247154918558
7900.00000001121,21.5915031702082,1.00000000026151,0.327466224500959
8000.00000001157,21.6305785384533,1.00000000028136,0.2905131806877
8100.00000001194,21.8596683228046,1.00000000044369,0.306138105452904
8200.0000000123,22.2260892155715,1.00000000059061,0.364881964447103
8300.00000001266,22.6416979913902,1.00000000076151,0.424508757613074
8400.00000001303,23.0106002933319,1.00000000086168,0.482755671450212
8500.00000001339,23.2937523620089,1.0000000008923,0.517106816967022
8600.00000001376,23.5013666735539,1.00000000081065,0.528356037181654
8700.00000001412,23.6346557363563,1.00000000077933,0.544866385491707
8800.00000001448,23.695516263614,1.00000000087563,0.566098254994665
8900.00000001485,23.7033645988042,1.0000000007678,0.551930726142837
9000.00000001521,23.6810253799653,1.00000000071407,0.53126748131236
9100.00000001557,23.6299484123326,1.00000000077238,0.521210932780736
9200.00000001594,23.5428439927132,1.00000000088562,0.52935376878573
9300.0000000163,23.4188009437448,1.00000000083072,0.538726500858855
9400.00000001667,23.2853919223798,1.00000000069504,0.53355490199081
9500.00000001703,23.1717481236088,1.00000000059169,0.51011039235013
9600.00000001739,23.0760069311439,1.0000000006363,0.500954842549879
9700.00000001776,22.9806238242573,1.00000000076562,0.502791044947742
9800.00000001812,22.882111651088,1.00000000073923,0.511876063061757
9900.00000001848,22.7828043456992,1.00000000073107,0.513845853195971
10000.0000000188,22.6808200728061,1.00000000073648,0.523139189869137
10100.0000000192,22.570178424306,1.00000000079031,0.534098740056055
10200.0000000196,22.4430936031106,1.00000000073437,0.549719663481648
10300.0000000199,22.3069637178433,1.00000000073837,0.555657382498387
10400.0000000203,22.1699439170826,1.00000000063428,0.553486463407975
10500.0000000207,22.0345692692302,1.00000000063555,0.547646629826373
10600.000000021,21.8931649843008,1.00000000069633,0.5499515328104
10700.0000000214,21.7374388310314,1.00000000081309,0.555191917210189
10800.0000000218,21.5663954226971,1.0000000008909,0.554160182984363
10900.0000000221,21.383743941371,1.00000000102186,0.562104525824928
11000.0000000225,21.1979885984809,1.00000000106476,0.562594870889498
11100.0000000229,21.0202197761783,1.00000000105809,0.569394587112488
11200.0000000232,20.8581070544056,1.00000000117974,0.579112830156953
11300.0000000236,20.7096372223654,1.00000000098817,0.576724615222057
11400.0000000239,20.5616180762479,1.00000000089654,0.562548778272042
11500.0000000243,20.4009409711148,1.00000000070118,0.522358374797802
11600.0000000247,20.2309421788988,1.00000000048565,0.46616859113509
11700.000000025,20.0792204980646,1.00000000037488,0.408509346943784
11800.0000000254,19.9919836209499,1.00000000028639,0.356265595461953
11900.0000000258,20.0249398834675,1.00000000025436,0.316400409683453
12000.0000000261,20.2251483731315,1.00000000032372,0.307674447279716
12100.0000000265,20.6106125634855,1.00000000033301,0.309413875037255
12200.0000000269,21.177130807397,1.00000000047384,0.329347753348589
12300.0000000272,21.8610476573028,1.00000000061673,0.369478051497209
12400.0000000276,22.5974929315572,1.00000000072508,0.40919753167375
12500.0000000279,23.3291042135249,1.00000000083686,0.447414967372185
12600.0000000283,24.0016394808932,1.00000000093041,0.483029209756763
12700.0000000287,24.5965179572042,1.0000000008481,0.511470996220659
12800.000000029,25.1153047536063,1.00000000085224,0.524487279774308
12900.0000000294,25.5606312144952,1.00000000084522,0.537929203511142
13000.0000000298,25.9356247945481,1.00000000085748,0.563858766244267
13100.0000000301,26.2439810012552,1.00000000079265,0.573510152957244
13200.0000000305,26.492491063825,1.00000000087249,0.570742145254536
13300.0000000309,26.687452193342,1.00000000078754,0.565388295957802
13400.0000000312,26.8384818182837,1.00000000082464,0.57195375452622
13500.0000000316,26.9423730286442,1.00000000082924,0.589617044546713
13600.0000000319,26.9995971836522,1.00000000085747,0.589890699019669
13700.0000000323,27.0240295138438,1.00000000075448,0.576382375349174
13800.0000000327,27.0243121535607,1.0000000008392,0.56364233183378
13900.000000033,27.0001288392319,1.00000000075906,0.551933159262151
14000.0000000334,26.9646411451044,1.00000000075992,0.541635585427237
14100.0000000338,26.9230933679308,1.00000000079747,0.548940984769402
14200.0000000341,26.8646679493443,1.00000000077868,0.555816243221695
14300.0000000345,26.7909731423834,1.00000000075932,0.558192842412828
14400.0000000349,26.7066576629742,1.00000000078067,0.572967688232585
14500.0000000352,26.6111679014918,1.00000000081671,0.572354191171451
14600.0000000356,26.5050801228386,1.00000000075284,0.570535885436022
14700.0000000359,26.3930628837297,1.00000000076402,0.570502904554384
14800.0000000363,26.2783559278346,1.00000000075055,0.567689289905945
14900.0000000367,26.1667911578959,1.00000000063727,0.55433406420562
15000.000000037,26.0633643222841,1.00000000062727,0.547328741517252
15100.0000000374,25.9646936781612,1.00000000078897,0.543739809879718
15200.0000000378,25.8624721510509,1.00000000082955,0.546192883836353
15300.0000000381,25.7552060224377,1.00000000084515,0.553535576078969
15400.0000000385,25.6421692468678,1.00000000094279,0.558343773141657
15500.0000000389,25.5203504503069,1.0000000008494,0.56847643552977
15600.0000000392,25.3951162028124,1.00000000074328,0.567358116429885
15700.0000000396,25.2747284282762,1.00000000073964,0.560166701653744
15800.0000000399,25.1647464244095,1.0000000007035,0.556561879177159
15900.0000000403,25.068352902511,1.000000000663,0.543100976822663
16000.0000000407,24.9853219734099,1.00000000070306,0.540525057545272
16100.000000041,24.917258914323,1.00000000064506,0.523926080363399
16200.0000000414,24.8598302329851,1.00000000073426,0.511943638831661
16300.0000000418,24.8020701459,1.00000000084804,0.509157458335301
16400.0000000418,24.7441528524887,1.00000000075236,0.513833028128923
16500.0000000404,24.694009237621,1.00000000069102,0.512645298871892
16600.0000000389,24.6528676263581,1.00000000071446,0.531385610239868
16700.0000000375,24.6116235361062,1.00000000073848,0.556999030521663
16800.000000036,24.568192606296,1.00000000073804,0.569627538981913
16900.0000000346,24.5174029736188,1.00000000086419,0.572596186260502
17000.0000000331,24.4553630268895,1.00000000078939,0.560149946333162
17100.0000000317,24.3873246908362,1.00000000079328,0.553301958513682
17200.0000000302,24.3237479547947,1.00000000062824,0.553697581925143
17300.0000000287,24.2639311572293,1.00000000075044,0.564427992867438
17400.0000000273,24.1979787582147,1.00000000079206,0.571050235286872
17500.0000000258,24.1290957886462,1.00000000078459,0.585047478091086
17600.0000000244,24.0615580022368,1.00000000071384,0.583240027602351
17700.0000000229,23.9890422984824,1.00000000082949,0.593457903572033
17800.0000000215,23.9081299280957,1.00000000081074,0.59140393171975
17900.00000002,23.8212165411041,1.00000000074249,0.587894716272164
18000.0000000186,23.7286595077967,1.00000000084363,0.591414709388943
18100.0000000171,23.6313044139661,1.00000000079078,0.601479110230392
18200.0000000156,23.5349340485167,1.00000000068682,0.591866281882391
18300.0000000142,23.4440076578562,1.00000000064722,0.58120779151728
18400.0000000127,23.3553753162516,1.00000000074232,0.580302935951867
18500.0000000113,23.2640339070497,1.00000000078693,0.574716128859162
18600.0000000098,23.172416703042,1.00000000071882,0.566887543177602
18700.0000000084,23.0841042079683,1.00000000068133,0.573844374141219
18800.0000000069,22.9979599208151,1.00000000075072,0.582741159956514
18900.0000000055,22.9110270958269,1.00000000076045,0.586688806799931
19000.000000004,22.8237534469924,1.00000000070032,0.580880012729447
19100.0000000026,22.7379724661631,1.00000000075499,0.587741179402793
19200.0000000011,22.6523977353933,1.00000000072302,0.579385835088639
19299.9999999996,22.5639745664042,1.00000000081284,0.576526312259236
19399.9999999982,22.4713487775215,1.000000000789,0.587636997083909
19499.9999999967,22.3750400629061,1.0000000007485,0.58049475554348
19599.9999999953,22.2769923743795,1.00000000077475,0.577501395572022
19699.9999999938,22.1768576570942,1.00000000082185,0.581737982079054
19799.9999999924,22.0748502309869,1.00000000084508,0.598429998114262
19899.9999999909,21.970441331639,1.00000000081843,0.609307601573405
19999.9999999895,21.8654234821775,1.00000000078251,0.606535409875773
20099.999999988,21.7612856056838,1.00000000065929,0.59413731939431
20199.9999999865,21.6588124287113,1.0000000007454,0.595490514785475
20299.9999999851,21.5556856572316,1.00000000086591,0.605320787640956
20399.9999999836,21.4513096711347,1.00000000076675,0.614559652492764
20499.9999999822,21.3476992899903,1.00000000071615,0.607359452676171
20599.9999999807,21.2448665831706,1.00000000062176,0.583749191922661
20699.9999999793,21.1429778969036,1.00000000072448,0.593885383446485
20799.9999999778,21.0418914127797,1.00000000067943,0.601242199486472
20899.9999999764,20.9417304261067,1.00000000064504,0.596111151317992
20999.9999999749,20.8425689580261,1.00000000068532,0.595080401309848
21099.9999999734,20.744867696374,1.0000000007346,0.595164057829251
21199.999999972,20.6489752008435,1.00000000072575,0.602509190467241
21299.9999999705,20.5566213786959,1.00000000075525,0.601842286254866
21399.9999999691,20.4693865090779,1.00000000081454,0.596431738473013
21499.9999999676,20.3901585136265,1.0000000008458,0.607371488297
21599.9999999662,20.3229394592694,1.00000000088874,0.61343563409235
21699.9999999647,20.2708340812478,1.00000000093751,0.608394594829596
21799.9999999633,20.2424289286579,1.00000000095973,0.614980351637264
21899.9999999618,20.2365346952737,1.00000000104054,0.619634108823357
21999.9999999603,20.2678902439432,1.00000000098866,0.620905291278925
22099.9999999589,20.3306439846928,1.00000000111193,0.62812656624208
22199.9999999574,20.4392436498931,1.00000000110595,0.626942985911527
22299.999999956,20.580395473979,1.00000000114428,0.62091910455177
22399.9999999545,20.7662872856598,1.00000000115322,0.615031499279083
22499.9999999531,20.9833675287128,1.00000000110172,0.60532514174869
22599.9999999516,21.2240633639291,1.00000000105887,0.596853022523039
22699.9999999502,21.4678226329392,1.00000000102385,0.590947092211883
22799.9999999487,21.6890793530426,1.00000000079438,0.578889951065257
22899.9999999473,21.8746600458963,1.00000000075749,0.560139307637995
22999.9999999458,22.0038765990322,1.00000000064603,0.536317246726607
23099.9999999443,22.0749909067434,1.00000000056876,0.505845877833944
23199.9999999429,22.0869327391699,1.00000000050238,0.478123780243523
23299.9999999414,22.0471483676071,1.00000000041952,0.446453796021357
23399.99999994,21.9797792329164,1.00000000035686,0.414063560135128
23499.9999999385,21.8978969551602,1.00000000032818,0.388161794724693
23599.9999999371,21.8413487678352,1.00000000027037,0.360955608981401
23699.9999999356,21.8330064553255,1.00000000029221,0.341317590825484
23799.9999999342,21.907625690198,1.00000000026749,0.3230389365747
23899.9999999327,22.0977372530031,1.00000000027016,0.313393601678072
23999.9999999312,22.4203576885014,1.00000000029535,0.312110914578591
24099.9999999298,22.9034966284465,1.00000000031026,0.309601124056095
24199.9999999283,23.5502134168749,1.00000000036504,0.321924722185422
24299.9999999269,24.3497648755618,1.00000000042773,0.329939291935083
24399.9999999254,25.3084420665863,1.00000000050728,0.344613203369067
24499.999999924,26.3627590718217,1.00000000064604,0.36043098432805
24599.9999999225,27.5335041078475,1.00000000064055,0.379535584792739
24699.9999999211,28.7369390349883,1.0000000007743,0.397159744837226
24799.9999999196,29.9940382114773,1.00000000080781,0.416639199606805
24899.9999999181,31.2309689323534,1.00000000080548,0.434017156012316
24999.9999999167,32.4630941402612,1.0000000009273,0.440760506252251
25099.9999999152,33.64304196884,1.00000000094424,0.462108962893858
25199.9999999138,34.7718006893855,1.0000000009071,0.477411203640297
25299.9999999123,35.8539555402814,1.00000000091719,0.488413152500724
25399.9999999109,36.8563015493176,1.00000000093901,0.49679653147353
25499.9999999094,37.8090179024927,1.00000000087023,0.511865171842091
25599.999999908,38.6842988015158,1.00000000089359,0.527488167206367
25699.9999999065,39.5140492264986,1.00000000086882,0.532237201758384
25799.9999999051,40.2758325153647,1.00000000085544,0.541769639602954
25899.9999999036,40.9797113110218,1.00000000086841,0.54612280882383
25999.9999999021,41.6319294640335,1.00000000082385,0.560676960451242
26099.9999999007,42.22564958723,1.00000000076336,0.570622862574757
26199.9999998992,42.7828060830167,1.00000000084345,0.579375816102465
26299.9999998978,43.2849892426789,1.00000000078672,0.574794166805793
26399.9999998963,43.7557608449323,1.00000000080496,0.578421844267788
26499.9999998949,44.1684267290461,1.00000000086949,0.595972767541207
26599.9999998934,44.5365104257063,1.00000000086846,0.605859024672321
26699.999999892,44.859049284671,1.00000000083817,0.608643498213798
26799.9999998905,45.1478515777073,1.00000000080516,0.598238942644015
26899.999999889,45.4076034326066,1.00000000081824,0.596520247295009
26999.9999998876,45.622299520603,1.00000000090387,0.60378781013199
27099.9999998861,45.8012437629503,1.00000000087159,0.620636070873657
27199.9999998847,45.9354656678333,1.00000000085229,0.628037937477467
27299.9999998832,46.0502949253634,1.00000000078432,0.622657934066309
27399.9999998818,46.1456747397004,1.00000000081212,0.600204947602194
27499.9999998803,46.2307445068782,1.00000000075819,0.595521412768203
27599.9999998789,46.2899498363866,1.00000000089419,0.602830292395774
27699.9999998774,46.3158272858135,1.00000000092049,0.61319489862443
27799.9999998759,46.3166429414521,1.00000000085441,0.609891734857499
27899.9999998745,46.3022800119529,1.00000000074315,0.60469354125915
27999.999999873,46.2856819891997,1.00000000070657,0.5996230828693
28099.9999998716,46.2611393564444,1.00000000077585,0.595705285789218
28199.9999998701,46.2318974256853,1.00000000081926,0.595621719008053
28299.9999998687,46.1875141105516,1.00000000084165,0.583309184177646
28399.9999998672,46.1329789434846,1.00000000084901,0.572040816242292
28499.9999998658,46.0690179716078,1.00000000082763,0.581150691116976
28599.9999998643,45.9958412391293,1.0000000007891,0.597106941003407
28699.9999998629,45.9160919972677,1.00000000084012,0.605068522044415
28799.9999998614,45.8314414738957,1.00000000070495,0.586827200339152
28899.9999998599,45.7514462954812,1.00000000071605,0.565655238818316
28999.9999998585,45.6730352627981,1.00000000078426,0.575173515107298
