Time,AGPnorm,Energy,Entropy
0,0,1,-7.34728750267846e-17
99.9999999999986,0.00125493444342583,1.00000000000108,0.00397524171020988
199.999999999993,0.00810356709500969,0.999999999999437,0.0116227829168561
300,0.0165560348786504,0.999999999998111,0.0213022414787125
400.000000000022,0.0251579208656185,0.999999999999328,0.0333568512054423
500.000000000045,0.0348074353871727,1.0000000000005,0.0482069502846567
600.000000000068,0.0485114246997809,1.00000000000015,0.0654306674643492
700.000000000091,0.0616542639869148,0.999999999998545,0.0845233600382308
800.000000000113,0.0757795778145221,0.999999999999209,0.106002355825714
900.000000000136,0.0898414260036549,1.00000000000011,0.131269095991068
1000.00000000016,0.105315224270771,1.00000000000231,0.161276251568263
1100.0000000001,0.120290304821675,1.00000000001419,0.197981827142871
1200,0.138160207826429,1.00000000007575,0.241747562196242
1299.99999999991,0.159263860731671,1.00000000022652,0.290498050242302
1399.99999999982,0.189218254162027,1.00000000043647,0.337905740535175
1499.99999999973,0.291728695375101,1.00000000069892,0.380805564940376
1599.99999999964,0.553425263254152,1.00000000095619,0.417454686604048
1699.99999999955,1.02198028563718,1.00000000114868,0.449337672018482
1799.99999999946,1.76210776743507,1.00000000133389,0.476536352441672
1899.99999999937,2.88006293818398,1.00000000144057,0.499469259953773
1999.99999999928,4.44320113449872,1.00000000154562,0.517896979804058
2099.99999999919,6.43633530527255,1.00000000164444,0.53347172436845
2199.99999999909,8.83724695536328,1.00000000165412,0.546147919876242
2299.999999999,11.6387039967277,1.00000000176771,0.556120340421345
2399.99999999891,14.8002280757533,1.00000000170868,0.563808393529314
2499.99999999882,18.2412854620154,1.00000000162611,0.570198125709271
2599.99999999873,21.887541461338,1.00000000163696,0.57432802315667
2699.99999999864,25.6813713597598,1.00000000167345,0.577283312363241
2799.99999999855,29.5501723034132,1.000000001578,0.578909662909879
2899.99999999846,33.4171526550737,1.00000000157398,0.579864861010965
2999.99999999837,37.2223509742018,1.00000000146179,0.580016113023655
3099.99999999828,40.920785756916,1.00000000151923,0.579107473898309
3199.99999999819,44.4652776229857,1.00000000146797,0.57827799615644
3299.99999999809,47.8084602395759,1.00000000133501,0.576720800387798
3399.999999998,50.9226157333177,1.00000000137822,0.573482694435528
3499.99999999791,53.7942607633427,1.00000000128595,0.572452155148119
3599.99999999782,56.4045083898931,1.00000000132452,0.572437856523838
3699.99999999773,58.7379328028985,1.00000000122916,0.567989717125705
3799.99999999764,60.7921357292834,1.00000000114729,0.565386936789838
3899.99999999755,62.5636544928846,1.00000000117347,0.566025730080212
3999.99999999746,64.0621445481027,1.00000000106555,0.564028256514919
4099.99999999738,65.2989101469488,1.00000000097738,0.558361020157847
4199.99999999775,66.2759599698499,1.00000000100241,0.564285411469324
4299.99999999811,67.0112331875398,1.00000000096179,0.554584907682816
4399.99999999848,67.5091933512212,1.00000000098896,0.559698752996379
4499.99999999884,67.820163141126,1.00000000096267,0.559650019471087
4599.9999999992,67.9269071619516,1.0000000008039,0.541463813913356
4699.99999999957,67.8693707727526,1.00000000106259,0.57182089458146
4799.99999999993,67.6918288893388,1.00000000082037,0.54348895919586
4900.00000000029,67.3467550954208,1.00000000079507,0.537035166887786
5000.00000000066,66.9225968940783,1.00000000109754,0.574775665463799
5100.00000000102,66.4390627183893,1.00000000083376,0.52895393921111
5200.00000000139,65.8248332843832,1.00000000072958,0.52063974430447
5300.00000000175,65.1695506596959,1.00000000121229,0.580528607167962
5400.00000000211,64.5171210930394,1.00000000093989,0.536729270655379
5500.00000000248,63.7789798423441,1.00000000061788,0.485976196460026
5600.00000000284,62.9879830466996,1.00000000115094,0.557188261495395
5700.00000000321,62.2346417937538,1.00000000120803,0.569626305262698
5800.00000000357,61.4777539438661,1.0000000007451,0.491925323565233
5900.00000000393,60.6562861545127,1.00000000073723,0.473400272630417
6000.0000000043,59.8250583591196,1.00000000118944,0.554278691985985
6100.00000000466,59.040684182681,1.00000000132033,0.563699085386206
6200.00000000502,58.2721403742541,1.00000000082873,0.485139054610117
6300.00000000539,57.4702059071644,1.0000000006459,0.453467277600479
6400.00000000575,56.6541680914712,1.0000000009941,0.5062289265261
6500.00000000612,55.8674896312324,1.00000000141097,0.559130781180822
6600.00000000648,55.1190077884095,1.00000000109189,0.530541283618482
6700.00000000684,54.3776602914208,1.00000000077755,0.466596365012104
6800.00000000721,53.6278722715693,1.00000000076048,0.458495827634444
6900.00000000757,52.8799257180907,1.00000000096529,0.492477932573925
7000.00000000793,52.1516337687691,1.00000000126022,0.537838801311587
7100.0000000083,51.4508172878124,1.00000000115855,0.5395480563242
7200.00000000866,50.7685168993591,1.00000000093933,0.492627024775724
7300.00000000903,50.0960500740725,1.00000000072612,0.467055708806453
7400.00000000939,49.4349575089348,1.00000000083808,0.478099942917483
7500.00000000975,48.7864441197131,1.00000000093571,0.494387517963339
7600.00000001012,48.1528483096634,1.00000000104488,0.515613480958971
7700.00000001048,47.5358871414341,1.00000000116633,0.532541398633787
7800.00000001084,46.9347598317706,1.00000000107454,0.519084135615231
7900.00000001121,46.350660014385,1.00000000076752,0.479130616685504
8000.00000001157,45.7864196653733,1.00000000080439,0.478718533135699
8100.00000001194,45.2398269327598,1.00000000097002,0.495832916719808
8200.0000000123,44.7072771584485,1.0000000009653,0.505244984015832
8300.00000001266,44.1920263279557,1.00000000086223,0.488880419193679
8400.00000001303,43.6915656865896,1.00000000108632,0.513545096699969
8500.00000001339,43.1981106394501,1.00000000123312,0.530998109081492
8600.00000001376,42.7132351797112,1.00000000101902,0.517712732845259
8700.00000001412,42.2484933233745,1.00000000078882,0.482085347036736
8800.00000001448,41.8086665598033,1.00000000083185,0.477811571818162
8900.00000001485,41.3851167203429,1.00000000107266,0.498611843446184
9000.00000001521,40.9690260114685,1.00000000102483,0.513093148018507
9100.00000001557,40.5656490878762,1.00000000084081,0.499527102838038
9200.00000001594,40.1824969122068,1.00000000084325,0.482086952009648
9300.0000000163,39.8124633767976,1.00000000106608,0.510235977552312
9400.00000001667,39.4439364234737,1.00000000118599,0.531065666185652
9500.00000001703,39.0745368225563,1.00000000114932,0.528837104374915
9600.00000001739,38.7153852107782,1.0000000008493,0.504628916652951
9700.00000001776,38.3788066165964,1.00000000080945,0.487439543697002
9800.00000001812,38.065161827729,1.0000000008478,0.488839724886205
9900.00000001848,37.7657208130668,1.00000000102524,0.502989378287781
10000.0000000188,37.4703321761671,1.00000000104711,0.505072035934261
10100.0000000192,37.1779996644343,1.00000000103207,0.5132058199528
10200.0000000196,36.8965810249395,1.00000000088705,0.514079269164456
10300.0000000199,36.6307116308943,1.00000000088537,0.507227180636483
10400.0000000203,36.372965727106,1.00000000103073,0.517964966283969
10500.0000000207,36.1181571823614,1.00000000109335,0.531415275182299
10600.000000021,35.8642874570959,1.00000000114008,0.535227430384013
10700.0000000214,35.6099115247587,1.00000000106604,0.532328020607897
10800.0000000218,35.3642005277673,1.00000000089003,0.519600239603684
10900.0000000221,35.1397332737799,1.00000000087417,0.502824836376455
11000.0000000225,34.9347459919625,1.00000000094466,0.504793715562882
11100.0000000229,34.739068445788,1.00000000106288,0.515431882083016
11200.0000000232,34.5533732781977,1.00000000096166,0.508224927136663
11300.0000000236,34.3769078474973,1.00000000099731,0.513002532848783
11400.0000000239,34.208172302502,1.00000000096143,0.505684085854974
11500.0000000243,34.0421382063492,1.00000000100045,0.528580303966745
11600.0000000247,33.872126089431,1.0000000010926,0.545208009119281
11700.000000025,33.7015643312025,1.00000000092367,0.544773555709884
11800.0000000254,33.5326713177656,1.00000000097272,0.542572603355044
11900.0000000258,33.3714495743722,1.00000000089296,0.5328251634784
12000.0000000261,33.2160013218331,1.00000000103644,0.531654052992085
12100.0000000265,33.062438437767,1.00000000110713,0.538567313574327
12200.0000000269,32.9067645998458,1.00000000106327,0.537725881684942
12300.0000000272,32.7518595436079,1.00000000092485,0.533135746215833
12400.0000000276,32.6115253020992,1.00000000094762,0.529447731111186
12500.0000000279,32.4907050394013,1.00000000088963,0.51776773301177
12600.0000000283,32.3851751522005,1.00000000093642,0.514927371355501
12700.0000000287,32.2826307798653,1.00000000103804,0.524894530579976
12800.000000029,32.1787185922626,1.00000000101452,0.530193016006954
12900.0000000294,32.0823060463461,1.0000000009027,0.513116846573343
13000.0000000298,31.9996980094204,1.00000000084201,0.51492692072578
13100.0000000301,31.9259251329253,1.00000000093048,0.530723289918782
13200.0000000305,31.8541515642953,1.00000000104385,0.540364772857969
13300.0000000309,31.7798504543409,1.00000000101634,0.540592015927345
13400.0000000312,31.695464960201,1.00000000110734,0.554319771652696
13500.0000000316,31.6013318306095,1.00000000102938,0.555859106027304
13600.0000000319,31.5011418418843,1.00000000103312,0.565312563256918
13700.0000000323,31.3975423085866,1.00000000096722,0.565064056541073
13800.0000000327,31.2953996303856,1.00000000096197,0.563696756751743
13900.000000033,31.1976022894915,1.00000000091848,0.552939744523634
14000.0000000334,31.1048818785949,1.00000000097673,0.54262644555264
14100.0000000338,31.0160851178589,1.00000000105509,0.539959173117438
14200.0000000341,30.9287001568299,1.00000000109818,0.547008916113122
14300.0000000345,30.8411505174648,1.00000000108346,0.551991001677172
14400.0000000349,30.7606133475669,1.00000000097464,0.548121453727815
14500.0000000352,30.6939301379837,1.00000000090664,0.545648391308268
14600.0000000356,30.6429898600242,1.00000000095245,0.535184789098149
14700.0000000359,30.6002840312941,1.0000000010365,0.539160493106132
14800.0000000363,30.5619532062676,1.00000000102952,0.536618608730608
14900.0000000367,30.5285797617852,1.00000000101435,0.531201710446079
15000.000000037,30.4985539041312,1.00000000098027,0.527920917393245
15100.0000000374,30.47350202843,1.00000000087311,0.525703132592778
15200.0000000378,30.4563242183945,1.00000000098755,0.534257947089073
15300.0000000381,30.4425367565109,1.00000000100014,0.546120725969311
15400.0000000385,30.4262878636473,1.00000000106287,0.557150946777762
15500.0000000389,30.4051116199837,1.00000000105439,0.564927021725899
15600.0000000392,30.3803518960249,1.00000000099505,0.564184695231631
15700.0000000396,30.3564201109246,1.00000000092295,0.569295051428761
15800.0000000399,30.3355375307009,1.00000000092872,0.561789902223409
15900.0000000403,30.3126767757856,1.00000000099538,0.568881531509334
16000.0000000407,30.2833413348191,1.00000000101602,0.57358736869836
16100.000000041,30.2429582650182,1.00000000113551,0.567612109352907
16200.0000000414,30.1887973029575,1.00000000108808,0.566858122313924
16300.0000000418,30.1231613917416,1.00000000118181,0.579545651069049
16400.0000000418,30.0503868957045,1.00000000105528,0.580650675804183
16500.0000000404,29.977279829108,1.00000000091059,0.578195633529289
16600.0000000389,29.9086513698939,1.00000000091254,0.570971069467776
16700.0000000375,29.8469538596776,1.00000000095461,0.565154170474352
16800.000000036,29.7917052248601,1.00000000096145,0.562017140006305
16900.0000000346,29.7402544331196,1.00000000101146,0.560217545988289
17000.0000000331,29.6917506692328,1.00000000104854,0.564403458572932
17100.0000000317,29.644784525192,1.00000000107233,0.566054197446406
17200.0000000302,29.5993619616829,1.00000000108935,0.566848998863757
17300.0000000287,29.5619014650977,1.00000000093406,0.566116646506345
17400.0000000273,29.5366776980064,1.00000000088538,0.562935469421486
17500.0000000258,29.5219941897551,1.00000000096532,0.561109282228378
17600.0000000244,29.5148874351649,1.00000000098985,0.556338683344353
17700.0000000229,29.5149146864767,1.00000000098935,0.550886638205698
17800.0000000215,29.5180057619642,1.00000000111684,0.547876115623
17900.00000002,29.5211779814652,1.00000000103819,0.54422889804825
18000.0000000186,29.5295978346235,1.00000000092718,0.546725359216549
18100.0000000171,29.5467902846985,1.00000000095609,0.546285434889316
18200.0000000156,29.568251997289,1.00000000096649,0.545951033245783
18300.0000000142,29.5895853610001,1.00000000101741,0.553130377033113
18400.0000000127,29.6093366977129,1.00000000103022,0.554645021971155
18500.0000000113,29.6269614796041,1.00000000109951,0.552393013489109
18600.0000000098,29.6423416181697,1.00000000103633,0.557497556816844
18700.0000000084,29.6563048489571,1.00000000103389,0.573017428375701
18800.0000000069,29.6691619312517,1.00000000097503,0.574954576611818
18900.0000000055,29.6809545973422,1.00000000103955,0.579433398242995
19000.000000004,29.6930807617289,1.00000000100296,0.592896852167303
19100.0000000026,29.7034417914579,1.0000000010493,0.598824534299045
19200.0000000011,29.7083861922967,1.00000000108673,0.60342025286389
19299.9999999996,29.7050382993613,1.00000000108436,0.605451304927466
19399.9999999982,29.698209680257,1.00000000104835,0.612878398043788
19499.9999999967,29.6897084484613,1.00000000102999,0.613101125093115
19599.9999999953,29.6771466073455,1.00000000105068,0.618137197744834
19699.9999999938,29.6597139865236,1.00000000102905,0.618473956519256
19799.9999999924,29.6384546626382,1.00000000098985,0.612146182263417
19899.9999999909,29.6120659612862,1.00000000104807,0.606290509114226
19999.9999999895,29.5789414974812,1.00000000105796,0.599759265639011
20099.999999988,29.5402972915321,1.00000000112331,0.601914346969971
20199.9999999865,29.4944681399892,1.00000000113627,0.609287283128819
20299.9999999851,29.4401496677502,1.00000000113946,0.613816113400115
20399.9999999836,29.3785523145233,1.000000001063,0.613819423709332
20499.9999999822,29.3151759092896,1.00000000103415,0.615065329492212
20599.9999999807,29.2533963117743,1.00000000095779,0.614848596947172
20699.9999999793,29.195305154071,1.00000000099436,0.614310710229838
20799.9999999778,29.1418120704979,1.00000000096213,0.619807809423976
20899.9999999764,29.0926185466483,1.00000000105285,0.618239750044093
20999.9999999749,29.0483440298162,1.00000000103338,0.609038631254532
21099.9999999734,29.0077639638144,1.00000000102636,0.610319815685366
21199.999999972,28.9704006230742,1.00000000109036,0.610944758559048
21299.9999999705,28.936590254383,1.00000000107902,0.602267248517561
21399.9999999691,28.9048061522985,1.00000000103497,0.587682625597116
21499.9999999676,28.8760234689372,1.00000000107842,0.587244390291493
21599.9999999662,28.852673374679,1.00000000099091,0.581817259373121
21699.9999999647,28.8379227736113,1.00000000100941,0.583108593003867
21799.9999999633,28.8319255134199,1.00000000095049,0.588680829188346
21899.9999999618,28.8351783304242,1.00000000102205,0.589232539844036
21999.9999999603,28.8456017593922,1.00000000100732,0.581876542043724
22099.9999999589,28.8595811774682,1.00000000109046,0.579990006572539
22199.9999999574,28.8757506352578,1.00000000102402,0.574568956154712
22299.999999956,28.8950725963507,1.0000000010414,0.569925459370163
22399.9999999545,28.9197805862817,1.00000000099116,0.565977674680334
22499.9999999531,28.9495185373652,1.00000000099587,0.564075765247584
22599.9999999516,28.9836453429989,1.00000000096504,0.569591850518623
22699.9999999502,29.0194713929,1.00000000103865,0.570493500871506
22799.9999999487,29.0554060948674,1.00000000104593,0.569195364579154
22899.9999999473,29.0933602897917,1.00000000100702,0.571514510874125
22999.9999999458,29.1323379134209,1.00000000098642,0.572014331420093
23099.9999999443,29.168920461476,1.0000000011085,0.573647033779736
23199.9999999429,29.2006033973584,1.00000000113074,0.575088240919801
23299.9999999414,29.2270768661577,1.00000000111949,0.583643900697848
23399.99999994,29.2505902816863,1.00000000102848,0.583739435500174
23499.9999999385,29.2727392132067,1.00000000107773,0.598558842921124
23599.9999999371,29.2946364910597,1.00000000104724,0.607463117560374
23699.9999999356,29.3147934227562,1.00000000106399,0.614786291448646
23799.9999999342,29.3329516539445,1.00000000108536,0.615859776369793
23899.9999999327,29.347238015552,1.00000000111363,0.616984219093423
23999.9999999312,29.358088546488,1.00000000108656,0.620105883639508
24099.9999999298,29.3670317183898,1.00000000103724,0.618593883668976
24199.9999999283,29.3748730208224,1.00000000105093,0.619195405760212
24299.9999999269,29.3822867909343,1.00000000102597,0.615171727081683
24399.9999999254,29.3895420771747,1.0000000010607,0.61252597525544
24499.999999924,29.3930352225492,1.00000000115325,0.606140181738952
24599.9999999225,29.3917163044321,1.00000000112549,0.617358125212647
24699.9999999211,29.3873536044236,1.00000000109092,0.622694970233535
24799.9999999196,29.3799120542371,1.00000000106759,0.618931474117078
24899.9999999181,29.3727523721663,1.00000000109357,0.619431955894861
24999.9999999167,29.3639739416288,1.00000000110825,0.623286497192681
25099.9999999152,29.3520408469231,1.00000000108368,0.628353037090935
25199.9999999138,29.3398997408038,1.00000000102846,0.620119512677868
25299.9999999123,29.3288077297179,1.00000000101927,0.615716354965638
25399.9999999109,29.3162896413025,1.00000000107892,0.614609633350192
25499.9999999094,29.2997346790071,1.000000001154,0.617517377508979
25599.999999908,29.279210549006,1.0000000011284,0.623731820006363
25699.9999999065,29.2540325471311,1.00000000117283,0.619801940276721
25799.9999999051,29.2264035613386,1.00000000114198,0.6229013984388
25899.9999999036,29.1982242289747,1.00000000113353,0.630947227705003
25999.9999999021,29.1680485536381,1.00000000110098,0.62644677038426
26099.9999999007,29.1377398523596,1.00000000106916,0.626459722364055
26199.9999998992,29.1065341577486,1.00000000105339,0.63285115584535
26299.9999998978,29.0724379022432,1.0000000011225,0.625640908475131
26399.9999998963,29.0370889710128,1.00000000105548,0.616647503019087
26499.9999998949,29.0013534057465,1.00000000107878,0.615266626816954
26599.9999998934,28.9632165111837,1.00000000109887,0.622688103773739
26699.999999892,28.9210944402702,1.00000000120008,0.629446048170263
26799.9999998905,28.8746506976602,1.00000000108594,0.625470164877622
26899.999999889,28.8255157597555,1.0000000011475,0.626094744262149
26999.9999998876,28.7731254451425,1.00000000117966,0.627734559236589
27099.9999998861,28.7173163565762,1.0000000011135,0.632620990310268
27199.9999998847,28.6591355838173,1.00000000108989,0.635884024301426
27299.9999998832,28.5991822384412,1.00000000108545,0.634381855175593
27399.9999998818,28.5378855401124,1.00000000108416,0.632950895613992
27499.9999998803,28.4772237979301,1.00000000104098,0.625942041774231
27599.9999998789,28.4183390947063,1.00000000107568,0.619830950518036
27699.9999998774,28.3621353315126,1.00000000103752,0.61143799337038
27799.9999998759,28.309429489051,1.00000000099546,0.606708533860809
27899.9999998745,28.2607402794586,1.0000000011039,0.612964217279437
27999.999999873,28.2165578815703,1.00000000108571,0.619256118799893
28099.9999998716,28.1764454305333,1.0000000010803,0.617920394165694
28199.9999998701,28.13887822971,1.0000000011859,0.622448008619356
28299.9999998687,28.1042542937026,1.0000000010776,0.613282062480384
28399.9999998672,28.0727005058754,1.00000000114066,0.610923565930767
28499.9999998658,28.0431045923726,1.00000000113743,0.605790517481022
28599.9999998643,28.0167855701499,1.00000000108735,0.595898137291736
28699.9999998629,27.9942353469603,1.00000000114962,0.593165193754723
28799.9999998614,27.9752194128798,1.00000000107423,0.58926423541015
28899.9999998599,27.9621297359375,1.0000000010128,0.587959658271778
28999.9999998585,27.9567986623264,1.00000000107232,0.588509946000313
