Time,AGPnorm,Energy,Entropy
0,0,1,-7.27635448723685e-17
99.9999999999986,0.00154382556722819,1.00000000000143,0.00491998692687709
199.999999999993,0.0102272023032688,1.00000000000014,0.0143790996453796
300,0.0211909169771042,0.999999999998608,0.0263023271509714
400.000000000022,0.0320273188334304,0.999999999999443,0.0412088207562336
500.000000000045,0.044415089284379,1.0000000000006,0.059581776349791
600.000000000068,0.0605877269727084,1.00000000000061,0.0811435537842591
700.000000000091,0.0771853274062279,0.999999999999332,0.105629596544033
800.000000000113,0.092974049388333,0.999999999999749,0.134009460279561
900.000000000136,0.109610655973861,1.00000000000449,0.169147852313871
1000.00000000016,0.125093682529936,1.00000000003768,0.213887982792091
1100.0000000001,0.144158266228552,1.00000000017452,0.267755658755031
1200,0.185855356438333,1.0000000004519,0.322638195901851
1299.99999999991,0.266053128894868,1.00000000082102,0.37275726976403
1399.99999999982,0.442527337862529,1.00000000119149,0.416754632900542
1499.99999999973,0.848307377831237,1.00000000145561,0.453726101302013
1599.99999999964,1.58726036404527,1.00000000160655,0.484317693669578
1699.99999999955,2.68721587845873,1.0000000018582,0.509570106132292
1799.99999999946,4.18672868217882,1.00000000208319,0.53044874219319
1899.99999999937,6.12841583121572,1.00000000220259,0.54664291420045
1999.99999999928,8.48689450286227,1.00000000209436,0.559596870670499
2099.99999999919,11.1920379325614,1.00000000215921,0.569556706837507
2199.99999999909,14.1784064904426,1.00000000204558,0.577480212782677
2299.999999999,17.3810815518998,1.00000000210453,0.581978707695089
2399.99999999891,20.710820249539,1.00000000207308,0.585340471172871
2499.99999999882,24.0833805213415,1.00000000202898,0.587773208918371
2599.99999999873,27.4332305284338,1.00000000191151,0.588465187847004
2699.99999999864,30.7022155590281,1.00000000190073,0.587847231511733
2799.99999999855,33.8302690015066,1.00000000177607,0.587258432848283
2899.99999999846,36.7622260606275,1.00000000170225,0.586328630002941
2999.99999999837,39.4712019679896,1.00000000170561,0.583466380152431
3099.99999999828,41.9422505001365,1.0000000015356,0.580418225458646
3199.99999999819,44.1540844184065,1.00000000159491,0.578766288812155
3299.99999999809,46.0882202327255,1.00000000150292,0.578411965786979
3399.999999998,47.7399355633305,1.00000000144113,0.575250251091506
3499.99999999791,49.1237228651468,1.00000000138199,0.572537562976319
3599.99999999782,50.2440043416774,1.00000000137581,0.574847863834004
3699.99999999773,51.107891853386,1.00000000126282,0.56559971503821
3799.99999999764,51.7347022146539,1.00000000127926,0.572566635258459
3899.99999999755,52.1284314537017,1.00000000118696,0.564479592718533
3999.99999999746,52.3309519460552,1.00000000121577,0.57136111453271
4099.99999999738,52.3533534548158,1.00000000109522,0.554701266137646
4199.99999999775,52.2203814913844,1.00000000125504,0.575673186779679
4299.99999999811,51.9694003495966,1.00000000104836,0.54808756812917
4399.99999999848,51.5815539154929,1.00000000130453,0.56865780744645
4499.99999999884,51.1473953963605,1.00000000134513,0.559793700095391
4599.9999999992,50.6100153539247,1.0000000009373,0.524938639047947
4699.99999999957,50.0282075976408,1.00000000148558,0.579899253577387
4799.99999999993,49.4306675815926,1.00000000103469,0.527901504584349
4900.00000000029,48.7563010979474,1.00000000106257,0.522257474041667
5000.00000000066,48.083796117002,1.00000000163359,0.579288719073775
5100.00000000102,47.4214304745379,1.00000000104244,0.517068003745435
5200.00000000139,46.710401302571,1.00000000100031,0.498997153765458
5300.00000000175,45.9982771247576,1.00000000162547,0.574331535675602
5400.00000000211,45.3195279071264,1.00000000131985,0.527685623212613
5500.00000000248,44.626826441533,1.00000000089682,0.484785838856499
5600.00000000284,43.9180716596387,1.00000000123561,0.514026373070273
5700.00000000321,43.2340618138023,1.00000000167194,0.564096053973025
5800.00000000357,42.5753782355333,1.0000000012551,0.501206454869001
5900.00000000393,41.9150290874425,1.00000000096898,0.48343873419063
6000.0000000043,41.2538721180876,1.00000000121852,0.503428765880835
6100.00000000466,40.6107120907896,1.00000000162857,0.543357318903025
6200.00000000502,39.9916514588837,1.00000000150939,0.524738051145444
6300.00000000539,39.3860912030345,1.00000000106654,0.482791333924002
6400.00000000575,38.790073670355,1.00000000112688,0.503205565787398
6500.00000000612,38.2054076407915,1.00000000121221,0.508400799223273
6600.00000000648,37.6366318141804,1.00000000138753,0.528698916804337
6700.00000000684,37.0846337465476,1.00000000143327,0.525986300704865
6800.00000000721,36.5494850648651,1.00000000106438,0.490978208004923
6900.00000000757,36.0321907649315,1.00000000115114,0.506071752100491
7000.00000000793,35.5296686301541,1.00000000132681,0.528065081069262
7100.0000000083,35.0428246560533,1.00000000115558,0.50366075980575
7200.00000000866,34.5715529736219,1.00000000128984,0.522138225900753
7300.00000000903,34.1117391403041,1.0000000014113,0.5250336050019
7400.00000000939,33.6667563258703,1.00000000113888,0.503009951450329
7500.00000000975,33.2435236914011,1.00000000105013,0.498207213721461
7600.00000001012,32.8355284771814,1.00000000140289,0.524642912022249
7700.00000001048,32.437109517865,1.00000000129824,0.529627301973751
7800.00000001084,32.0574805595379,1.0000000010623,0.488318062686509
7900.00000001121,31.6944085475446,1.00000000129273,0.510519219262145
8000.00000001157,31.3373361558811,1.00000000154461,0.530117886923535
8100.00000001194,30.9866641959783,1.00000000127568,0.514932482353795
8200.0000000123,30.6557302672133,1.00000000108854,0.498886121729252
8300.00000001266,30.3437992951247,1.00000000113599,0.512977723803481
8400.00000001303,30.0385687625239,1.00000000147522,0.523292891642741
8500.00000001339,29.7370995426553,1.0000000013211,0.524358021746512
8600.00000001376,29.4524920965737,1.00000000109316,0.508253562318905
8700.00000001412,29.1853161931628,1.00000000117529,0.498910797572669
8800.00000001448,28.9261104537998,1.0000000014008,0.531465277946213
8900.00000001485,28.6686642096557,1.0000000014485,0.534743259551875
9000.00000001521,28.4159827475082,1.00000000123718,0.518803831226136
9100.00000001557,28.1808044242767,1.00000000115014,0.511223822178947
9200.00000001594,27.959486851298,1.00000000119608,0.525171463809511
9300.0000000163,27.7467186239173,1.00000000128378,0.530681309375238
9400.00000001667,27.5395297441713,1.0000000012826,0.525052087639973
9500.00000001703,27.3371027044386,1.00000000125467,0.518679431355566
9600.00000001739,27.1410517803371,1.00000000125024,0.536762571043635
9700.00000001776,26.9539041781248,1.0000000012249,0.531536945739199
9800.00000001812,26.7754985802685,1.0000000012232,0.525154768252629
9900.00000001848,26.6046777806338,1.00000000133575,0.538054786061505
10000.0000000188,26.4375832914616,1.00000000137998,0.538587083074245
10100.0000000192,26.2738147919045,1.00000000129761,0.533428288629369
10200.0000000196,26.1209427120707,1.00000000110933,0.525562542850983
10300.0000000199,25.9835375467043,1.00000000120704,0.524058273076528
10400.0000000203,25.850185689909,1.00000000140211,0.540262733415778
10500.0000000207,25.7155540264988,1.00000000135122,0.538964765746816
10600.000000021,25.5933630783346,1.00000000114081,0.516986692258526
10700.0000000214,25.4833430962777,1.00000000122167,0.526128955978512
10800.0000000218,25.3748122088198,1.0000000013243,0.529465010013056
10900.0000000221,25.2593978873172,1.00000000148744,0.553464792651293
11000.0000000225,25.1379652989103,1.00000000136939,0.563099833830109
11100.0000000229,25.0198410716939,1.00000000120356,0.550811737657094
11200.0000000232,24.90876826894,1.00000000129037,0.547102785624845
11300.0000000236,24.8052244553531,1.00000000139126,0.55106332638548
11400.0000000239,24.7050991453661,1.00000000130418,0.546355200661993
11500.0000000243,24.608018950156,1.00000000129948,0.54220957819157
11600.0000000247,24.5170643527093,1.00000000128164,0.539326286193651
11700.000000025,24.4374048271392,1.00000000119254,0.540204295646933
11800.0000000254,24.3651992015916,1.00000000129414,0.548585657854219
11900.0000000258,24.297418075065,1.00000000131498,0.545809963642304
12000.0000000261,24.227975930932,1.00000000139823,0.547648296682408
12100.0000000265,24.1604826445682,1.00000000122583,0.545854942598197
12200.0000000269,24.1023240741421,1.00000000117627,0.530929320131251
12300.0000000272,24.0554525799259,1.00000000124705,0.540963219605221
12400.0000000276,24.0109752433667,1.00000000142411,0.561923934491285
12500.0000000279,23.9633568821925,1.00000000126599,0.554819686474193
12600.0000000283,23.9105044935736,1.00000000135421,0.562897140941077
12700.0000000287,23.84959336804,1.00000000132759,0.562067355007695
12800.000000029,23.7813727910222,1.00000000144818,0.576822953712022
12900.0000000294,23.708679186248,1.00000000139625,0.581079831849916
13000.0000000298,23.6351645895304,1.00000000129303,0.577388577530355
13100.0000000301,23.5673090458864,1.00000000124575,0.566402753557039
13200.0000000305,23.5078197809076,1.00000000130176,0.561952664866985
13300.0000000309,23.4542729484216,1.00000000128644,0.551483310696518
13400.0000000312,23.4046478527618,1.00000000136568,0.547213939830722
13500.0000000316,23.3603489090726,1.00000000132381,0.551154357616214
13600.0000000319,23.3229946452756,1.00000000125246,0.554760030108403
13700.0000000323,23.293769833274,1.00000000121308,0.557373667498656
13800.0000000327,23.2698206198268,1.00000000132133,0.557847797990428
13900.000000033,23.2424386602139,1.00000000139096,0.560704939366196
14000.0000000334,23.2172053615154,1.0000000013213,0.557817434494935
14100.0000000338,23.1977203705308,1.00000000119694,0.54384534791686
14200.0000000341,23.1832083113681,1.00000000129966,0.542293146486647
14300.0000000345,23.1713728088973,1.00000000133989,0.552192736129012
14400.0000000349,23.1624872663407,1.00000000129374,0.560805353540917
14500.0000000352,23.1559726866874,1.00000000131543,0.574243929440561
14600.0000000356,23.1492607841253,1.00000000145635,0.582357443115349
14700.0000000359,23.1376873775916,1.00000000136135,0.592982859545368
14800.0000000363,23.1200985831688,1.00000000134978,0.598291652605955
14900.0000000367,23.1001082588174,1.00000000130977,0.591984515222662
15000.000000037,23.0794238958289,1.00000000138165,0.593048184306229
15100.0000000374,23.0559023683044,1.00000000139115,0.588149649298374
15200.0000000378,23.0243083611652,1.00000000148905,0.596081063643085
15300.0000000381,22.9845707073698,1.00000000144489,0.594574971600305
15400.0000000385,22.9352021535206,1.00000000144939,0.602097741537333
15500.0000000389,22.8817860493154,1.00000000142241,0.605079355434055
15600.0000000392,22.8284611153853,1.00000000132291,0.604593426536341
15700.0000000396,22.7789042705612,1.00000000127268,0.59556199917415
15800.0000000399,22.7371723289364,1.00000000133663,0.587678305321704
15900.0000000403,22.7022409820804,1.00000000137094,0.584022693303832
16000.0000000407,22.6725648893807,1.00000000129202,0.578724982568995
16100.000000041,22.6486675571579,1.00000000133063,0.575987025895576
16200.0000000414,22.6295313011217,1.000000001368,0.574771162816526
16300.0000000418,22.6168101415942,1.00000000129932,0.57212735468017
16400.0000000418,22.6110208670628,1.00000000129395,0.583128957612879
16500.0000000404,22.6106278341414,1.00000000133744,0.580063307696089
16600.0000000389,22.6102991463888,1.00000000140995,0.578238305795801
16700.0000000375,22.6099997560679,1.00000000137537,0.575576113188413
16800.000000036,22.6115734664125,1.00000000142783,0.569007460062654
16900.0000000346,22.6164223523255,1.00000000138436,0.560794204065302
17000.0000000331,22.6252247255881,1.00000000130223,0.565627530880439
17100.0000000317,22.6394602947528,1.00000000138026,0.575353471990404
17200.0000000302,22.6568431867277,1.00000000135468,0.576687230749835
17300.0000000287,22.6734494092683,1.00000000146877,0.581761041410938
17400.0000000273,22.688502005436,1.00000000136973,0.581693267134242
17500.0000000258,22.701700869685,1.00000000142894,0.575531085402305
17600.0000000244,22.7155316109587,1.00000000138154,0.580625843031859
17700.0000000229,22.7281879248357,1.00000000140225,0.599122189482124
17800.0000000215,22.7394758902747,1.00000000139731,0.604433383801676
17900.00000002,22.7474050484665,1.00000000136449,0.610082955253461
18000.0000000186,22.7515136288748,1.00000000143783,0.614520607694048
18100.0000000171,22.751392399229,1.00000000151698,0.614078671521245
18200.0000000156,22.7447032249154,1.00000000141284,0.612296076956121
18300.0000000142,22.7368317732193,1.00000000138231,0.619602069944717
18400.0000000127,22.7280639549016,1.00000000138075,0.627025845927818
18500.0000000113,22.7154468142908,1.00000000145032,0.630547155307132
18600.0000000098,22.6990252588505,1.00000000136568,0.629204857316828
18700.0000000084,22.678176246546,1.00000000141953,0.627920750239819
18800.0000000069,22.6546540475706,1.000000001373,0.623453421111865
18900.0000000055,22.6267725012903,1.0000000014074,0.624956434235225
19000.000000004,22.5932548027975,1.00000000151894,0.620980022330221
19100.0000000026,22.5539583427535,1.00000000149396,0.623967009463624
19200.0000000011,22.5084980082752,1.00000000149423,0.622456221837753
19299.9999999996,22.4592051255284,1.00000000138669,0.618148493831063
19399.9999999982,22.4099153746017,1.00000000135366,0.621393832657894
19499.9999999967,22.3622733172108,1.0000000013486,0.617104910682786
19599.9999999953,22.31878768313,1.0000000013185,0.611507860867549
19699.9999999938,22.281123509115,1.00000000130208,0.610130500005457
19799.9999999924,22.2490217814903,1.00000000137664,0.608358562764303
19899.9999999909,22.2219320910474,1.00000000146454,0.608755769280883
19999.9999999895,22.1987073771597,1.00000000141099,0.607265730811343
20099.999999988,22.180472847017,1.00000000142619,0.595805562855192
20199.9999999865,22.1678041462986,1.00000000142238,0.582504321789409
20299.9999999851,22.1622266611182,1.00000000138055,0.579784220056576
20399.9999999836,22.1619603910696,1.00000000139623,0.577141957252224
20499.9999999822,22.1673497897982,1.00000000141281,0.586493474966273
20599.9999999807,22.1769998671299,1.00000000146899,0.597997964564083
20699.9999999793,22.1886803264685,1.00000000146603,0.595607994240837
20799.9999999778,22.202448670928,1.00000000140536,0.592672749552204
20899.9999999764,22.2168541973183,1.00000000148366,0.590386595438624
20999.9999999749,22.2327289733474,1.00000000143675,0.584473081092006
21099.9999999734,22.2507737800626,1.00000000141291,0.576051498809545
21199.999999972,22.2732737262188,1.00000000133218,0.570224466004207
21299.9999999705,22.3011960191097,1.00000000137627,0.573972204093864
21399.9999999691,22.3315596760288,1.00000000146373,0.577884180044317
21499.9999999676,22.3608909517923,1.00000000147977,0.582891706887831
21599.9999999662,22.3904781371069,1.00000000135728,0.585376777851445
21699.9999999647,22.422095769419,1.00000000143532,0.588252757592556
21799.9999999633,22.4533235349898,1.00000000152851,0.590854074552914
21899.9999999618,22.4815334698442,1.00000000151596,0.594542892480202
21999.9999999603,22.5044055146657,1.00000000147601,0.603051843163171
22099.9999999589,22.5240428237748,1.00000000148706,0.608104693689008
22199.9999999574,22.5419497703537,1.0000000014984,0.624770599314581
22299.999999956,22.5589659867565,1.00000000153417,0.633707680654051
22399.9999999545,22.5734602181905,1.00000000150718,0.631772836557444
22499.9999999531,22.5846919279706,1.00000000153294,0.634616129906023
22599.9999999516,22.5939073026447,1.00000000147976,0.628257656598133
22699.9999999502,22.6031858960854,1.00000000147275,0.631068803311168
22799.9999999487,22.6137929331804,1.00000000152329,0.634934914080475
22899.9999999473,22.6250549098929,1.00000000143711,0.63754347647596
22999.9999999458,22.6369698482569,1.00000000145645,0.637969885684093
23099.9999999443,22.6470030724656,1.00000000154874,0.637326080485226
23199.9999999429,22.6507815631012,1.00000000156021,0.636362149911299
23299.9999999414,22.6510231091655,1.00000000153091,0.640854380814029
23399.99999994,22.6482865645966,1.0000000014993,0.645474098128957
23499.9999999385,22.6429487925229,1.00000000149717,0.644601434262347
23599.9999999371,22.6364546706848,1.00000000147964,0.639149826576395
23699.9999999356,22.6281776251575,1.00000000148087,0.64462396447938
23799.9999999342,22.6202998583049,1.00000000148578,0.643905946877076
23899.9999999327,22.6140245032778,1.0000000014648,0.6386583489194
23999.9999999312,22.6079956038759,1.00000000157684,0.641693247885162
24099.9999999298,22.6000711768713,1.00000000149056,0.638136588432706
24199.9999999283,22.5879592427757,1.00000000162855,0.641473661776761
24299.9999999269,22.5710298244026,1.00000000159767,0.64053680000643
24399.9999999254,22.5524753931976,1.00000000149245,0.639676317169791
24499.999999924,22.532477533833,1.00000000156866,0.649121007968692
24599.9999999225,22.5095378028377,1.00000000155309,0.645876249817297
24699.9999999211,22.4865111009554,1.00000000153252,0.646970715435949
24799.9999999196,22.462678714514,1.00000000152832,0.651207449164562
24899.9999999181,22.4361697448997,1.00000000151949,0.645978611078453
24999.9999999167,22.4092743975439,1.0000000014686,0.637869742084246
25099.9999999152,22.3802418468106,1.00000000154286,0.640753541795827
25199.9999999138,22.3485613529951,1.00000000153253,0.638498257554702
25299.9999999123,22.3144382558667,1.00000000153968,0.641261313666923
25399.9999999109,22.2785479601598,1.00000000152799,0.642361455894921
25499.9999999094,22.2396827816252,1.00000000163602,0.652448868186808
25599.999999908,22.1979252749789,1.00000000168582,0.64641162422018
25699.9999999065,22.154207996762,1.00000000159061,0.646458185828112
25799.9999999051,22.109727873868,1.00000000157329,0.645445869684457
25899.9999999036,22.0652040271402,1.00000000150156,0.648954903039484
25999.9999999021,22.0218907943191,1.00000000152639,0.645318387706353
26099.9999999007,21.9817489536691,1.00000000148634,0.63437069984414
26199.9999998992,21.9445056907496,1.00000000145177,0.623532829066466
26299.9999998978,21.910730632577,1.00000000150072,0.622026412592928
26399.9999998963,21.8812180281643,1.00000000152292,0.621830121816024
26499.9999998949,21.8560693401933,1.00000000155202,0.622522688582146
26599.9999998934,21.8342238090491,1.00000000164029,0.628421677047448
26699.999999892,21.8153777334198,1.00000000153922,0.629870711901904
26799.9999998905,21.8013885674368,1.00000000151598,0.623723050053304
26899.999999889,21.7919429232561,1.00000000154286,0.623937506122632
26999.9999998876,21.7871408472739,1.00000000145718,0.618174088288853
27099.9999998861,21.7888718820807,1.00000000148467,0.609944184045804
27199.9999998847,21.7954278046501,1.00000000153509,0.60795111137924
27299.9999998832,21.8062074941437,1.00000000147684,0.609484425442272
27399.9999998818,21.8220370397899,1.00000000154836,0.609156038700513
27499.9999998803,21.8390968466411,1.00000000155516,0.607958604424371
27599.9999998789,21.8594537198291,1.0000000016039,0.603564243276749
27699.9999998774,21.8823887139025,1.00000000164773,0.602622696663789
27799.9999998759,21.9059266396987,1.00000000167236,0.599894904165323
27899.9999998745,21.9304746372852,1.00000000157008,0.590276379699994
27999.999999873,21.9581503216775,1.00000000150574,0.597381403398966
28099.9999998716,21.9873439763584,1.00000000165711,0.597607206542081
28199.9999998701,22.0168021500562,1.00000000159952,0.59291307325114
28299.9999998687,22.0509733444721,1.00000000144894,0.588229076409844
28399.9999998672,22.0901206034622,1.00000000150573,0.591687792533138
28499.9999998658,22.1302635634033,1.00000000160158,0.594714291550235
28599.9999998643,22.1705855840998,1.00000000164596,0.596558392808133
28699.9999998629,22.2144017937919,1.00000000154407,0.600074555333559
28799.9999998614,22.2593642941566,1.00000000166263,0.608349267639893
28899.9999998599,22.3043798927688,1.0000000016436,0.612117118086178
28999.9999998585,22.3482891594465,1.00000000167783,0.615527227633473
