Time,AGPnorm,Energy,Entropy
0,0,1,-7.48000088640794e-17
99.9999999999986,0.00165644868639142,0.999999999997673,0.00528427503988192
199.999999999993,0.0116756933934353,0.999999999997739,0.0153198665309042
300,0.0234321277789914,1.00000000000034,0.0283981199460019
400.000000000022,0.0345902741515872,1.00000000000098,0.0451759909951527
500.000000000045,0.0490596327758454,0.999999999998227,0.0654720230734799
600.000000000068,0.0671194027217172,0.999999999997074,0.0889702174511103
700.000000000091,0.0846779488650101,0.999999999999549,0.116366281990811
800.000000000113,0.101239265031455,1.00000000000236,0.149560235096509
900.000000000136,0.118632945772721,1.00000000001562,0.191672626891655
1000.00000000016,0.134262911330483,1.00000000011613,0.244922625837453
1100.0000000001,0.160688102517558,1.00000000037462,0.303860994928192
1200,0.229595757294981,1.00000000077232,0.359600842030952
1299.99999999991,0.37759821400653,1.00000000123106,0.408232008808467
1399.99999999982,0.712415968061669,1.00000000154682,0.449328983277942
1499.99999999973,1.36003707366278,1.00000000187696,0.482317348129408
1599.99999999964,2.37157329399589,1.00000000215953,0.509994056396078
1699.99999999955,3.77863741133506,1.00000000211951,0.53330586866688
1799.99999999946,5.63426284828783,1.00000000238698,0.550646943688057
1899.99999999937,7.91514261239117,1.00000000234694,0.563593684548871
1999.99999999928,10.509673619039,1.00000000236666,0.574095054018973
2099.99999999919,13.3473985847979,1.00000000233811,0.58231624107532
2199.99999999909,16.3990818996872,1.00000000232855,0.587148996805175
2299.999999999,19.5818946653385,1.00000000225158,0.589673548814001
2399.99999999891,22.7670850771046,1.00000000217938,0.591344263814548
2499.99999999882,25.8688699777606,1.00000000204159,0.593075145565709
2599.99999999873,28.8647865509438,1.0000000020983,0.592516826041192
2699.99999999864,31.7183853123269,1.00000000201427,0.590565246167297
2799.99999999855,34.3655161389109,1.00000000193245,0.588546046337083
2899.99999999846,36.7552547580702,1.0000000019118,0.587790115751133
2999.99999999837,38.8764677077439,1.00000000177403,0.58587450517715
3099.99999999828,40.740259958194,1.0000000017092,0.581561001902246
3199.99999999819,42.3414575103869,1.00000000167926,0.578740758700663
3299.99999999809,43.6660896458152,1.0000000015649,0.578030092043011
3399.999999998,44.7172854962524,1.00000000152874,0.576104689031184
3499.99999999791,45.5137572197893,1.0000000014746,0.577917483460037
3599.99999999782,46.0790801855803,1.00000000136589,0.570741227713942
3699.99999999773,46.4314890731567,1.00000000134323,0.575078599388223
3799.99999999764,46.5834475144611,1.00000000128983,0.564413649752294
3899.99999999755,46.5590658842823,1.0000000014256,0.5800747240878
3999.99999999746,46.3889243245592,1.00000000112056,0.548551353068214
4099.99999999738,46.1019109905487,1.00000000158262,0.582287812381189
4199.99999999775,45.7232208553271,1.00000000110835,0.539516817608415
4299.99999999811,45.2446099261307,1.00000000146834,0.579256090487381
4399.99999999848,44.7351519281958,1.00000000121866,0.548026499323305
4499.99999999884,44.1414187521829,1.00000000127944,0.538716657462343
4599.9999999992,43.5438152746121,1.00000000191068,0.579122590961599
4699.99999999957,42.9259022013135,1.00000000116967,0.518925153992167
4799.99999999993,42.2603553339068,1.0000000015073,0.550736561924041
4900.00000000029,41.6192871454574,1.00000000172932,0.559566660151935
5000.00000000066,40.9686870486303,1.00000000118268,0.505022452666478
5100.00000000102,40.2930690250429,1.0000000013588,0.527234291043639
5200.00000000139,39.6435972956536,1.00000000180396,0.561971810699258
5300.00000000175,39.0079907004305,1.00000000130828,0.500075019162341
5400.00000000211,38.357980104072,1.00000000127561,0.501851221964564
5500.00000000248,37.7175406089829,1.00000000170441,0.545019262698371
5600.00000000284,37.1045654908225,1.00000000157162,0.529653461419314
5700.00000000321,36.5026042067147,1.00000000113759,0.492861162845051
5800.00000000357,35.9028595158508,1.00000000131193,0.509120850563568
5900.00000000393,35.3148212631387,1.00000000151261,0.527626131692881
6000.0000000043,34.7472872163346,1.00000000157989,0.529866090728661
6100.00000000466,34.1964193886019,1.00000000119877,0.493035834771425
6200.00000000502,33.6596468462838,1.00000000129963,0.517372470212129
6300.00000000539,33.1356597259987,1.00000000136737,0.51923576002926
6400.00000000575,32.6270393353959,1.00000000150818,0.521993831454973
6500.00000000612,32.1339558938857,1.00000000149498,0.519195904702147
6600.00000000648,31.6568593392962,1.00000000120801,0.505989347769525
6700.00000000684,31.1992051488293,1.00000000132084,0.516553261733802
6800.00000000721,30.7551551497844,1.00000000150996,0.536071589048429
6900.00000000757,30.3272185178772,1.00000000123917,0.508473960769527
7000.00000000793,29.9167397213208,1.0000000013731,0.514196847698518
7100.0000000083,29.5162596718259,1.00000000162271,0.520759665353465
7200.00000000866,29.1298980249003,1.00000000133651,0.5089353461252
7300.00000000903,28.7633358868095,1.00000000125687,0.51322180455185
7400.00000000939,28.4086671564666,1.00000000161292,0.53472415346932
7500.00000000975,28.0624906379701,1.00000000146567,0.53111674841835
7600.00000001012,27.7363747141455,1.00000000126046,0.497778822101391
7700.00000001048,27.4257168803803,1.0000000014784,0.520491589085483
7800.00000001084,27.1215773520886,1.00000000164538,0.526100503311994
7900.00000001121,26.8263204029007,1.00000000138838,0.509341172302871
8000.00000001157,26.5467462345094,1.00000000136947,0.517785039616807
8100.00000001194,26.2807172266313,1.00000000143727,0.529178577527114
8200.0000000123,26.0186710501241,1.00000000158883,0.530437455400022
8300.00000001266,25.7633211166223,1.00000000143275,0.529360263764722
8400.00000001303,25.523734388838,1.00000000127502,0.515776018746556
8500.00000001339,25.297771363491,1.00000000141017,0.515563260477927
8600.00000001376,25.0805767155671,1.00000000152826,0.535604552690541
8700.00000001412,24.8684950430105,1.00000000151838,0.531012194953693
8800.00000001448,24.6652875549812,1.00000000135508,0.519431086815136
8900.00000001485,24.4756268196813,1.00000000139016,0.527533474987012
9000.00000001521,24.2924333787473,1.0000000014773,0.544012841781447
9100.00000001557,24.1176075741713,1.00000000137543,0.533384924715331
9200.00000001594,23.9495669898399,1.00000000138165,0.524068760065692
9300.0000000163,23.7838142215734,1.00000000147191,0.537408095280331
9400.00000001667,23.6202887175663,1.00000000149997,0.55072493481068
9500.00000001703,23.4668105664578,1.00000000127585,0.530630771147883
9600.00000001739,23.3257448169615,1.00000000139727,0.537605086460972
9700.00000001776,23.1896800805822,1.00000000158363,0.548457872822472
9800.00000001812,23.0575713702446,1.00000000147338,0.532975797437546
9900.00000001848,22.9320504246346,1.00000000143424,0.53629870962001
10000.0000000188,22.8188472305579,1.00000000133102,0.539958691273552
10100.0000000192,22.7090973220198,1.00000000161735,0.546405414073291
10200.0000000196,22.5961652905371,1.00000000156291,0.552871953152957
10300.0000000199,22.4928677054958,1.00000000120712,0.527122229828901
10400.0000000203,22.4034639979561,1.00000000148778,0.537174015365116
10500.0000000207,22.3126284622739,1.00000000163299,0.540458610833873
10600.000000021,22.2153918287914,1.00000000160201,0.553472259188591
10700.0000000214,22.1149435867403,1.00000000146521,0.563462701955713
10800.0000000218,22.0177505072646,1.00000000139132,0.559439814820863
10900.0000000221,21.9262514009146,1.00000000142242,0.556824785499361
11000.0000000225,21.839884556813,1.00000000143182,0.560417555104003
11100.0000000229,21.7597063461738,1.00000000153978,0.551929519512067
11200.0000000232,21.686643089077,1.00000000148299,0.541863142039398
11300.0000000236,21.621003297484,1.00000000151842,0.540715504563227
11400.0000000239,21.5624192681925,1.00000000154077,0.557081240593676
11500.0000000243,21.5071535185209,1.00000000162891,0.564651045794363
11600.0000000247,21.4533333832123,1.00000000154761,0.556879898074534
11700.000000025,21.3990824347951,1.00000000149584,0.551822674124055
11800.0000000254,21.3483549931064,1.0000000014958,0.556472990562731
11900.0000000258,21.3054117120474,1.00000000138908,0.54610660796335
12000.0000000261,21.2689377900784,1.000000001466,0.554470827345207
12100.0000000265,21.2333039495113,1.0000000015783,0.568039065811166
12200.0000000269,21.1960110593241,1.0000000015867,0.56277530720993
12300.0000000272,21.1540313981143,1.00000000162896,0.572601643074185
12400.0000000276,21.1038774358025,1.00000000152027,0.577435088338999
12500.0000000279,21.0465617159665,1.00000000160408,0.587835845535021
12600.0000000283,20.9856690240769,1.00000000157468,0.593664263608297
12700.0000000287,20.9276137436921,1.00000000146013,0.581382528918795
12800.000000029,20.8763448266665,1.00000000151524,0.579879099544007
12900.0000000294,20.833040008725,1.00000000158602,0.574529579026752
13000.0000000298,20.7978259652566,1.00000000151644,0.557065845485724
13100.0000000301,20.7681990232561,1.00000000152693,0.551312317911667
13200.0000000305,20.744821284926,1.00000000157651,0.557159135463142
13300.0000000309,20.7251801504743,1.00000000158304,0.565502574427392
13400.0000000312,20.7073480101248,1.00000000165265,0.580380717090645
13500.0000000316,20.6901867724507,1.00000000151068,0.573240539358554
13600.0000000319,20.673143546974,1.00000000151312,0.569416077201852
13700.0000000323,20.6602343558793,1.00000000149559,0.561410262237881
13800.0000000327,20.6518055130353,1.00000000155496,0.554887815138335
13900.000000033,20.6425817609646,1.00000000165263,0.566256006391772
14000.0000000334,20.6348325177774,1.0000000014584,0.571290177508769
14100.0000000338,20.6329293107224,1.00000000152996,0.577891382681602
14200.0000000341,20.6343736128708,1.00000000158514,0.584113139266302
14300.0000000345,20.6336209819909,1.00000000165217,0.597852143858125
14400.0000000349,20.624315045229,1.00000000165547,0.601400265790187
14500.0000000352,20.6087728203751,1.00000000159601,0.607427009758563
14600.0000000356,20.5908089087048,1.00000000151537,0.597219869299767
14700.0000000359,20.5703482856485,1.00000000154982,0.593458690959348
14800.0000000363,20.5446498630127,1.00000000167558,0.601089689439005
14900.0000000367,20.512483493832,1.00000000171685,0.594818854546833
15000.000000037,20.4735603462277,1.00000000163661,0.597866507947372
15100.0000000374,20.4315793373091,1.00000000157168,0.599366830607476
15200.0000000378,20.3894601175808,1.00000000150586,0.597286434517482
15300.0000000381,20.3513578905166,1.00000000153531,0.592399999427445
15400.0000000385,20.3201192864492,1.00000000157917,0.586010556467351
15500.0000000389,20.295588866528,1.00000000157379,0.578773930944803
15600.0000000392,20.2785051021755,1.00000000162134,0.571592854906976
15700.0000000396,20.268631928631,1.00000000149157,0.565667657566093
15800.0000000399,20.2660098494954,1.00000000160486,0.568407293845431
15900.0000000403,20.2676389058722,1.00000000150828,0.572616076540599
16000.0000000407,20.2714485838669,1.00000000163003,0.588031345787389
16100.000000041,20.276898887152,1.00000000154365,0.583213250008116
16200.0000000414,20.2806990871781,1.00000000169174,0.58558866447549
16300.0000000418,20.2843985970402,1.00000000151694,0.577451362821283
16400.0000000418,20.2921262033214,1.00000000157216,0.571703314398078
16500.0000000404,20.3023507057783,1.00000000153029,0.576839436683558
16600.0000000389,20.3137012198488,1.00000000163197,0.584907601114455
16700.0000000375,20.3260313397643,1.0000000015411,0.58614429986334
16800.000000036,20.340877949715,1.00000000158563,0.582707817054934
16900.0000000346,20.3553144297807,1.00000000165031,0.588401619466437
17000.0000000331,20.369779198776,1.00000000164504,0.582205776629773
17100.0000000317,20.3847605049403,1.00000000161823,0.577791757471575
17200.0000000302,20.4020943608734,1.00000000152778,0.589911103121567
17300.0000000287,20.4194789992665,1.00000000167595,0.604565569218088
17400.0000000273,20.434387902155,1.0000000016471,0.612137684094307
17500.0000000258,20.4442525389859,1.00000000173504,0.624138096011426
17600.0000000244,20.4490953410643,1.00000000162292,0.627884509095444
17700.0000000229,20.4503899186496,1.0000000016873,0.627874321062058
17800.0000000215,20.4480979266555,1.00000000161951,0.621447091093324
17900.00000002,20.4419791541979,1.00000000167768,0.626375255139556
18000.0000000186,20.4325461621336,1.0000000016378,0.628482180338229
18100.0000000171,20.4201590999184,1.00000000162749,0.635951125405309
18200.0000000156,20.405887119463,1.00000000161478,0.633960739362469
18300.0000000142,20.3896430132894,1.00000000160387,0.637178676530621
18400.0000000127,20.3694779352282,1.00000000170238,0.641006333422803
18500.0000000113,20.3427952028491,1.00000000175928,0.64359152655026
18600.0000000098,20.3089962122166,1.00000000170769,0.633911303052374
18700.0000000084,20.2715406809218,1.00000000174142,0.636395050882851
18800.0000000069,20.23040626574,1.00000000173437,0.631922270699136
18900.0000000055,20.1900817238256,1.00000000159541,0.62599609552911
19000.000000004,20.1528517163456,1.00000000164647,0.624553120621845
19100.0000000026,20.1192387385869,1.00000000161258,0.623471391123463
19200.0000000011,20.0915087745968,1.00000000157082,0.620270662619853
19299.9999999996,20.0693782301921,1.00000000165501,0.619687703620798
19399.9999999982,20.053393994166,1.00000000169057,0.616682507334145
19499.9999999967,20.0432041022449,1.00000000167193,0.616637992732956
19599.9999999953,20.0379690157718,1.00000000161755,0.607110444174027
19699.9999999938,20.0395711179063,1.0000000015504,0.596219638852585
19799.9999999924,20.0472267964067,1.00000000163788,0.59436313025506
19899.9999999909,20.0580003176622,1.0000000017318,0.602102420959451
19999.9999999895,20.0714009548796,1.00000000174571,0.605430091925597
20099.999999988,20.0842956090211,1.00000000174452,0.612166390797157
20199.9999999865,20.0982705696725,1.00000000168992,0.610361118698348
20299.9999999851,20.1149794201328,1.00000000169064,0.607720834732663
20399.9999999836,20.1312474982028,1.00000000177155,0.608018394761323
20499.9999999822,20.1496167166979,1.00000000169153,0.603297049814984
20599.9999999807,20.1692659600579,1.00000000165894,0.59485024783124
20699.9999999793,20.1915831235741,1.00000000167839,0.597233114818402
20799.9999999778,20.2154841745802,1.00000000175579,0.600343814872159
20899.9999999764,20.241086445407,1.00000000169794,0.605983640467137
20999.9999999749,20.2658090664833,1.00000000172424,0.606619091885073
21099.9999999734,20.2895983355707,1.00000000178943,0.609130333114301
21199.999999972,20.3142302894636,1.00000000178389,0.612868339241447
21299.9999999705,20.342111748521,1.00000000163335,0.614771423175003
21399.9999999691,20.3712177909432,1.00000000184523,0.622277290000233
21499.9999999676,20.3985036324486,1.0000000017388,0.624994231577811
21599.9999999662,20.4217956061618,1.00000000182978,0.638012475555877
21699.9999999647,20.4409310413667,1.00000000188116,0.648401412852359
21799.9999999633,20.4563176288125,1.00000000190025,0.652883540814843
21899.9999999618,20.4690825862421,1.00000000171612,0.651664855551387
21999.9999999603,20.4813621402149,1.00000000177501,0.644156776546387
22099.9999999589,20.4935261141588,1.00000000177181,0.644609318828271
22199.9999999574,20.5080153227322,1.00000000167857,0.644692010209143
22299.999999956,20.5239747360598,1.00000000179624,0.653837497686483
22399.9999999545,20.5388666850289,1.00000000182249,0.654890609456569
22499.9999999531,20.5519475215348,1.00000000193386,0.656058276069533
22599.9999999516,20.5604046673554,1.00000000186153,0.651213993612545
22699.9999999502,20.5639449071499,1.00000000176336,0.652618789965571
22799.9999999487,20.5653891148091,1.00000000192374,0.655633695088141
22899.9999999473,20.5643739506607,1.00000000181036,0.655044178242534
22999.9999999458,20.5639077350037,1.00000000182626,0.64496870957289
23099.9999999443,20.5643408723302,1.00000000185035,0.645414395044045
23199.9999999429,20.5632287683699,1.0000000017969,0.645390271986441
23299.9999999414,20.5595863527367,1.00000000178574,0.638812053465551
23399.99999994,20.5544295219646,1.00000000190393,0.64618884534304
23499.9999999385,20.5483711631685,1.00000000178776,0.645866345400957
23599.9999999371,20.5420794619603,1.00000000174883,0.656081939534678
23699.9999999356,20.5331755343874,1.00000000195565,0.664833499146056
23799.9999999342,20.5225349356213,1.00000000183119,0.66034625984433
23899.9999999327,20.5110909462894,1.00000000176276,0.661986352249886
23999.9999999312,20.497175274806,1.00000000189508,0.667310070010165
24099.9999999298,20.4826249129356,1.00000000177654,0.660700462425319
24199.9999999283,20.4661521168414,1.00000000197276,0.664462272855403
24299.9999999269,20.4444270876988,1.00000000194673,0.650469702352034
24399.9999999254,20.4208435716878,1.00000000181462,0.653322660202858
24499.999999924,20.396376569014,1.00000000190939,0.659544557936119
24599.9999999225,20.3716512127965,1.00000000181189,0.657133128118359
24699.9999999211,20.345296265552,1.00000000187264,0.660548309036228
24799.9999999196,20.316993463491,1.00000000191054,0.666423096532244
24899.9999999181,20.2848355468662,1.00000000202616,0.665727738630176
24999.9999999167,20.2494097021362,1.00000000201133,0.667347703669965
25099.9999999152,20.213000187765,1.00000000192123,0.666475379180752
25199.9999999138,20.1772565760561,1.00000000186107,0.668355407891642
25299.9999999123,20.1437193858117,1.00000000185376,0.664144102996829
25399.9999999109,20.1139691772251,1.00000000176917,0.658762212457448
25499.9999999094,20.0871626260985,1.00000000181359,0.64996551804594
25599.999999908,20.0637986886894,1.00000000190969,0.641734455749991
25699.9999999065,20.0442410578523,1.00000000189642,0.640612528276121
25799.9999999051,20.0301991681773,1.0000000018454,0.644163490730717
25899.9999999036,20.0221119295815,1.00000000190224,0.650948876254149
25999.9999999021,20.0180376543458,1.00000000191927,0.653153809379278
26099.9999999007,20.0200200424382,1.00000000184102,0.650936293223754
26199.9999998992,20.0273655898788,1.00000000183803,0.64785933616308
26299.9999998978,20.03922172328,1.00000000173779,0.639626133889562
26399.9999998963,20.0578311691277,1.00000000177396,0.629231138685459
26499.9999998949,20.0818716709084,1.00000000194037,0.630264095042251
26599.9999998934,20.1058080676593,1.00000000193216,0.629161094636391
26699.999999892,20.1337850507138,1.00000000186662,0.624302266360636
26799.9999998905,20.1619314640944,1.00000000212878,0.630538204933145
26899.999999889,20.187955448507,1.000000001897,0.619813211445028
26999.9999998876,20.2181548957365,1.00000000182731,0.614206704328437
27099.9999998861,20.2501891431279,1.00000000208621,0.622553150404342
27199.9999998847,20.2821165976726,1.000000001982,0.615554716587141
27299.9999998832,20.3181733653174,1.00000000175637,0.612103071817694
27399.9999998818,20.3565500931897,1.00000000192253,0.618863842502384
27499.9999998803,20.3947378833496,1.00000000188025,0.613275677230052
27599.9999998789,20.434105413488,1.000000001915,0.615153380441545
27699.9999998774,20.4763066728776,1.0000000019303,0.613860938777203
27799.9999998759,20.5185437903606,1.00000000197858,0.614568610970094
27899.9999998745,20.5625881098612,1.0000000019453,0.616347462403174
27999.999999873,20.6089924334184,1.00000000193795,0.614507725541086
28099.9999998716,20.6560495769535,1.00000000195973,0.617100251111878
28199.9999998701,20.7036290875807,1.0000000020054,0.616753045763615
28299.9999998687,20.7495583975059,1.00000000199824,0.620578103392355
28399.9999998672,20.7957999593015,1.0000000020451,0.622098560734315
28499.9999998658,20.8450074876409,1.00000000192875,0.626472269003081
28599.9999998643,20.8922639969449,1.00000000208654,0.638562889803713
28699.9999998629,20.938710879927,1.00000000200197,0.645183439941263
28799.9999998614,20.9856102402252,1.0000000021505,0.641457875483971
28899.9999998599,21.0275313140422,1.0000000020562,0.649834642627199
28999.9999998585,21.0676635072251,1.00000000194966,0.645426307607431
