Time,AGPnorm,Energy,Entropy
0,0,1,-1.29338345091527e-17
99.9999999999986,3.81005161980827e-05,1.00000000000291,0.0015061127759997
199.999999999993,0.00330921115178846,0.999999999999579,0.00240530632775898
300,0.00815474939372429,1.00000000000187,0.00431069249300211
400.000000000022,0.0115177255468737,1.00000000000174,0.0071805304760158
500.000000000045,0.0143261371429152,0.999999999999541,0.00976572022011618
600.000000000068,0.0200090451777835,1.00000000000298,0.013505868043733
700.000000000091,0.0246310303294227,0.999999999999867,0.0172101587065181
800.000000000113,0.0316058995253148,1.0000000000014,0.0213513440267982
900.000000000136,0.039485543328084,1.00000000000227,0.0260171890240935
1000.00000000016,0.0459434531834711,0.999999999999172,0.0307079557009075
1100.0000000001,0.05428391973218,1.00000000000288,0.0359990922139603
1200,0.0638658391891609,1.00000000000039,0.0414185740564323
1299.99999999991,0.0737212614826119,1.00000000000082,0.0472849120643103
1399.99999999982,0.0836148780089054,1.00000000000265,0.053482520216153
1499.99999999973,0.0929517708178822,0.999999999999046,0.0598566029285329
1599.99999999964,0.103661527292016,1.00000000000265,0.0667829362021151
1699.99999999955,0.116056261668743,1.00000000000104,0.0739274846124872
1799.99999999946,0.127814393122691,1.00000000000014,0.0816383997817295
1899.99999999937,0.138840300807738,1.00000000000284,0.089663243406133
1999.99999999928,0.150353133064084,0.999999999999254,0.0980408177219785
2099.99999999919,0.16252667602484,1.00000000000234,0.107231325363536
2199.99999999909,0.175683271441068,1.00000000000169,0.116841385505112
2299.999999999,0.187858479345722,0.999999999999604,0.127301772557867
2399.99999999891,0.199341859890155,1.00000000000302,0.138528791264284
2499.99999999882,0.211970204752287,1.00000000000037,0.150722759336003
2599.99999999873,0.224775366883374,1.00000000000427,0.164576079521679
2699.99999999864,0.237251542702029,1.00000000000933,0.17980016527438
2799.99999999855,0.248338564894588,1.00000000001818,0.19663498465158
2899.99999999846,0.261645526450176,1.00000000004343,0.214914315676996
2999.99999999837,0.27246329008981,1.00000000007056,0.233867548434318
3099.99999999828,0.289531970498963,1.00000000012052,0.253523990861429
3199.99999999819,0.310101379221074,1.000000000177,0.272699367753165
3299.99999999809,0.333146520315853,1.00000000023432,0.291519575810019
3399.999999998,0.384491058602258,1.0000000003123,0.310071120793636
3499.99999999791,0.448650006775447,1.00000000035304,0.328047240401525
3599.99999999782,0.556671843495174,1.00000000046624,0.345574236574989
3699.99999999773,0.718654823001636,1.00000000053159,0.362229874668913
3799.99999999764,0.937306330576125,1.0000000005603,0.378281409449253
3899.99999999755,1.25423325050265,1.00000000064853,0.39386440865809
3999.99999999746,1.66543599900295,1.00000000071753,0.408213099498312
4099.99999999738,2.20460974176304,1.00000000081441,0.422230999541209
4199.99999999775,2.88488912738439,1.00000000081243,0.435466666636631
4299.99999999811,3.72114935432598,1.00000000090391,0.447657344798846
4399.99999999848,4.7357031207256,1.00000000092071,0.45985848557024
4499.99999999884,5.93385891437208,1.0000000009816,0.470540304129348
4599.9999999992,7.34453917500892,1.00000000096084,0.481138317045519
4699.99999999957,8.95236709763484,1.00000000105352,0.490741134456626
4799.99999999993,10.7886372016023,1.00000000107139,0.499490674052897
4900.00000000029,12.8474234862392,1.00000000107852,0.508286959535568
5000.00000000066,15.1180366221157,1.00000000116106,0.515842444183175
5100.00000000102,17.6390862477736,1.00000000114181,0.522971634093915
5200.00000000139,20.3549619564908,1.00000000119369,0.5300677333223
5300.00000000175,23.3019713836405,1.00000000115045,0.535867620533378
5400.00000000211,26.4680117337352,1.00000000113237,0.542025190349959
5500.00000000248,29.8066497829541,1.00000000113873,0.547309762661613
5600.00000000284,33.374627788868,1.00000000118744,0.551741692572122
5700.00000000321,37.0929853321402,1.00000000114388,0.556980617347639
5800.00000000357,40.982856048162,1.00000000116217,0.560743820946909
5900.00000000393,45.0506226236851,1.00000000117028,0.564533345803473
6000.0000000043,49.2160206904158,1.00000000115102,0.568316291835199
6100.00000000466,53.5445601167639,1.00000000112382,0.570940309390005
6200.00000000502,57.9622255113704,1.00000000116996,0.574185729440199
6300.00000000539,62.4623384669459,1.00000000115725,0.576734172328363
6400.00000000575,67.0766636370765,1.00000000117592,0.578701877553464
6500.00000000612,71.7095921743116,1.00000000114362,0.581492068645196
6600.00000000648,76.4194618657174,1.00000000110901,0.582794891405439
6700.00000000684,81.1562775587779,1.00000000112453,0.584879350996861
6800.00000000721,85.8865795195361,1.00000000107411,0.586462216780983
6900.00000000757,90.6604299979493,1.00000000105825,0.587265821706097
7000.00000000793,95.3871073933378,1.00000000110083,0.58903604360186
7100.0000000083,100.106878532121,1.00000000105475,0.589488447618823
7200.00000000866,104.798732064638,1.00000000105193,0.590151021006851
7300.00000000903,109.413829696881,1.00000000104581,0.591269891416159
7400.00000000939,114.006530139441,1.00000000103847,0.591433509541304
7500.00000000975,118.503723307954,1.0000000010208,0.592346109134157
7600.00000001012,122.927816809165,1.00000000098885,0.592363988864978
7700.00000001048,127.280196086712,1.00000000099228,0.592361777086367
7800.00000001084,131.507931631246,1.00000000099243,0.593263339818777
7900.00000001121,135.660549730858,1.00000000095017,0.592760370573452
8000.00000001157,139.68889009839,1.00000000093669,0.592921829465488
8100.00000001194,143.597350439569,1.00000000094128,0.593419715289055
8200.0000000123,147.404980151281,1.00000000090181,0.592224122197955
8300.00000001266,151.060088044892,1.00000000090463,0.59346355357394
8400.00000001303,154.609238198598,1.00000000088971,0.591705997787901
8500.00000001339,158.015225994582,1.00000000088777,0.592716348109792
8600.00000001376,161.280483034584,1.00000000086066,0.591807929492581
8700.00000001412,164.423512259139,1.00000000088401,0.591105196295077
8800.00000001448,167.408058277805,1.00000000085294,0.591457805341584
8900.00000001485,170.262892477565,1.00000000083192,0.590204573549321
9000.00000001521,172.974751541967,1.00000000081917,0.590611291224935
9100.00000001557,175.532204185356,1.00000000083994,0.589541101068377
9200.00000001594,177.964993396549,1.00000000080941,0.589480063568414
9300.0000000163,180.23754740775,1.00000000079678,0.588442794781324
9400.00000001667,182.378239197061,1.00000000076788,0.589180082812215
9500.00000001703,184.37855332794,1.00000000076073,0.586808278500044
9600.00000001739,186.228096430119,1.00000000074984,0.588504099531738
9700.00000001776,187.95551147246,1.00000000071772,0.586655274639548
9800.00000001812,189.532644452103,1.00000000073681,0.586691230497543
9900.00000001848,190.982497262914,1.00000000072822,0.587191521542352
10000.0000000188,192.303072976699,1.00000000070429,0.585295250761997
10100.0000000192,193.485502350405,1.00000000069985,0.587086143771634
10200.0000000196,194.554072765574,1.00000000070553,0.585118115200239
10300.0000000199,195.490342183458,1.0000000006837,0.584672805821286
10400.0000000203,196.309295544422,1.00000000066303,0.585739030837989
10500.0000000207,197.016086792698,1.0000000006556,0.584379486899137
10600.000000021,197.600262876088,1.00000000065079,0.583330228935798
10700.0000000214,198.08279231769,1.0000000006566,0.585528790744753
10800.0000000218,198.457152481379,1.00000000066608,0.584765415761889
10900.0000000221,198.729085234289,1.00000000063848,0.580390952477262
11000.0000000225,198.903688815466,1.00000000065385,0.584599587910035
11100.0000000229,198.984825005144,1.00000000068022,0.585988716405662
11200.0000000232,198.984458498967,1.00000000059786,0.577291649094172
11300.0000000236,198.888774520374,1.00000000063582,0.580346717971874
11400.0000000239,198.720557699326,1.0000000006832,0.585868132501954
11500.0000000243,198.487585838588,1.00000000063596,0.577275324632087
11600.0000000247,198.171853361585,1.00000000058256,0.571805335154933
11700.000000025,197.792563310955,1.00000000065845,0.581970335624325
11800.0000000254,197.359066364968,1.00000000066653,0.581246980226571
11900.0000000258,196.870596013428,1.00000000061582,0.572793781061776
12000.0000000261,196.320762449432,1.00000000057021,0.567097279554781
12100.0000000265,195.716135201894,1.00000000068779,0.580987617625309
12200.0000000269,195.082713554598,1.00000000066361,0.579731669368913
12300.0000000272,194.409221764763,1.00000000058059,0.567215029632369
12400.0000000276,193.683871095094,1.00000000056362,0.55847013172732
12500.0000000279,192.92117150889,1.00000000069409,0.579542656681733
12600.0000000283,192.138459824067,1.00000000072176,0.579524837146496
12700.0000000287,191.335880077688,1.00000000061938,0.564667961309275
12800.000000029,190.490798390509,1.00000000054122,0.549589781660179
12900.0000000294,189.611412434275,1.00000000066307,0.571042173332828
13000.0000000298,188.726822392653,1.00000000076262,0.582481602765427
13100.0000000301,187.832765016902,1.00000000067983,0.564840882939252
13200.0000000305,186.916942937535,1.00000000055163,0.548565167454964
13300.0000000309,185.968061970075,1.000000000584,0.549001671049393
13400.0000000312,185.007671980588,1.00000000075868,0.57934600903919
13500.0000000316,184.05371852609,1.00000000077484,0.574851355240413
13600.0000000319,183.094962781119,1.0000000006564,0.551469542861568
13700.0000000323,182.118299759133,1.00000000054864,0.541656002982656
13800.0000000327,181.121198718248,1.00000000064304,0.54863688242007
13900.000000033,180.121879158613,1.00000000073764,0.576305553753824
14000.0000000334,179.134136944283,1.00000000079481,0.571613662687621
14100.0000000338,178.147474599613,1.00000000062685,0.543928062493164
14200.0000000341,177.150269160223,1.00000000058397,0.538231674330674
14300.0000000345,176.140107515673,1.00000000061993,0.540888837632731
14400.0000000349,175.12813868267,1.00000000074869,0.565529152284347
14500.0000000352,174.128591412382,1.00000000082346,0.574477098317328
14600.0000000356,173.138036319008,1.00000000072213,0.545683851976324
14700.0000000359,172.145277677241,1.00000000058278,0.531669705926603
14800.0000000363,171.145981251555,1.00000000062059,0.537650549648127
14900.0000000367,170.142849741327,1.0000000006772,0.54503502470361
15000.000000037,169.147610485671,1.00000000077724,0.565840443670945
15100.0000000374,168.163134183481,1.00000000079817,0.564760142195745
15200.0000000378,167.187630385726,1.00000000066394,0.533175816379077
15300.0000000381,166.212879682657,1.00000000061158,0.529388077359367
15400.0000000385,165.236217366282,1.00000000061007,0.538888875832012
15500.0000000389,164.262411224727,1.00000000067071,0.542852911905589
15600.0000000392,163.294180564365,1.00000000073771,0.552775831343697
15700.0000000396,162.336842378873,1.0000000007955,0.560434893544539
15800.0000000399,161.389610232297,1.00000000069383,0.536343562803466
15900.0000000403,160.446322813237,1.00000000065184,0.524871881431325
16000.0000000407,159.507717349988,1.00000000063059,0.535011724262866
16100.000000041,158.571834848056,1.00000000068503,0.543641316415608
16200.0000000414,157.642135320642,1.00000000071311,0.541620445398342
16300.0000000418,156.720901440827,1.00000000071304,0.544199205242035
16400.0000000418,155.808113038822,1.00000000075233,0.548025516666723
16500.0000000404,154.904469728788,1.00000000070689,0.535679293942821
16600.0000000389,154.007536938989,1.0000000006361,0.523710537074534
16700.0000000375,153.116873213896,1.00000000063994,0.534784925880024
16800.000000036,152.232920693158,1.00000000068892,0.545812037613431
16900.0000000346,151.3553501878,1.00000000069062,0.540531986171747
17000.0000000331,150.48583989793,1.00000000067611,0.533868626589108
17100.0000000317,149.624367192643,1.00000000069265,0.53740582353536
17200.0000000302,148.770952198999,1.00000000072083,0.542265921744806
17300.0000000287,147.926292148674,1.00000000068242,0.532200035122275
17400.0000000273,147.089141861602,1.000000000659,0.529503652535655
17500.0000000258,146.260553882012,1.00000000064783,0.540913197645315
17600.0000000244,145.439530000801,1.00000000066382,0.545342356790502
17700.0000000229,144.626205942993,1.00000000064473,0.538152121874454
17800.0000000215,143.820936716358,1.00000000064996,0.53000955190701
17900.00000002,143.023531393946,1.00000000063663,0.531230729891612
18000.0000000186,142.234576720693,1.00000000069524,0.540040493032737
18100.0000000171,141.454069751936,1.00000000068769,0.54213738074079
18200.0000000156,140.681767168927,1.00000000064846,0.535832981380901
18300.0000000142,139.918251273973,1.00000000065532,0.538338900380709
18400.0000000127,139.163308488018,1.00000000064372,0.544931401613816
18500.0000000113,138.417358620409,1.00000000067916,0.544674925539202
18600.0000000098,137.679677504993,1.00000000064005,0.531620502133849
18700.0000000084,136.95047521293,1.00000000065842,0.528618277826832
18800.0000000069,136.230080506924,1.00000000067805,0.528192197724468
18900.0000000055,135.517917085072,1.00000000066725,0.538634267940186
19000.000000004,134.813857067561,1.00000000068135,0.546271129311658
19100.0000000026,134.117823935344,1.00000000066192,0.543677783219785
19200.0000000011,133.429967479618,1.00000000067368,0.540223593107787
19299.9999999996,132.75023819745,1.00000000068146,0.547892212768203
19399.9999999982,132.079235897417,1.00000000067094,0.544929274551018
19499.9999999967,131.418045542869,1.00000000060438,0.535240575233775
19599.9999999953,130.766752764432,1.0000000005856,0.521901042037048
19699.9999999938,130.12452887366,1.00000000067025,0.526031906879243
19799.9999999924,129.490321655792,1.0000000007208,0.529749517385015
19899.9999999909,128.863760602059,1.00000000068935,0.533293905574993
19999.9999999895,128.244609320561,1.00000000065902,0.542921050934136
20099.999999988,127.632573555266,1.00000000066754,0.547742787368083
20199.9999999865,127.027237367508,1.00000000068734,0.54672035942877
20299.9999999851,126.428090044416,1.0000000007453,0.549736013803789
20399.9999999836,125.835792638423,1.00000000072035,0.545673187270924
20499.9999999822,125.25348552685,1.00000000061418,0.536951102793908
20599.9999999807,124.682708419367,1.00000000056567,0.524970295772488
20699.9999999793,124.123013053584,1.00000000062084,0.517895031469734
20799.9999999778,123.571742895843,1.00000000071214,0.522471376716577
20899.9999999764,123.026975815239,1.00000000072951,0.528947442509231
20999.9999999749,122.488475385685,1.00000000065292,0.525460376296147
21099.9999999734,121.957087530457,1.00000000067225,0.529594011139875
21199.999999972,121.431242678846,1.00000000069475,0.546756033931246
21299.9999999705,120.909075248581,1.00000000073004,0.555191363878069
21399.9999999691,120.390770020351,1.00000000075754,0.552022874087276
21499.9999999676,119.877251346484,1.00000000074486,0.546488928755644
21599.9999999662,119.37084158616,1.00000000067135,0.539355066436538
21699.9999999647,118.875133791953,1.00000000057044,0.526210042876387
21799.9999999633,118.391834761133,1.00000000058265,0.5249497526175
21899.9999999618,117.919318019523,1.00000000063476,0.519935253349931
21999.9999999603,117.455457463944,1.00000000067806,0.516275858327266
22099.9999999589,116.997554723672,1.00000000071513,0.521323687333367
22199.9999999574,116.545074081972,1.00000000069189,0.521626682530402
22299.999999956,116.098246325028,1.000000000665,0.521482371670705
22399.9999999545,115.655702272272,1.0000000007142,0.532426680766455
22499.9999999531,115.215128892608,1.00000000074418,0.548086080306095
22599.9999999516,114.775130253344,1.00000000076639,0.555810950640079
22699.9999999502,114.337627301459,1.00000000071024,0.550964555468477
22799.9999999487,113.904362948052,1.00000000070409,0.54252516769936
22899.9999999473,113.477795685063,1.00000000067112,0.535240694387884
22999.9999999458,113.061408997214,1.00000000060792,0.530016228242841
23099.9999999443,112.655371154632,1.00000000061474,0.526884861261651
23199.9999999429,112.260346274941,1.00000000061914,0.525275464584973
23299.9999999414,111.874433221137,1.00000000066576,0.521180160638847
23399.99999994,111.496790196012,1.00000000062656,0.512297556844441
23499.9999999385,111.126394245791,1.00000000065819,0.516273993516931
23599.9999999371,110.760022197602,1.00000000067674,0.521181434662162
23699.9999999356,110.397079996047,1.00000000069439,0.526085993527672
23799.9999999342,110.03599481915,1.00000000070953,0.532804014103757
23899.9999999327,109.674863485087,1.00000000073001,0.539560948783391
23999.9999999312,109.312804324708,1.00000000073231,0.54763336848594
24099.9999999298,108.950796712789,1.000000000722,0.548988683752045
24199.9999999283,108.592157415063,1.00000000068435,0.543123422982192
24299.9999999269,108.239229866045,1.00000000065791,0.538227514827495
24399.9999999254,107.892602240426,1.00000000066609,0.539346454069553
24499.999999924,107.552765509661,1.00000000067751,0.539250562511231
24599.9999999225,107.220621899734,1.00000000065734,0.537120405103607
24699.9999999211,106.898399971037,1.00000000061755,0.527543740511453
24799.9999999196,106.586387684777,1.00000000060772,0.523719708993558
24899.9999999181,106.284043586101,1.00000000064921,0.520004110492789
24999.9999999167,105.990018796966,1.00000000064889,0.518018800186329
25099.9999999152,105.701967553038,1.00000000066988,0.521538963095012
25199.9999999138,105.41765418191,1.00000000069988,0.527905377681058
25299.9999999123,105.133978195959,1.00000000074011,0.536354927341395
25399.9999999109,104.849727800638,1.00000000072108,0.540548241860359
25499.9999999094,104.565258335185,1.00000000071766,0.540312844651945
25599.999999908,104.279089872675,1.00000000073192,0.541568091852139
25699.9999999065,103.993065719701,1.00000000067605,0.539516545566874
25799.9999999051,103.709586232073,1.00000000064969,0.544356757275917
25899.9999999036,103.429621964756,1.00000000067209,0.546778917855869
25999.9999999021,103.153656065455,1.0000000006618,0.547242508617426
26099.9999999007,102.882003538086,1.00000000069558,0.548133608882226
26199.9999998992,102.614595662126,1.00000000069246,0.547639512967333
26299.9999998978,102.352730696567,1.00000000065755,0.543768363326815
26399.9999998963,102.098586397719,1.00000000062344,0.535704163836094
26499.9999998949,101.854777607639,1.00000000060185,0.525975989258463
26599.9999998934,101.621825125076,1.00000000059465,0.522982338670638
26699.999999892,101.398788253507,1.00000000063859,0.52454204742302
26799.9999998905,101.182383206788,1.00000000067895,0.528140830023709
26899.999999889,100.971026687235,1.0000000006549,0.529862833487012
26999.9999998876,100.762526196509,1.00000000070051,0.535606836700763
27099.9999998861,100.553850625468,1.00000000073038,0.54078423015149
27199.9999998847,100.34380990332,1.00000000073298,0.548481065428238
27299.9999998832,100.1326267189,1.00000000067934,0.546235917388227
27399.9999998818,99.9209176837998,1.00000000070402,0.541178758041878
27499.9999998803,99.7088826622141,1.00000000072252,0.54208991008899
27599.9999998789,99.4965522204663,1.00000000071476,0.542288400678075
27699.9999998774,99.2854577038278,1.00000000066465,0.545272652876666
27799.9999998759,99.0763937905746,1.00000000066585,0.551689943033937
27899.9999998745,98.8695884008887,1.00000000068063,0.557179023836664
27999.999999873,98.6645885689911,1.00000000069043,0.556027274345088
28099.9999998716,98.4608148908253,1.00000000070767,0.55348808159498
28199.9999998701,98.2590790250238,1.0000000007159,0.547874504276727
28299.9999998687,98.0615082987057,1.00000000065414,0.542299111725808
28399.9999998672,97.8703855690229,1.00000000062513,0.534634487104097
28499.9999998658,97.6893409082579,1.00000000059158,0.525844290300662
28599.9999998643,97.5195691375116,1.00000000058044,0.521856099125629
28699.9999998629,97.3594900076559,1.00000000064157,0.525931702590463
28799.9999998614,97.2057794552169,1.00000000069252,0.531629280221779
28899.9999998599,97.0547619188083,1.00000000070622,0.536326467703379
