Time,AGPnorm,Energy,Entropy
0,0,1,-1.33342628221295e-17
99.9999999999986,3.07949469020349e-05,0.999999999999544,0.00130383908731232
199.999999999993,0.00280788822650201,0.999999999999531,0.00210426535819354
300,0.00705497966410625,1.00000000000009,0.003664262154118
400.000000000022,0.00989250181251105,0.999999999999269,0.00623457685098514
500.000000000045,0.0118111694219359,0.999999999999844,0.00841501658463083
600.000000000068,0.0166732953139529,0.999999999999774,0.0116436478907781
700.000000000091,0.0208741942143263,0.999999999999338,0.0149290942260217
800.000000000113,0.0269365591275413,1.00000000000022,0.0183496477036029
900.000000000136,0.033450634103502,0.999999999999294,0.0225127137493179
1000.00000000016,0.0384797341448102,0.999999999999571,0.0265132547391327
1100.0000000001,0.045980664205793,1.00000000000009,0.0310123530217969
1200,0.0542640835572372,0.999999999999252,0.0358367381688442
1299.99999999991,0.0622913757356545,1.00000000000015,0.0407047929760128
1399.99999999982,0.070706544222952,0.9999999999994,0.0461007715477959
1499.99999999973,0.078978431848683,0.999999999999326,0.0515508358934194
1599.99999999964,0.088952361850989,1.00000000000042,0.0573282145294269
1699.99999999955,0.0994755939279259,0.999999999999216,0.0635738208531173
1799.99999999946,0.108702520689585,0.999999999999859,0.0698914970833192
1899.99999999937,0.118469140752141,0.999999999999665,0.0766232890284401
1999.99999999928,0.12934819094736,0.99999999999921,0.0836790924935279
2099.99999999919,0.14079488351478,1.00000000000056,0.0910898755091405
2199.99999999909,0.152034188825892,0.999999999999179,0.0990561267619094
2299.999999999,0.162049786841456,0.999999999999502,0.107254823990707
2399.99999999891,0.172821634759754,1.00000000000011,0.11599000793004
2499.99999999882,0.185056641878458,0.999999999999255,0.125453595350195
2599.99999999873,0.196686686090214,1.00000000000054,0.135533083129499
2699.99999999864,0.207587480491057,0.999999999999544,0.146534014219336
2799.99999999855,0.21802292051714,1.00000000000051,0.158392789895311
2899.99999999846,0.229673214318363,1.00000000000413,0.171517844432951
2999.99999999837,0.241248183226784,1.00000000000836,0.186240416691204
3099.99999999828,0.252605317134182,1.00000000002109,0.202028198674293
3199.99999999819,0.263859910642908,1.00000000003883,0.218879617026554
3299.99999999809,0.273221561152315,1.00000000006594,0.236291893812188
3399.999999998,0.292651488244031,1.00000000010429,0.253929198637672
3499.99999999791,0.308711929879221,1.00000000014465,0.27166237695282
3599.99999999782,0.335665729991985,1.00000000019456,0.28879828595325
3699.99999999773,0.384084765588697,1.00000000024095,0.305544537712387
3799.99999999764,0.440770798967117,1.00000000029362,0.322103889995352
3899.99999999755,0.54768029785023,1.00000000035662,0.338031129254086
3999.99999999746,0.69052150876201,1.000000000407,0.353534200761042
4099.99999999738,0.888290057837956,1.00000000045079,0.368377196410708
4199.99999999775,1.17910376257572,1.00000000049842,0.382492105803786
4299.99999999811,1.54106640303995,1.00000000055738,0.396354871925786
4399.99999999848,2.02536647984591,1.00000000060741,0.409435297530978
4499.99999999884,2.63917871779776,1.00000000064629,0.421725086278856
4599.9999999992,3.38188273957672,1.00000000070142,0.433671956441185
4699.99999999957,4.30224201478587,1.00000000072128,0.444862191114608
4799.99999999993,5.38654439510995,1.00000000077247,0.455634116909998
4900.00000000029,6.65830361410426,1.00000000079858,0.465733823384989
5000.00000000066,8.14285747401027,1.00000000080667,0.474963962387692
5100.00000000102,9.82276127951935,1.00000000084905,0.484069536210442
5200.00000000139,11.7254086484311,1.00000000084991,0.492560335109296
5300.00000000175,13.8568016385381,1.00000000089842,0.500242408501464
5400.00000000211,16.2034126625681,1.00000000093008,0.507712154955945
5500.00000000248,18.7868228609579,1.00000000100449,0.514194454057583
5600.00000000284,21.5955115068993,1.00000000092713,0.520990239474507
5700.00000000321,24.6181511017709,1.00000000097618,0.527008735229738
5800.00000000357,27.875127303049,1.00000000100807,0.53214473774596
5900.00000000393,31.3356266062491,1.00000000099286,0.537613796766673
6000.0000000043,34.9974065798906,1.00000000100979,0.542380518263817
6100.00000000466,38.8686782559209,1.00000000101317,0.546732006817831
6200.00000000502,42.9074220412678,1.00000000101879,0.551041322156074
6300.00000000539,47.1328947975869,1.00000000097083,0.554594647064753
6400.00000000575,51.5209063468062,1.00000000097168,0.558248603091405
6500.00000000612,56.0409473450518,1.00000000093527,0.561778558606001
6600.00000000648,60.7177125848969,1.00000000100321,0.564287251014636
6700.00000000684,65.4998979435631,1.00000000099965,0.567231099366568
6800.00000000721,70.3914944069596,1.00000000098011,0.569657107860221
6900.00000000757,75.3882118810044,1.00000000097332,0.571865593085435
7000.00000000793,80.4396385547818,1.00000000098247,0.574311412557418
7100.0000000083,85.5752000027517,1.00000000098397,0.575671125819244
7200.00000000866,90.7531886564304,1.00000000093968,0.577503227872079
7300.00000000903,95.9585786990685,1.00000000093787,0.579237938792809
7400.00000000939,101.205061432367,1.0000000009587,0.580173913501236
7500.00000000975,106.437556775666,1.00000000094119,0.581659416350039
7600.00000001012,111.680478155881,1.00000000089874,0.582349798896483
7700.00000001048,116.9090042442,1.00000000090905,0.583467718636434
7800.00000001084,122.094008906039,1.00000000087523,0.584606645400271
7900.00000001121,127.260360792143,1.00000000088574,0.584703159124022
8000.00000001157,132.359217656525,1.00000000087344,0.585347713928217
8100.00000001194,137.404359135478,1.0000000008753,0.58605019111697
8200.0000000123,142.388427674356,1.00000000084381,0.586222228528137
8300.00000001266,147.277162114599,1.00000000087748,0.586648044609923
8400.00000001303,152.097028118049,1.00000000082797,0.586595557571174
8500.00000001339,156.813210732784,1.00000000083261,0.586871382489854
8600.00000001376,161.426597128411,1.00000000083415,0.586952925880867
8700.00000001412,165.945982103631,1.00000000082991,0.586528465298864
8800.00000001448,170.333311639443,1.00000000080581,0.586617799204257
8900.00000001485,174.617299629267,1.0000000008179,0.586773269197207
9000.00000001521,178.771615436129,1.00000000076681,0.585777706579868
9100.00000001557,182.794567571284,1.00000000077798,0.586825432558573
9200.00000001594,186.698738539766,1.00000000074602,0.585077726015342
9300.0000000163,190.452748242477,1.00000000074083,0.586244329752588
9400.00000001667,194.080882979853,1.00000000072357,0.585002581740088
9500.00000001703,197.567008387368,1.0000000007211,0.584833356380007
9600.00000001739,200.906441193787,1.00000000072554,0.584851239249385
9700.00000001776,204.113271907473,1.00000000069561,0.583889128432446
9800.00000001812,207.165919617452,1.00000000071457,0.584183596996564
9900.00000001848,210.07913981844,1.00000000070634,0.583127836709356
10000.0000000188,212.850144587562,1.00000000068827,0.583354264647282
10100.0000000192,215.468653441656,1.00000000065324,0.582171235710016
10200.0000000196,217.952048984842,1.00000000064908,0.582494182850306
10300.0000000199,220.285908672681,1.00000000065225,0.581576392496174
10400.0000000203,222.478660327015,1.00000000062517,0.581061208302765
10500.0000000207,224.535647242392,1.00000000063573,0.581601875364439
10600.000000021,226.446524935831,1.00000000062829,0.579924641514717
10700.0000000214,228.225346180429,1.0000000006149,0.580151951404563
10800.0000000218,229.865385514296,1.00000000061137,0.580961994906588
10900.0000000221,231.37216470376,1.00000000058897,0.578187962381712
11000.0000000225,232.749667782807,1.00000000057549,0.579268998391536
11100.0000000229,233.994062623143,1.00000000058669,0.580041329285814
11200.0000000232,235.117356844781,1.00000000056219,0.577550894785994
11300.0000000236,236.112713270821,1.00000000055835,0.577773563785606
11400.0000000239,236.987574498083,1.00000000057,0.57829112975973
11500.0000000243,237.749270538437,1.00000000056598,0.578213688356518
11600.0000000247,238.391619989311,1.0000000005525,0.57741004356835
11700.000000025,238.927141200801,1.00000000053669,0.574854188132166
11800.0000000254,239.350698225996,1.00000000054306,0.577766970138029
11900.0000000258,239.674066025328,1.00000000054316,0.579456593525124
12000.0000000261,239.904682417949,1.00000000052372,0.573298051856619
12100.0000000265,240.028600537348,1.00000000051121,0.571569449784445
12200.0000000269,240.063600075137,1.00000000053606,0.579053624408086
12300.0000000272,240.019752242984,1.00000000054597,0.577838384443735
12400.0000000276,239.893383806582,1.00000000051048,0.570243496622323
12500.0000000279,239.68233614105,1.00000000048797,0.566858356684528
12600.0000000283,239.390130680826,1.00000000055054,0.576761049902538
12700.0000000287,239.041881206327,1.00000000056851,0.578726124148145
12800.000000029,238.63515820954,1.00000000050072,0.568383560688494
12900.0000000294,238.154700481888,1.00000000045532,0.55876980485935
13000.0000000298,237.606822879836,1.00000000051577,0.569773922989158
13100.0000000301,237.013224164853,1.00000000059147,0.581579469894351
13200.0000000305,236.386417265788,1.00000000055163,0.570862134422828
13300.0000000309,235.708286819941,1.00000000045946,0.554437679581492
13400.0000000312,234.965472709346,1.00000000046146,0.554279098119354
13500.0000000316,234.183781609873,1.00000000057787,0.577814394663565
13600.0000000319,233.382419366622,1.00000000060501,0.578712791949045
13700.0000000323,232.560249337753,1.00000000052478,0.561357341188851
13800.0000000327,231.693269005059,1.00000000044367,0.543926793838938
13900.000000033,230.775949267376,1.00000000048955,0.55116084313053
14000.0000000334,229.838569050318,1.00000000064691,0.578894339260898
14100.0000000338,228.898042148851,1.0000000006675,0.578713133130074
14200.0000000341,227.948134430848,1.00000000051696,0.55398875513365
14300.0000000345,226.964985950198,1.00000000042954,0.53682290856178
14400.0000000349,225.940663293517,1.00000000047735,0.539897003647475
14500.0000000352,224.901584383996,1.00000000060228,0.573127865027604
14600.0000000356,223.868822909223,1.00000000074117,0.583606428834719
14700.0000000359,222.841167808585,1.00000000053752,0.553519343883013
14800.0000000363,221.795947522291,1.00000000048097,0.535127043112534
14900.0000000367,220.718949683319,1.00000000041841,0.524622029292413
15000.000000037,219.622550257936,1.00000000057046,0.550602871905573
15100.0000000374,218.528862453668,1.00000000072279,0.582827860307797
15200.0000000378,217.451967291631,1.00000000070809,0.570757288234889
15300.0000000381,216.379151614752,1.00000000051441,0.540058443812022
15400.0000000385,215.289572553335,1.00000000044386,0.523463941784697
15500.0000000389,214.180144511361,1.00000000045625,0.521979346221486
15600.0000000392,213.058640024188,1.00000000056878,0.548439920334737
15700.0000000396,211.947003926133,1.00000000070801,0.580931812415457
15800.0000000399,210.854240725265,1.00000000067098,0.567177245607691
15900.0000000403,209.767718655724,1.00000000059035,0.536822161324539
16000.0000000407,208.676582943397,1.00000000044735,0.519884859931509
16100.000000041,207.57086445947,1.00000000047391,0.520067469374129
16200.0000000414,206.457549505992,1.00000000051702,0.53257425808265
16300.0000000418,205.349975295558,1.00000000066074,0.562171945941817
16400.0000000418,204.257271720445,1.00000000070644,0.57332694883746
16500.0000000404,203.179654738692,1.00000000063043,0.548852843127296
16600.0000000389,202.10651203346,1.00000000052806,0.520524597833055
16700.0000000375,201.029569092313,1.00000000048951,0.519027376968843
16800.000000036,199.949228891859,1.00000000049309,0.52347557977577
16900.0000000346,198.86679994162,1.00000000054429,0.530910178897385
17000.0000000331,197.792003027744,1.000000000645,0.551304273353501
17100.0000000317,196.730570277563,1.00000000069563,0.562706933897042
17200.0000000302,195.681419323664,1.0000000006503,0.545447883543342
17300.0000000287,194.640786953073,1.00000000053586,0.522523259740889
17400.0000000273,193.602198322448,1.00000000052213,0.5183883292591
17500.0000000258,192.565862639469,1.00000000051511,0.524365465313363
17600.0000000244,191.531522802415,1.00000000054993,0.528174691363188
17700.0000000229,190.501807392225,1.00000000057487,0.531656932171926
17800.0000000215,189.481258004359,1.00000000062548,0.541605283159722
17900.00000002,188.471204020129,1.0000000006514,0.547727078832314
18000.0000000186,187.471349040927,1.00000000061,0.537511695028209
18100.0000000171,186.480074484,1.00000000057436,0.523880258694969
18200.0000000156,185.494553351968,1.00000000051632,0.520056591561093
18300.0000000142,184.51527589277,1.00000000053246,0.527902823779071
18400.0000000127,183.540785919277,1.00000000053073,0.529117168347802
18500.0000000113,182.572880000506,1.00000000056082,0.527274108029814
18600.0000000098,181.612417501921,1.0000000005719,0.524871734097229
18700.0000000084,180.660188964689,1.00000000057635,0.532660246233581
18800.0000000069,179.717305660202,1.0000000006356,0.538722661274639
18900.0000000055,178.783552171376,1.00000000058549,0.535851002836286
19000.000000004,177.858054465648,1.0000000005595,0.528234480029068
19100.0000000026,176.940991835971,1.00000000051792,0.525172636714976
19200.0000000011,176.031356269316,1.0000000005454,0.531852434430122
19299.9999999996,175.129789474147,1.00000000052161,0.530908861356335
19399.9999999982,174.235171059086,1.00000000053145,0.524443027462757
19499.9999999967,173.348269571179,1.00000000051548,0.518257846662792
19599.9999999953,172.46988329196,1.0000000005589,0.520382223382045
19699.9999999938,171.599864606559,1.00000000056724,0.531863960747463
19799.9999999924,170.738367128886,1.00000000061354,0.539959408855875
19899.9999999909,169.885390506892,1.00000000059972,0.538301483877763
19999.9999999895,169.040644623938,1.00000000057725,0.532832160487762
20099.999999988,168.204627374474,1.00000000057294,0.534834355130964
20199.9999999865,167.377166093353,1.0000000005479,0.536561914138829
20299.9999999851,166.55874951859,1.00000000051984,0.532273954175123
20399.9999999836,165.748932456451,1.00000000046934,0.51896287362023
20499.9999999822,164.948054127486,1.00000000050193,0.512819309274466
20599.9999999807,164.156195491696,1.00000000054276,0.516957909726379
20699.9999999793,163.372932574852,1.00000000056483,0.52372821081461
20799.9999999778,162.597692277446,1.00000000059371,0.531915655343759
20899.9999999764,161.830124490602,1.00000000057987,0.541872934934395
20999.9999999749,161.070087800605,1.00000000054878,0.540959026691136
21099.9999999734,160.317862179655,1.00000000058307,0.537440200483575
21199.999999972,159.573323993872,1.00000000058897,0.541881140376913
21299.9999999705,158.836882534771,1.00000000058845,0.541950495639618
21399.9999999691,158.109619501589,1.00000000049982,0.530628766904067
21499.9999999676,157.393117427187,1.00000000047081,0.515007334413998
21599.9999999662,156.687713179026,1.00000000046446,0.505419521476764
21699.9999999647,155.992320108108,1.00000000054642,0.509619395519855
21799.9999999633,155.305276800833,1.00000000058038,0.519150904423905
21899.9999999618,154.62585086945,1.00000000059611,0.522759369474922
21999.9999999603,153.953008197985,1.00000000058607,0.530349837389001
22099.9999999589,153.286701345524,1.0000000005629,0.539571348453311
22199.9999999574,152.626661029977,1.00000000058569,0.543459865847919
22299.999999956,151.972683977918,1.00000000059348,0.541991100504851
22399.9999999545,151.324323012908,1.00000000062595,0.546951244498781
22499.9999999531,150.682051898724,1.00000000058971,0.544509643063446
22599.9999999516,150.047952473363,1.00000000054632,0.532105046712877
22699.9999999502,149.424997545497,1.00000000045269,0.516589960652792
22799.9999999487,148.815468517521,1.00000000044424,0.503679397892331
22899.9999999473,148.21855388906,1.00000000047915,0.498617364425054
22999.9999999458,147.631696995684,1.00000000056033,0.506795689782096
23099.9999999443,147.051527439056,1.00000000060881,0.517716444286729
23199.9999999429,146.4770194968,1.00000000059232,0.5195132783634
23299.9999999414,145.907601267119,1.0000000005719,0.52064972355131
23399.99999994,145.343168520435,1.00000000056152,0.530062986563009
23499.9999999385,144.783099204317,1.00000000057477,0.542584511625741
23599.9999999371,144.226506768615,1.00000000059868,0.547863298429431
23699.9999999356,143.673304830053,1.00000000061562,0.545845237748115
23799.9999999342,143.123509838216,1.00000000060638,0.54693668131025
23899.9999999327,142.578520003925,1.0000000005994,0.540000898586052
23999.9999999312,142.04219526853,1.00000000050468,0.523198782506883
24099.9999999298,141.517965354983,1.00000000047312,0.511680252240929
24199.9999999283,141.007256220247,1.00000000047146,0.505846310721033
24299.9999999269,140.509951560941,1.00000000049222,0.5008667990306
24399.9999999254,140.022908934803,1.00000000054659,0.502038267822083
24499.999999924,139.543206636138,1.00000000058004,0.508499298710029
24599.9999999225,139.068208012719,1.00000000062268,0.514174886368783
24699.9999999211,138.597318822451,1.0000000005876,0.515419627961586
24799.9999999196,138.129977803266,1.00000000057373,0.517851873997854
24899.9999999181,137.665212266121,1.00000000057664,0.527516759272365
24999.9999999167,137.201481066794,1.00000000062524,0.539814610962709
25099.9999999152,136.73806208145,1.00000000063261,0.548351968260795
25199.9999999138,136.275740252338,1.00000000063379,0.546908595895921
25299.9999999123,135.816013437848,1.00000000059953,0.541454105448464
25399.9999999109,135.36029299257,1.00000000060191,0.53673982354512
25499.9999999094,134.910773543497,1.00000000055236,0.530339022248245
25599.999999908,134.470169865927,1.00000000053894,0.519205237553384
25699.9999999065,134.040853453617,1.00000000048982,0.510859282974032
25799.9999999051,133.624068310083,1.00000000049166,0.509957313135793
25899.9999999036,133.2186503108,1.000000000486,0.510240495113195
25999.9999999021,132.824046701921,1.00000000055413,0.503831549404883
26099.9999999007,132.437576024528,1.00000000054322,0.504478173274823
26199.9999998992,132.057488078182,1.00000000054468,0.508287422747019
26299.9999998978,131.681935164403,1.00000000058507,0.514535405266836
26399.9999998963,131.308309888486,1.0000000006021,0.519684560061651
26499.9999998949,130.935946908893,1.0000000005947,0.52410262708195
26599.9999998934,130.563615398719,1.00000000061842,0.529497745265377
26699.999999892,130.189707153399,1.00000000062117,0.535324991835203
26799.9999998905,129.814636437316,1.00000000061033,0.540605264426275
26899.999999889,129.439474872915,1.00000000059824,0.543757216189087
26999.9999998876,129.066314770572,1.00000000057781,0.538757242153838
27099.9999998861,128.696960568507,1.00000000056388,0.53484514239169
27199.9999998847,128.332570737901,1.00000000056406,0.532149434173699
27299.9999998832,127.974065724121,1.00000000056121,0.530033778039942
27399.9999998818,127.622086816523,1.0000000005598,0.525971784444136
27499.9999998803,127.278641929427,1.0000000005081,0.51927717220603
27599.9999998789,126.945476129103,1.00000000051656,0.514521827582246
27699.9999998774,126.623106227706,1.00000000049224,0.513239353305195
27799.9999998759,126.311957289578,1.00000000051227,0.510891151717351
27899.9999998745,126.010072898656,1.00000000052633,0.510100821460207
27999.999999873,125.716190568152,1.00000000053272,0.509635840550364
28099.9999998716,125.428252306169,1.00000000059308,0.515858720549694
28199.9999998701,125.143924626205,1.00000000057509,0.518316898904087
28299.9999998687,124.861292185709,1.0000000005895,0.526960679053152
28399.9999998672,124.577845276571,1.00000000059494,0.534255670048793
28499.9999998658,124.293095807457,1.00000000059769,0.533981416174959
28599.9999998643,124.006744722521,1.00000000058564,0.534903804196333
28699.9999998629,123.718078344632,1.0000000006029,0.538284613142497
28799.9999998614,123.427485425725,1.00000000062533,0.540465793250654
28899.9999998599,123.137079056102,1.00000000058974,0.541944359536599
