Time,AGPnorm,Energy,Entropy
0,0,1,-1.08916501129707e-17
99.9999999999986,1.80132690214859e-05,0.999999999999744,0.000781451454240592
199.999999999993,0.00157854741730686,0.999999999999067,0.0012538152118829
300,0.0038829035869966,1.0000000000004,0.00221787361384773
400.000000000022,0.00530511507631577,0.999999999999053,0.00380345641679697
500.000000000045,0.00652958996137239,0.999999999999742,0.00513268617332057
600.000000000068,0.00944534794966584,1.00000000000003,0.00713454828568682
700.000000000091,0.0116798718787999,0.99999999999887,0.00918287288165225
800.000000000113,0.0149106536976173,1.00000000000041,0.0113287475757083
900.000000000136,0.0188455956941538,0.999999999999268,0.0139229525629186
1000.00000000016,0.0220715765383269,0.999999999999425,0.0164088747722294
1100.0000000001,0.0262577072212557,1.00000000000029,0.0192295435143919
1200,0.0305960817217846,0.999999999998789,0.0222363096154424
1299.99999999991,0.0353960612551952,1.00000000000028,0.025257230658122
1399.99999999982,0.0410491182751646,0.999999999999564,0.0285957179138059
1499.99999999973,0.0462178918365565,0.999999999999086,0.0319603940317067
1599.99999999964,0.0517359503571132,1.00000000000045,0.0354983183730046
1699.99999999955,0.0576932566314951,0.999999999998859,0.0392746492779435
1799.99999999946,0.0638351323573847,1.00000000000006,0.043091297404235
1899.99999999937,0.0706346159439872,0.99999999999989,0.0471247366051333
1999.99999999928,0.0773053701799311,0.999999999998785,0.0512918620872279
2099.99999999919,0.0840753933754341,1.00000000000049,0.0555622653726787
2199.99999999909,0.0914492701150648,0.999999999999073,0.0600860452468369
2299.999999999,0.0986993074954922,0.999999999999778,0.0647218060157877
2399.99999999891,0.106104308628205,1.00000000000019,0.069522441490619
2499.99999999882,0.113658636250083,0.999999999998611,0.0745347584509061
2599.99999999873,0.121409162395163,1.00000000000041,0.0796701036949846
2699.99999999864,0.129813559341463,0.999999999999375,0.0850660461015375
2799.99999999855,0.137938963912421,0.999999999999409,0.0906726005481839
2899.99999999846,0.145658355429717,1.00000000000041,0.0964408954776537
2999.99999999837,0.153701726225821,0.999999999998651,0.10250425054372
3099.99999999828,0.162040338605149,1.00000000000028,0.108800585738893
3199.99999999819,0.170872637336037,0.999999999999711,0.115417020068765
3299.99999999809,0.179407785204866,0.999999999998969,0.12239654119782
3399.999999998,0.187343240321291,1.00000000000052,0.129630683154886
3499.99999999791,0.195721031638935,0.99999999999896,0.137344970406087
3599.99999999782,0.20432576489013,1.00000000000042,0.145537004167236
3699.99999999773,0.213065676474996,1.00000000000062,0.154285009867667
3799.99999999764,0.221259055429894,0.999999999999962,0.163713641584882
3899.99999999755,0.229492989010123,1.0000000000031,0.173741148076738
3999.99999999746,0.237915413092579,1.00000000000428,0.184577615588402
4099.99999999738,0.24642869108812,1.00000000000946,0.196155353453783
4199.99999999775,0.256023269211693,1.00000000001635,0.208284305352923
4299.99999999811,0.263303855376591,1.00000000002446,0.220950067895547
4399.99999999848,0.274578051583851,1.00000000003724,0.233860470140218
4499.99999999884,0.287399007474727,1.00000000005022,0.246988064197833
4599.9999999992,0.30134963498799,1.00000000006471,0.260168026355935
4699.99999999957,0.327275059012029,1.00000000008666,0.273000478029711
4799.99999999993,0.354855019387479,1.00000000010625,0.285726090757761
4900.00000000029,0.40133757539824,1.00000000013034,0.298160037193789
5000.00000000066,0.469802129126,1.00000000015071,0.310393703017413
5100.00000000102,0.555947389494882,1.00000000016427,0.322485842806893
5200.00000000139,0.687961277871461,1.0000000001936,0.33398826272516
5300.00000000175,0.85593455420344,1.00000000021574,0.34525423538799
5400.00000000211,1.07917253014841,1.00000000025338,0.356214524781808
5500.00000000248,1.3772871272213,1.00000000027008,0.366782200268031
5600.00000000284,1.74114972585538,1.00000000029182,0.377210683832807
5700.00000000321,2.20577836353519,1.00000000032053,0.387048690105013
5800.00000000357,2.77340574759565,1.00000000033403,0.396628189263123
5900.00000000393,3.45195451433505,1.00000000036345,0.406031827500918
6000.0000000043,4.27351595906282,1.00000000038536,0.414793938453265
6100.00000000466,5.23092735881603,1.00000000037861,0.423465131165537
6200.00000000502,6.3461333657397,1.00000000041095,0.431647991868116
6300.00000000539,7.63759777027699,1.00000000042497,0.439472616598932
6400.00000000575,9.09976149186987,1.00000000044776,0.447197507328759
6500.00000000612,10.7596798621287,1.00000000045044,0.454410935136671
6600.00000000648,12.6213802799521,1.00000000047725,0.461234370144535
6700.00000000684,14.6821946538101,1.0000000004806,0.468072814687798
6800.00000000721,16.9697895532859,1.00000000048339,0.47425460449038
6900.00000000757,19.4750706265569,1.00000000050787,0.480319901352749
7000.00000000793,22.2023702475412,1.00000000053198,0.485983451949668
7100.0000000083,25.1709323126087,1.00000000052452,0.491423742237994
7200.00000000866,28.3575785307848,1.00000000051597,0.496983179668698
7300.00000000903,31.7842882013112,1.00000000054982,0.501623464489576
7400.00000000939,35.4506571121126,1.0000000005397,0.50630874324619
7500.00000000975,39.3326281997645,1.0000000005438,0.510819841387889
7600.00000001012,43.4595676065949,1.00000000057425,0.514784071909239
7700.00000001048,47.8017650905781,1.0000000005272,0.519141495040568
7800.00000001084,52.3613365938534,1.00000000055138,0.522712565712969
7900.00000001121,57.1542138823092,1.00000000054937,0.526167519232315
8000.00000001157,62.1340836660656,1.00000000056217,0.529689541167618
8100.00000001194,67.3292316412119,1.0000000005449,0.532699004435399
8200.0000000123,72.718893590518,1.0000000005565,0.535661427658352
8300.00000001266,78.2794260568715,1.00000000055665,0.538453611109288
8400.00000001303,84.0406920068066,1.00000000056792,0.540842024139653
8500.00000001339,89.9483890943491,1.00000000055699,0.543543535664986
8600.00000001376,96.0180600086588,1.00000000054811,0.545769206360781
8700.00000001412,102.247421867258,1.00000000055151,0.547697893776783
8800.00000001448,108.590196812401,1.00000000058684,0.54976582373603
8900.00000001485,115.082316760495,1.00000000054506,0.551587245696366
9000.00000001521,121.676391146501,1.00000000055857,0.553365776868694
9100.00000001557,128.368712685622,1.00000000056414,0.554922212377755
9200.00000001594,135.175253752663,1.0000000005544,0.556177154254102
9300.0000000163,142.037680734928,1.00000000054841,0.55769507418008
9400.00000001667,148.987701682017,1.00000000054,0.558881891403218
9500.00000001703,155.99486220215,1.00000000054035,0.559990118398308
9600.00000001739,163.035787298124,1.0000000005272,0.56120003849201
9700.00000001776,170.141214317167,1.00000000053805,0.561875483002107
9800.00000001812,177.251408446476,1.00000000053832,0.562818017691344
9900.00000001848,184.386356293476,1.00000000052591,0.563739171451385
10000.0000000188,191.535138544639,1.00000000052672,0.564191110429032
10100.0000000192,198.660815854538,1.00000000053735,0.565009965423606
10200.0000000196,205.799013043541,1.00000000052014,0.565415828003818
10300.0000000199,212.89917141951,1.00000000050226,0.56591927346917
10400.0000000203,219.968722872252,1.00000000050344,0.566725130310222
10500.0000000207,227.011880712716,1.00000000050882,0.566556409251078
10600.000000021,233.986706281222,1.00000000051524,0.567269918285958
10700.0000000214,240.925534006979,1.00000000048985,0.567537653416182
10800.0000000218,247.793192976978,1.00000000050152,0.567636844956806
10900.0000000221,254.583281161117,1.00000000051004,0.567748808683041
11000.0000000225,261.312635592299,1.00000000049538,0.567712612816494
11100.0000000229,267.939448741666,1.00000000047618,0.568210581466451
11200.0000000232,274.489189295552,1.000000000467,0.567862632549993
11300.0000000236,280.940462612812,1.00000000046244,0.568077164899721
11400.0000000239,287.279925032321,1.00000000047056,0.56804003489886
11500.0000000243,293.52825420983,1.00000000047154,0.567412611797377
11600.0000000247,299.649942391523,1.00000000046744,0.56812779178497
11700.000000025,305.662892074044,1.00000000044245,0.567502209540422
11800.0000000254,311.556536851037,1.00000000044271,0.567248337596565
11900.0000000258,317.313949313242,1.00000000045439,0.567965728361218
12000.0000000261,322.959909873504,1.00000000043275,0.566738804715582
12100.0000000265,328.461899175839,1.00000000043869,0.567025917456527
12200.0000000269,333.832665956771,1.00000000043369,0.566856229076786
12300.0000000272,339.07256948683,1.00000000043714,0.565985422032765
12400.0000000276,344.159578957972,1.00000000042868,0.566510151480686
12500.0000000279,349.120054903526,1.00000000043444,0.56569194833319
12600.0000000283,353.929566081586,1.00000000040667,0.565244135916518
12700.0000000287,358.592059739791,1.00000000040731,0.565492792132915
12800.000000029,363.117809804884,1.00000000041059,0.564682212878052
12900.0000000294,367.48532851089,1.00000000040138,0.564626788200527
13000.0000000298,371.715460519815,1.00000000040429,0.564204354048347
13100.0000000301,375.79421623695,1.00000000039421,0.563607636992612
13200.0000000305,379.719381258384,1.00000000038101,0.563735722594662
13300.0000000309,383.505517059074,1.00000000039189,0.562965076397166
13400.0000000312,387.133907667417,1.00000000038171,0.562802674798291
13500.0000000316,390.62082285081,1.00000000037798,0.562478977791205
13600.0000000319,393.959564342538,1.00000000038107,0.561933585091902
13700.0000000323,397.145416560247,1.00000000037468,0.561599997403432
13800.0000000327,400.193706731082,1.0000000003623,0.561176942570968
13900.000000033,403.088741751911,1.00000000036888,0.561176530609686
14000.0000000334,405.844375563185,1.00000000036375,0.560774048882207
14100.0000000338,408.457906683639,1.00000000035425,0.559707027814976
14200.0000000341,410.923487531316,1.00000000036233,0.559477424633669
14300.0000000345,413.25642643506,1.00000000034374,0.560026912215396
14400.0000000349,415.446777981535,1.00000000034427,0.560526020460293
14500.0000000352,417.502528255568,1.000000000352,0.558865497285785
14600.0000000356,419.425173197378,1.00000000033626,0.557282720130623
14700.0000000359,421.207442739206,1.00000000033363,0.557317717789704
14800.0000000363,422.865486806774,1.00000000033531,0.558999897540203
14900.0000000367,424.392018431139,1.00000000031418,0.559959598361075
15000.000000037,425.793247167607,1.00000000033182,0.559052372863685
15100.0000000374,427.074436673913,1.00000000032844,0.556009276868668
15200.0000000378,428.225738423461,1.00000000031048,0.553424853125464
15300.0000000381,429.25869321873,1.00000000031326,0.556265379033943
15400.0000000385,430.171180333857,1.00000000031114,0.559584440842184
15500.0000000389,430.976232390183,1.00000000034175,0.562809196703556
15600.0000000392,431.678914134562,1.00000000030574,0.55685396123821
15700.0000000396,432.270303346075,1.0000000003062,0.552009328835961
15800.0000000399,432.748015900452,1.00000000028049,0.548800290939121
15900.0000000403,433.11542339884,1.00000000030213,0.555595950431727
16000.0000000407,433.382918397243,1.00000000031412,0.56273613817082
16100.000000041,433.573374940671,1.0000000003376,0.564118160692215
16200.0000000414,433.677307887803,1.00000000031108,0.55657192791158
16300.0000000418,433.694053795257,1.00000000029454,0.547799428580303
16400.0000000418,433.607599853673,1.00000000025771,0.542180020873743
16500.0000000404,433.418987030889,1.00000000027717,0.549746145552086
16600.0000000389,433.152608387795,1.00000000031053,0.561830942916272
16700.0000000375,432.82532259172,1.00000000035622,0.568241214970238
16800.000000036,432.448758784829,1.00000000032978,0.560903912642341
16900.0000000346,432.007959889295,1.00000000028976,0.546946665057842
17000.0000000331,431.481422032371,1.00000000024446,0.534477913251738
17100.0000000317,430.864817219883,1.0000000002384,0.535403490582692
17200.0000000302,430.169208490111,1.00000000029127,0.551965187762508
17300.0000000287,429.428258245911,1.00000000034668,0.568100379237754
17400.0000000273,428.662321043095,1.00000000037219,0.569922986866609
17500.0000000258,427.866322622463,1.0000000003248,0.557893574482027
17600.0000000244,427.025092141112,1.00000000027424,0.537042341293913
17700.0000000229,426.108710130835,1.00000000023722,0.521295899367158
17800.0000000215,425.114301797634,1.00000000024456,0.524731680226212
17900.00000002,424.060088531254,1.00000000029481,0.546936290696421
18000.0000000186,422.977413749291,1.00000000036098,0.568840409905627
18100.0000000171,421.89415197619,1.00000000039078,0.573331208293006
18200.0000000156,420.806945475791,1.00000000035971,0.560694862866915
18300.0000000142,419.695714837768,1.00000000029059,0.535198595224447
18400.0000000127,418.532194942795,1.0000000002203,0.511506734507349
18500.0000000113,417.299049517366,1.00000000020463,0.504829709335803
18600.0000000098,416.010394237296,1.00000000024446,0.524911688411586
18700.0000000084,414.692418818201,1.00000000034362,0.556782014187172
18800.0000000069,413.37736516707,1.00000000041273,0.575082715072271
18900.0000000055,412.081152027692,1.00000000042838,0.573289266568563
19000.000000004,410.791469397117,1.00000000036659,0.552476471496187
19100.0000000026,409.486058044531,1.00000000027421,0.521906199700483
19200.0000000011,408.135595754628,1.0000000002091,0.495353975087766
19299.9999999996,406.728761397846,1.00000000019444,0.490020644463835
19399.9999999982,405.277849270846,1.00000000024033,0.513764601278177
19499.9999999967,403.807691296065,1.00000000033871,0.551212143330465
19599.9999999953,402.350364357956,1.00000000042868,0.575245164328525
19699.9999999938,400.91982365264,1.00000000045202,0.576668694701098
19799.9999999924,399.510497389723,1.00000000039869,0.560043305191341
19899.9999999909,398.105056433303,1.00000000031262,0.529427866331964
19999.9999999895,396.675108167975,1.00000000023632,0.495881222147298
20099.999999988,395.206585494125,1.00000000018581,0.477088445605732
20199.9999999865,393.695520825965,1.00000000020285,0.483717486804465
20299.9999999851,392.157763150626,1.00000000027576,0.518162113385855
20399.9999999836,390.620837070935,1.00000000038196,0.556143713243973
20499.9999999822,389.104515331785,1.00000000044739,0.576535339005913
20599.9999999807,387.618364469971,1.00000000043243,0.575137201495585
20699.9999999793,386.158107633768,1.00000000040141,0.557982387908602
20799.9999999778,384.705445826171,1.00000000033676,0.528811941461135
20899.9999999764,383.243952286274,1.00000000025302,0.4941911461478
20999.9999999749,381.755078103243,1.00000000019631,0.471180417517013
21099.9999999734,380.236797453308,1.00000000018793,0.471198333119656
21199.999999972,378.696898610022,1.00000000023884,0.494853239089744
21299.9999999705,377.151423845192,1.0000000003337,0.533566042617921
21399.9999999691,375.620379499601,1.00000000041653,0.562666967343222
21499.9999999676,374.114094834118,1.00000000044791,0.573553182953017
21599.9999999662,372.635165689365,1.00000000043394,0.568209460448089
21699.9999999647,371.179256743753,1.00000000039948,0.549159783801267
21799.9999999633,369.731921043673,1.00000000032059,0.521113332512445
21899.9999999618,368.281422794304,1.0000000002639,0.490354308209339
21999.9999999603,366.815921513103,1.00000000021605,0.469878132460192
22099.9999999589,365.332989094271,1.0000000002093,0.468537487656664
22199.9999999574,363.837644394955,1.00000000024664,0.483652153190466
22299.999999956,362.3375596489,1.00000000029841,0.510869714210214
22399.9999999545,360.845600941428,1.00000000036738,0.541287407902211
22499.9999999531,359.37101865868,1.00000000042129,0.560718578796077
22599.9999999516,357.918208289288,1.00000000042488,0.564727503808969
22699.9999999502,356.488063689982,1.00000000042307,0.554420665244627
22799.9999999487,355.074065227016,1.00000000038326,0.536103062518283
22899.9999999473,353.669036023018,1.00000000032331,0.513807833543871
22999.9999999458,352.264945346951,1.00000000027363,0.491758357541324
23099.9999999443,350.855956133017,1.00000000024151,0.476366864704748
23199.9999999429,349.441910728993,1.00000000022837,0.471406830490234
23299.9999999414,348.022070567306,1.00000000025385,0.478095526451385
23399.99999994,346.602239975888,1.0000000002753,0.495033857552401
23499.9999999385,345.187131934775,1.00000000031837,0.515616092817943
23599.9999999371,343.782106530823,1.00000000037496,0.537106994646533
23699.9999999356,342.392329622765,1.00000000041367,0.547691166995078
23799.9999999342,341.018802876938,1.00000000040818,0.548811829129146
23899.9999999327,339.660736777705,1.00000000039582,0.541009097264458
23999.9999999312,338.315914718792,1.00000000035783,0.527955545909042
24099.9999999298,336.979922847067,1.00000000033112,0.514895921942493
24199.9999999283,335.650120975489,1.00000000028532,0.500533871953855
24299.9999999269,334.323132281565,1.00000000025791,0.489514379984524
24399.9999999254,332.998645602696,1.00000000024907,0.481891277722198
24499.999999924,331.676650048377,1.0000000002483,0.480953679334992
24599.9999999225,330.357487421066,1.00000000026361,0.485191575305265
24699.9999999211,329.043789434455,1.00000000028536,0.495872293707628
24799.9999999196,327.736735303027,1.00000000031444,0.508166371260814
24899.9999999181,326.438784414362,1.00000000034975,0.521274585597862
24999.9999999167,325.151871632762,1.00000000036857,0.528195306788955
25099.9999999152,323.87620505501,1.00000000039273,0.533457058765823
25199.9999999138,322.612034459942,1.00000000037936,0.53126278338188
25299.9999999123,321.358536909408,1.00000000036051,0.526023836279434
25399.9999999109,320.114159169214,1.00000000034334,0.51946481472852
25499.9999999094,318.878383629306,1.00000000032047,0.512055062735262
25599.999999908,317.649867312812,1.0000000003082,0.507654069306982
25699.9999999065,316.428953596478,1.00000000028178,0.502259680157896
25799.9999999051,315.215081644467,1.00000000028849,0.496808680121572
25899.9999999036,314.008615917766,1.0000000002666,0.492117551632833
25999.9999999021,312.809708140186,1.00000000026423,0.489385038917258
26099.9999999007,311.617873158197,1.00000000027207,0.489522756932275
26199.9999998992,310.434223638243,1.00000000027864,0.494189137869584
26299.9999998978,309.25893525739,1.00000000029971,0.500590122295862
26399.9999998963,308.092332761084,1.00000000033494,0.50992344719471
26499.9999998949,306.934796791447,1.00000000035659,0.516316686065394
26599.9999998934,305.78602413478,1.00000000035807,0.521969748193368
26699.999999892,304.645542249216,1.00000000035448,0.525573637974249
26799.9999998905,303.513690863545,1.00000000034308,0.524090189950758
26899.999999889,302.389942318911,1.00000000032053,0.520914742760727
26999.9999998876,301.274710631239,1.0000000003231,0.515339930211473
27099.9999998861,300.16777953504,1.00000000030912,0.51375703507904
27199.9999998847,299.069327802092,1.0000000003122,0.51815667462296
27299.9999998832,297.97960569389,1.0000000003108,0.518308840316217
27399.9999998818,296.898800922564,1.00000000030595,0.512126992271774
27499.9999998803,295.827618634922,1.0000000002879,0.504826759657437
27599.9999998789,294.765812761037,1.00000000027473,0.49561088340763
27699.9999998774,293.714267948844,1.00000000025962,0.485598962148581
27799.9999998759,292.67319772552,1.00000000025528,0.481315683925492
27899.9999998745,291.642602727545,1.00000000025685,0.483406017667168
27999.999999873,290.622184959971,1.00000000029452,0.491211940295951
28099.9999998716,289.610980950979,1.00000000032972,0.501121436236948
28199.9999998701,288.607201850845,1.00000000035927,0.512302979630747
28299.9999998687,287.60957574594,1.0000000003825,0.519133946398677
28399.9999998672,286.617377950108,1.00000000036914,0.522072745113169
28499.9999998658,285.631103108818,1.00000000034294,0.523371356775049
28599.9999998643,284.652082942256,1.00000000031034,0.520451374960326
28699.9999998629,283.68122768969,1.00000000028654,0.515232698866971
28799.9999998614,282.718989943103,1.00000000029413,0.512142238243031
28899.9999998599,281.764659579202,1.00000000031959,0.519972850241387
