Time,AGPnorm,Energy,Entropy
0,0,1,5.55260593994583e-18
99.9999999999986,0.0152796417690721,1.00000000000043,0.0380533807186155
199.999999999993,0.0382059791852101,1.00000000000101,0.112520451167768
300,0.0682571328526397,1.00000000015975,0.245626359590444
400.000000000022,0.152814316921406,1.00000000246078,0.427656536681875
500.000000000045,0.661414683306256,1.00000000486671,0.539620702173378
600.000000000068,1.95059079369329,1.00000000589167,0.589883425767091
700.000000000091,3.84907580265923,1.00000000577372,0.603937125955634
800.000000000113,5.83909169403188,1.00000000487201,0.605482533029925
900.000000000136,7.61372340684558,1.00000000442466,0.593290625298737
1000.00000000016,8.89901201875775,1.00000000399927,0.586104147641067
1100.0000000001,9.69024161131319,1.00000000363567,0.578528216366687
1200,10.0170888093259,1.00000000334164,0.577229203356298
1299.99999999991,9.99538207426984,1.000000003327,0.578085179169196
1399.99999999982,9.75236973234021,1.00000000342318,0.569312103131279
1499.99999999973,9.40523458729378,1.00000000263693,0.494990053314644
1599.99999999964,9.03639504544313,1.00000000339177,0.514659151871948
1699.99999999955,8.61957830408301,1.00000000436543,0.558268874467235
1799.99999999946,8.2345896703758,1.00000000252914,0.461664705603165
1899.99999999937,7.84052030147845,1.00000000351129,0.540431997137473
1999.99999999928,7.48412849278911,1.00000000262067,0.471931916018877
2099.99999999919,7.15191961345801,1.00000000321549,0.520931566484548
2199.99999999909,6.83488062105059,1.00000000405508,0.557909737063992
2299.999999999,6.55922099988562,1.00000000242486,0.467157957794497
2399.99999999891,6.3185095139199,1.00000000411679,0.524059527990393
2499.99999999882,6.09096545812953,1.00000000342195,0.52666639532764
2599.99999999873,5.86786026303931,1.00000000391732,0.54562427866862
2699.99999999864,5.69792833704096,1.00000000254404,0.470318171013635
2799.99999999855,5.56227916643122,1.00000000348783,0.527128301689802
2899.99999999846,5.42254314593867,1.00000000325708,0.547721062950779
2999.99999999837,5.28486697749646,1.00000000378698,0.579368250357965
3099.99999999828,5.1458356824729,1.00000000424854,0.563559099110422
3199.99999999819,5.03276539941171,1.00000000284776,0.51109119113315
3299.99999999809,4.9916208856047,1.00000000359328,0.518899225482998
3399.999999998,4.94230759793425,1.00000000372732,0.557370965145136
3499.99999999791,4.88974103732867,1.00000000378323,0.576895081906263
3599.99999999782,4.83952882043207,1.00000000359665,0.576535768887439
3699.99999999773,4.76814983769419,1.00000000392247,0.603711337445041
3799.99999999764,4.69062452654406,1.00000000395588,0.602637161579466
3899.99999999755,4.61314709234882,1.00000000407746,0.573334133650571
3999.99999999746,4.56133721171692,1.00000000303997,0.525084731475766
4099.99999999738,4.58679238972682,1.00000000331016,0.523305640992796
4199.99999999775,4.61842800436477,1.00000000414903,0.569571190530872
4299.99999999811,4.6375581694925,1.0000000040672,0.575195016937238
4399.99999999848,4.65326957000313,1.00000000379028,0.600441322879468
4499.99999999884,4.65186647983688,1.00000000408441,0.617659251649518
4599.9999999992,4.65174874313252,1.00000000374724,0.619390031362418
4699.99999999957,4.63995457143216,1.00000000364726,0.641537127447778
4799.99999999993,4.61998307789748,1.00000000409231,0.630889909325102
4900.00000000029,4.58353100787538,1.00000000405456,0.644479684101808
5000.00000000066,4.53800523727106,1.00000000382428,0.650827954125035
5100.00000000102,4.48977972355462,1.0000000044441,0.651796927535905
5200.00000000139,4.4424618788411,1.00000000444099,0.629274386634133
5300.00000000175,4.40894734588547,1.00000000355416,0.569681799149538
5400.00000000211,4.43684420010474,1.00000000306476,0.548314173822494
5500.00000000248,4.51972697026056,1.00000000379252,0.568659849201829
5600.00000000284,4.600809883596,1.00000000431934,0.599372238520292
5700.00000000321,4.67362767903287,1.00000000429103,0.616883605276885
5800.00000000357,4.7373882094022,1.00000000430823,0.630327139499378
5900.00000000393,4.78762124504991,1.00000000445481,0.637557452813889
6000.0000000043,4.83118392388582,1.00000000425972,0.661697190411937
6100.00000000466,4.85146760312888,1.00000000423688,0.66052909308367
6200.00000000502,4.8654112900096,1.00000000413142,0.670740020111136
6300.00000000539,4.87324332193112,1.0000000041495,0.662729267560169
6400.00000000575,4.88262321118826,1.00000000388518,0.661977681621226
6500.00000000612,4.89724485742104,1.00000000449496,0.681293431218039
6600.00000000648,4.90068777312967,1.00000000427452,0.658837537802166
6700.00000000684,4.90112463204518,1.00000000400317,0.656739333148324
6800.00000000721,4.90616246664136,1.0000000046359,0.676006259825214
6900.00000000757,4.90744102393853,1.0000000043567,0.683816392449426
7000.00000000793,4.892124910986,1.00000000394452,0.680153297714646
7100.0000000083,4.88102974855896,1.00000000439782,0.66123191916316
7200.00000000866,4.86411299000404,1.00000000439108,0.666490566168369
7300.00000000903,4.83979103711795,1.00000000442394,0.672126958547491
7400.00000000939,4.80849255254822,1.00000000485795,0.664534963084466
7500.00000000975,4.76980147462868,1.00000000399097,0.672339892950701
7600.00000001012,4.72935263236799,1.00000000480737,0.673106909616717
7700.00000001048,4.69068108935447,1.00000000497385,0.6831546884194
7800.00000001084,4.65593918586177,1.00000000492767,0.68557933719143
7900.00000001121,4.62658749660041,1.00000000432392,0.643251637252899
8000.00000001157,4.620635976268,1.00000000363521,0.591440186135977
8100.00000001194,4.66970259876136,1.00000000378649,0.583593073212596
8200.0000000123,4.77664944294037,1.00000000471686,0.587306903520925
8300.00000001266,4.90510013930974,1.00000000451731,0.605271144276916
8400.00000001303,5.02978464248193,1.00000000478763,0.609474587084942
8500.00000001339,5.14871644435715,1.00000000473703,0.61469383367777
8600.00000001376,5.26277383290477,1.00000000467553,0.625775475687168
8700.00000001412,5.36456193643656,1.00000000405965,0.629707110039285
8800.00000001448,5.46259834286836,1.00000000514697,0.654812512784587
8900.00000001485,5.54647008390435,1.00000000488097,0.672611986864564
9000.00000001521,5.61867868299159,1.00000000464006,0.682435517531264
9100.00000001557,5.69180954632782,1.00000000489893,0.680782413338115
9200.00000001594,5.75549805093323,1.00000000509294,0.67138810394729
9300.0000000163,5.80348441883197,1.0000000051016,0.679219616988964
9400.00000001667,5.84993112429562,1.00000000525919,0.694548249161479
9500.00000001703,5.90586415132399,1.00000000518154,0.696185912390505
9600.00000001739,5.95610903072143,1.00000000567505,0.699524751459533
9700.00000001776,6.00743103967404,1.0000000051326,0.71578358325011
9800.00000001812,6.05214457327786,1.00000000498042,0.714702702832704
9900.00000001848,6.10426014064674,1.00000000574491,0.718811762232186
10000.0000000188,6.14865330668133,1.00000000549518,0.710446509264735
10100.0000000192,6.19605470134181,1.00000000531237,0.691383093572321
10200.0000000196,6.23398416414709,1.00000000511608,0.713518006338174
10300.0000000199,6.27486377812434,1.00000000504161,0.708836442132823
10400.0000000203,6.3232488892181,1.00000000519685,0.703055381378109
10500.0000000207,6.37074754753309,1.00000000567331,0.684218765409648
10600.000000021,6.42925760825036,1.00000000513527,0.684333679270604
10700.0000000214,6.49502149777298,1.00000000538181,0.703469948362081
10800.0000000218,6.5658720896362,1.0000000053404,0.69541497230967
10900.0000000221,6.64501280374948,1.00000000542461,0.682994690140552
11000.0000000225,6.71988874196721,1.00000000576767,0.698840357552908
11100.0000000229,6.80151163101044,1.00000000497372,0.67001811726945
11200.0000000232,6.88000749041058,1.00000000557795,0.679215200917368
11300.0000000236,6.96274191670107,1.0000000048358,0.688500688164859
11400.0000000239,7.0577250272956,1.00000000566695,0.718641206201134
11500.0000000243,7.13330693626971,1.00000000562173,0.715757059458026
11600.0000000247,7.20701745812626,1.00000000490669,0.714950283598615
11700.000000025,7.27728353435409,1.00000000524281,0.713334553224736
11800.0000000254,7.35679397205252,1.00000000584197,0.703541003799759
11900.0000000258,7.44052778978579,1.00000000523701,0.69305010096707
12000.0000000261,7.53209581190891,1.00000000570304,0.709317422931506
12100.0000000265,7.61537964492921,1.00000000562569,0.710368937654526
12200.0000000269,7.69166381210541,1.00000000563596,0.710415800707839
12300.0000000272,7.76940939441797,1.00000000674853,0.702051088456947
12400.0000000276,7.8493224167299,1.00000000565065,0.716194822849555
12500.0000000279,7.93101084955341,1.00000000574827,0.707068523612028
12600.0000000283,8.01358222272007,1.00000000571364,0.71944249751606
12700.0000000287,8.10357274084657,1.00000000575265,0.712202708360201
12800.000000029,8.1890869173008,1.00000000602751,0.720194287523178
12900.0000000294,8.26848992060089,1.00000000595315,0.700762450597398
13000.0000000298,8.34974398565589,1.00000000617214,0.710026214035886
13100.0000000301,8.43077670115164,1.00000000565242,0.714064997978805
13200.0000000305,8.50993760703149,1.00000000608224,0.722371509410917
13300.0000000309,8.58631824675646,1.00000000607408,0.718847767154205
13400.0000000312,8.65312966893704,1.00000000551337,0.720931355576938
13500.0000000316,8.72836878493585,1.00000000547329,0.703505270857899
13600.0000000319,8.81215466269644,1.00000000604698,0.714893721085999
13700.0000000323,8.88193219667416,1.00000000616575,0.718568701571541
13800.0000000327,8.94645476689727,1.00000000569164,0.713818997211872
13900.000000033,9.01326454555276,1.0000000060488,0.724128278002743
14000.0000000334,9.07557975300609,1.00000000606153,0.716557942415906
14100.0000000338,9.13275858065113,1.00000000573907,0.719363919866526
14200.0000000341,9.19081944226986,1.00000000656648,0.716220448848782
14300.0000000345,9.24142938743803,1.00000000611382,0.720191497156048
14400.0000000349,9.28210344284225,1.0000000062444,0.712586799423167
14500.0000000352,9.32303632147679,1.00000000613313,0.712095617718447
14600.0000000356,9.35861691462324,1.00000000652054,0.723179899852713
14700.0000000359,9.38921602982714,1.00000000646686,0.715531032396652
14800.0000000363,9.41475914684933,1.00000000656034,0.714364568428266
14900.0000000367,9.4243229412959,1.00000000704833,0.716231011346158
15000.000000037,9.4304920147006,1.0000000062317,0.701712050965228
15100.0000000374,9.4357530416567,1.00000000574251,0.718123067625757
15200.0000000378,9.44949785984938,1.00000000626016,0.735916463087391
15300.0000000381,9.46181618647026,1.00000000609167,0.714606936839799
15400.0000000385,9.47950717067198,1.00000000679975,0.728414995324836
15500.0000000389,9.50036673055779,1.00000000709641,0.723571158657951
15600.0000000392,9.52366240280344,1.00000000735674,0.727111137529167
15700.0000000396,9.56464934271332,1.0000000065618,0.720618546004873
15800.0000000399,9.60752790018841,1.00000000678982,0.707059398127874
15900.0000000403,9.67368467988267,1.0000000066344,0.681578460216832
16000.0000000407,9.76258589545027,1.00000000672914,0.669904659425827
16100.000000041,9.88831838863806,1.00000000543936,0.652709540523083
16200.0000000414,10.0618545149273,1.00000000628093,0.651292990940573
16300.0000000418,10.2946847466263,1.00000000596842,0.645305897911967
16400.0000000418,10.5714719226318,1.00000000652198,0.656944260392057
16500.0000000404,10.9023166172282,1.00000000618321,0.663925447958972
16600.0000000389,11.234911846398,1.00000000681081,0.665764512901821
16700.0000000375,11.5947583161804,1.00000000729085,0.668943158955643
16800.000000036,11.9384182554885,1.00000000679143,0.668060977196116
16900.0000000346,12.2997857750432,1.00000000712115,0.65663094531942
17000.0000000331,12.6550144145362,1.00000000706634,0.659514738598189
17100.0000000317,13.023161833177,1.00000000688145,0.659714964160348
17200.0000000302,13.398914343179,1.00000000652193,0.672107059763609
17300.0000000287,13.7651840831212,1.00000000686786,0.657193666722908
17400.0000000273,14.1490889155165,1.00000000685892,0.675624888691648
17500.0000000258,14.5374033236086,1.00000000633094,0.681680889105482
17600.0000000244,14.9411298440266,1.00000000691375,0.683667238528486
17700.0000000229,15.3469911156723,1.00000000653485,0.694970670488249
17800.0000000215,15.7454204859914,1.00000000688552,0.70239658205639
17900.00000002,16.1507053014715,1.00000000743464,0.712494557300379
18000.0000000186,16.5283036907071,1.00000000721499,0.707071574372219
18100.0000000171,16.8880975933313,1.00000000757761,0.729102970626096
18200.0000000156,17.2251298384864,1.00000000723697,0.723313725703357
18300.0000000142,17.5678244341813,1.00000000775595,0.727932931318781
18400.0000000127,17.8941234604983,1.00000000684124,0.727580597186109
18500.0000000113,18.2214018657653,1.00000000826019,0.733772910250321
18600.0000000098,18.5333906572352,1.0000000067593,0.731173414993516
18700.0000000084,18.8477287994961,1.00000000757757,0.734410109608149
18800.0000000069,19.1589694619883,1.00000000747305,0.731414935901693
18900.0000000055,19.4562596254501,1.00000000698166,0.730769864007832
19000.000000004,19.7670878755084,1.00000000721153,0.730112190585171
19100.0000000026,20.0684850988154,1.0000000068879,0.747216979235564
19200.0000000011,20.374716723309,1.00000000714977,0.741471979643664
19299.9999999996,20.6675215613052,1.00000000793333,0.743236522905749
19399.9999999982,20.9534918749838,1.00000000725623,0.729762476912961
19499.9999999967,21.2463391082417,1.00000000714959,0.747549545311413
19599.9999999953,21.5413623098124,1.00000000731242,0.738603239651145
19699.9999999938,21.8553598864267,1.00000000720178,0.740699121033682
19799.9999999924,22.1735695410288,1.00000000785453,0.740771405106822
19899.9999999909,22.4777894866278,1.0000000072345,0.738125649400366
19999.9999999895,22.7687856174621,1.00000000756586,0.739777409298985
20099.999999988,23.0534043938152,1.00000000764362,0.742104606863306
20199.9999999865,23.3448666024901,1.00000000797378,0.739361146059022
20299.9999999851,23.6586903796651,1.00000000653082,0.725177893531811
20399.9999999836,24.0104632416755,1.00000000666315,0.730013982117381
20499.9999999822,24.3638617546557,1.00000000814399,0.748547520232917
20599.9999999807,24.7024786490322,1.00000000835555,0.740581100175318
20699.9999999793,25.0230024604177,1.00000000848487,0.750995803043937
20799.9999999778,25.3394892605593,1.00000000750412,0.748702153596074
20899.9999999764,25.659560864017,1.00000000840322,0.741964756180516
20999.9999999749,25.9894248431027,1.00000000764243,0.728600774497199
21099.9999999734,26.3331575609159,1.00000000832132,0.740093165304557
21199.999999972,26.6640982867249,1.0000000085225,0.748714006647295
21299.9999999705,26.9896631034505,1.00000000769561,0.74717910323594
21399.9999999691,27.3276153834693,1.0000000079085,0.746031431550356
21499.9999999676,27.679907782915,1.00000000889276,0.751353440746596
21599.9999999662,28.0399936366283,1.00000000772462,0.736357824702774
21699.9999999647,28.4077877558338,1.00000000782794,0.746524413535434
21799.9999999633,28.7872084364549,1.00000000811679,0.748048623604952
21899.9999999618,29.1793062826627,1.0000000076965,0.758362342268596
21999.9999999603,29.5677228501916,1.00000000793036,0.748489827985386
22099.9999999589,29.9636246613757,1.00000000741313,0.746355969233521
22199.9999999574,30.3571412096507,1.00000000812884,0.744740180807263
22299.999999956,30.7605534515261,1.0000000082213,0.751219034737978
22399.9999999545,31.1665999833048,1.0000000074799,0.738608195543707
22499.9999999531,31.5817955394546,1.000000007487,0.714657735402971
22599.9999999516,32.0102665337306,1.00000000815723,0.734633011078219
22699.9999999502,32.4280966262881,1.00000000797464,0.737440211012284
22799.9999999487,32.8547573338493,1.00000000780011,0.743040739509001
22899.9999999473,33.2996585950615,1.00000000882309,0.746686095275979
22999.9999999458,33.7616254484071,1.00000000848256,0.751138369691481
23099.9999999443,34.2251050635315,1.00000000884094,0.75095795108918
23199.9999999429,34.6794997974822,1.00000000902026,0.746981320852114
23299.9999999414,35.1233651140703,1.00000000895751,0.750711353224582
23399.99999994,35.5679040936997,1.00000000865307,0.746952071848825
23499.9999999385,36.0343748836441,1.00000000850607,0.746757957739607
23599.9999999371,36.5154585322219,1.0000000086807,0.747657832551782
23699.9999999356,37.0179687533954,1.00000000847345,0.749722574006962
23799.9999999342,37.5426295552754,1.00000000801658,0.742566957423234
23899.9999999327,38.0848072147567,1.00000000925473,0.754533708587306
23999.9999999312,38.6220517661691,1.00000000875661,0.749448502288626
24099.9999999298,39.1523504536026,1.00000000879013,0.750711495292844
24199.9999999283,39.6693345309617,1.00000000880574,0.741546392050606
24299.9999999269,40.1983551176023,1.00000000804229,0.739928976508087
24399.9999999254,40.7375633807879,1.00000000885666,0.756071312253897
24499.999999924,41.2663299960736,1.0000000085168,0.748538478037005
24599.9999999225,41.7968990334172,1.00000000848965,0.745011742915545
24699.9999999211,42.3269633844595,1.00000000943067,0.745339636786399
24799.9999999196,42.8549665294645,1.00000000908014,0.739633982908504
24899.9999999181,43.3976704410032,1.00000000835143,0.747368850261033
24999.9999999167,43.9626293964738,1.00000000802505,0.749247583893794
25099.9999999152,44.5474558786581,1.00000000904044,0.750893556217935
25199.9999999138,45.1304255007942,1.0000000095658,0.752545807030314
25299.9999999123,45.7229878513613,1.00000000870634,0.748730811443413
25399.9999999109,46.3234393536145,1.0000000107908,0.746654916862314
25499.9999999094,46.9293948986922,1.00000000832933,0.749474660635968
25599.999999908,47.541491428228,1.00000000956138,0.744079959823577
25699.9999999065,48.1639685219439,1.00000000950945,0.750097514182043
25799.9999999051,48.7815511460323,1.00000000952417,0.744457498056183
25899.9999999036,49.4034157878628,1.00000000872515,0.746203233741717
25999.9999999021,50.0404859231257,1.00000000891848,0.747815639292014
26099.9999999007,50.6846494541677,1.00000000898705,0.749001632117601
26199.9999998992,51.3131673000917,1.00000000876872,0.751383364975296
26299.9999998978,51.9447009979532,1.00000000989063,0.753184695762883
26399.9999998963,52.577178284391,1.00000000884079,0.756138892175148
26499.9999998949,53.2064641224297,1.00000000935167,0.756165628336732
26599.9999998934,53.8386114739059,1.00000000940859,0.751048566136178
26699.999999892,54.4826729127469,1.00000000952291,0.754691574945076
26799.9999998905,55.1366233236963,1.00000000895646,0.755397406890112
26899.999999889,55.7879504427737,1.00000000899104,0.759139561185612
26999.9999998876,56.4381898990001,1.00000001030689,0.750384230974143
27099.9999998861,57.085735688981,1.0000000093304,0.763516122438088
27199.9999998847,57.7371656066156,1.0000000095975,0.753741097718158
27299.9999998832,58.4126170274014,1.00000000883341,0.754780807631896
27399.9999998818,59.1148922445974,1.0000000096314,0.753565058107887
27499.9999998803,59.8291319375906,1.00000000999668,0.755106942168337
27599.9999998789,60.541050773277,1.00000001009291,0.753811901576774
27699.9999998774,61.2429273155535,1.00000000943403,0.761322055275007
27799.9999998759,61.9472635755848,1.00000000950398,0.757514399452496
27899.9999998745,62.6582288807126,1.00000000994614,0.745386287597291
27999.999999873,63.36556663937,1.0000000107745,0.75245237058109
28099.9999998716,64.0764431488642,1.00000000961832,0.751636481160699
28199.9999998701,64.7915581933262,1.00000000964519,0.752040737729435
28299.9999998687,65.5183330896005,1.00000000954227,0.753133493771513
28399.9999998672,66.2534671169399,1.00000000950831,0.752005143270244
28499.9999998658,66.9957324490327,1.00000000984446,0.756564323460235
28599.9999998643,67.7245447810554,1.00000001107491,0.756005918298623
28699.9999998629,68.4622133067379,1.00000000966907,0.75087637211367
28799.9999998614,69.2046112842114,1.00000000960788,0.754758271509578
28899.9999998599,69.9465313326117,1.00000000906987,0.753766629315285
28999.9999998585,70.6952661401722,1.00000001018542,0.75900703785788
29099.999999857,71.4493326776874,1.00000000957188,0.761424025883417
