Time,AGPnorm,Energy,Entropy
0,0,1,-1.32341557438853e-17
99.9999999999986,1.71940964043425e-05,1.00000000000369,0.000777795647266981
199.999999999993,0.00147761338478441,1.00000000000047,0.00121391805430072
300,0.00374902732446297,1.00000000000176,0.00220883895363242
400.000000000022,0.00525055700543694,1.00000000000302,0.00370626882261347
500.000000000045,0.00645779583173961,0.999999999999751,0.00502262949550757
600.000000000068,0.00910791963445034,1.00000000000349,0.00704779917445224
700.000000000091,0.0112927517251515,1.00000000000102,0.00895569863822679
800.000000000113,0.0146980653494837,1.00000000000116,0.0111529170191552
900.000000000136,0.0183673069172837,1.00000000000344,0.0136477014768677
1000.00000000016,0.0214215754628406,0.999999999999692,0.0160675355108767
1100.0000000001,0.0255508159427523,1.00000000000311,0.0189386370534449
1200,0.0300252071549313,1.00000000000167,0.0217485605403674
1299.99999999991,0.0349009678884374,1.00000000000059,0.02480998808272
1399.99999999982,0.0399109017021392,1.00000000000365,0.0280767445193885
1499.99999999973,0.0448187809229055,0.999999999999867,0.031300491752633
1599.99999999964,0.0505626574768596,1.00000000000262,0.0349099941036873
1699.99999999955,0.0566840980161374,1.00000000000233,0.0384777669060843
1799.99999999946,0.0627399034674654,1.00000000000011,0.0422861687934731
1899.99999999937,0.0688285404432227,1.00000000000366,0.0462736347124732
1999.99999999928,0.0753410607356758,1.00000000000027,0.0502259683328102
2099.99999999919,0.0824393487495254,1.00000000000205,0.0545826693581627
2199.99999999909,0.0896635325833663,1.00000000000287,0.0589075221737701
2299.999999999,0.0966537396664418,0.999999999999801,0.063455599627228
2399.99999999891,0.103648310637207,1.0000000000035,0.06822369477728
2499.99999999882,0.111367014608511,1.00000000000087,0.0729755911803194
2599.99999999873,0.119324462568183,1.00000000000144,0.0781710569865888
2699.99999999864,0.127160088119777,1.00000000000322,0.0833765464177912
2799.99999999855,0.134874637120583,0.999999999999721,0.0887842031912305
2899.99999999846,0.142652157483851,1.00000000000319,0.0945304479647703
2999.99999999837,0.151074158027367,1.00000000000155,0.100302707173332
3099.99999999828,0.159403500308461,1.00000000000087,0.106574512763529
3199.99999999819,0.167433852063823,1.00000000000341,0.112968262221962
3299.99999999809,0.175627630557794,0.999999999999919,0.119602302772818
3399.999999998,0.183957001122446,1.00000000000277,0.126789374473393
3499.99999999791,0.192571884494946,1.00000000000225,0.13413252049297
3599.99999999782,0.200916508225618,1.00000000000059,0.14210728683755
3699.99999999773,0.208930903197037,1.00000000000387,0.150512044568576
3799.99999999764,0.217213552439489,1.00000000000124,0.159374214748819
3899.99999999755,0.225886666160136,1.00000000000418,0.169180082678454
3999.99999999746,0.234127134249338,1.00000000000644,0.179469528352512
4099.99999999738,0.242267683992404,1.00000000000737,0.190554060561188
4199.99999999775,0.251080766260238,1.00000000001572,0.202343662725601
4299.99999999811,0.258683688619862,1.00000000001967,0.214470518109859
4399.99999999848,0.269872978571693,1.00000000003154,0.227315292985911
4499.99999999884,0.280192962372584,1.00000000004502,0.240145826916619
4599.9999999992,0.292730348314152,1.00000000005635,0.253024406125384
4699.99999999957,0.31437475141717,1.00000000007689,0.266013320170784
4799.99999999993,0.336361942864201,1.00000000009825,0.278514670050984
4900.00000000029,0.376946896123837,1.00000000011761,0.291157181341454
5000.00000000066,0.430161483853433,1.00000000013807,0.303327045738829
5100.00000000102,0.503020329712169,1.00000000015863,0.315169750621659
5200.00000000139,0.614539037388872,1.00000000017904,0.327014894899848
5300.00000000175,0.752511129618989,1.0000000002007,0.33821842423364
5400.00000000211,0.948749448508548,1.00000000022817,0.349308260599013
5500.00000000248,1.20028771994052,1.00000000024592,0.360022104539958
5600.00000000284,1.51797196113816,1.00000000027935,0.370194833030894
5700.00000000321,1.92926197841427,1.00000000030162,0.380480489119569
5800.00000000357,2.42275633818034,1.00000000032578,0.390003695114924
5900.00000000393,3.03720534749196,1.00000000034288,0.399407275789087
6000.0000000043,3.76857755263989,1.0000000003707,0.408464636789899
6100.00000000466,4.63149015023093,1.00000000037188,0.417064490109627
6200.00000000502,5.6540326139435,1.0000000003827,0.425664549145532
6300.00000000539,6.82202095366748,1.00000000039829,0.433521264809854
6400.00000000575,8.17762672800844,1.00000000042585,0.441162786863994
6500.00000000612,9.70772708422744,1.00000000044714,0.448712862261538
6600.00000000648,11.428562270742,1.00000000045563,0.455633999213116
6700.00000000684,13.3656728168615,1.00000000046253,0.462577663646193
6800.00000000721,15.4933162816052,1.00000000048457,0.468943381780451
6900.00000000757,17.8580877125611,1.00000000045571,0.475129643558663
7000.00000000793,20.4345306990594,1.00000000049813,0.481211187087504
7100.0000000083,23.2337750281349,1.00000000050088,0.486608804369097
7200.00000000866,26.2831274396259,1.00000000050373,0.492065856736916
7300.00000000903,29.5378572371114,1.00000000051938,0.497211564628078
7400.00000000939,33.0493571416352,1.00000000051417,0.501875740751408
7500.00000000975,36.7841960567293,1.0000000005344,0.506648682272171
7600.00000001012,40.7391624613994,1.00000000053146,0.510800927407478
7700.00000001048,44.9509100015887,1.00000000053937,0.514857807690458
7800.00000001084,49.3544879301857,1.00000000053229,0.519104721847542
7900.00000001121,54.0013165459858,1.00000000053218,0.522442928245116
8000.00000001157,58.8608634553471,1.00000000055213,0.526027869490576
8100.00000001194,63.9079357238644,1.00000000054526,0.529299821575933
8200.0000000123,69.1923294907482,1.00000000054862,0.532187984105714
8300.00000001266,74.6361641420493,1.00000000053968,0.535464514175863
8400.00000001303,80.2817768247228,1.00000000055125,0.537822821890955
8500.00000001339,86.1130384221341,1.00000000055947,0.540422068491747
8600.00000001376,92.0804318252447,1.00000000055958,0.542994228340899
8700.00000001412,98.2443009022581,1.00000000053649,0.544938654500144
8800.00000001448,104.525946916284,1.00000000055363,0.547365693376908
8900.00000001485,110.949516388151,1.0000000005665,0.549040017106489
9000.00000001521,117.520453800469,1.00000000055403,0.550777269903388
9100.00000001557,124.168937292592,1.00000000054391,0.552861211587245
9200.00000001594,130.9589347339,1.00000000053296,0.554039888430329
9300.0000000163,137.822602286976,1.00000000055397,0.555645681092199
9400.00000001667,144.761209342034,1.0000000005367,0.556985151508101
9500.00000001703,151.801890158113,1.00000000053226,0.558022882763876
9600.00000001739,158.864033148954,1.00000000053098,0.559517948684981
9700.00000001776,166.006134000091,1.00000000050519,0.560289777276185
9800.00000001812,173.18010105278,1.00000000053338,0.56113619890107
9900.00000001848,180.364443622448,1.00000000050565,0.562589187159695
10000.0000000188,187.602418073769,1.00000000051532,0.562630146361264
10100.0000000192,194.812435276184,1.00000000050586,0.563868230115499
10200.0000000196,202.041976920085,1.00000000051732,0.564279890036597
10300.0000000199,209.264381402265,1.0000000005066,0.564481854755509
10400.0000000203,216.441162596493,1.00000000053473,0.565503660791487
10500.0000000207,223.623826836871,1.00000000050629,0.565350667733549
10600.000000021,230.740663311715,1.00000000049312,0.566214430603368
10700.0000000214,237.82067271607,1.00000000050307,0.566523974715348
10800.0000000218,244.859917185563,1.00000000047855,0.566344307291265
10900.0000000221,251.809564080378,1.00000000050204,0.567152072232185
11000.0000000225,258.721268253235,1.00000000049513,0.566726851393998
11100.0000000229,265.537747002834,1.00000000048013,0.567056492100483
11200.0000000232,272.272165171551,1.00000000046751,0.56758335987756
11300.0000000236,278.936482297982,1.0000000004667,0.567091993498307
11400.0000000239,285.478162546575,1.00000000047553,0.567355242659345
11500.0000000243,291.944074934699,1.00000000045145,0.567103682280991
11600.0000000247,298.294350614921,1.00000000045944,0.567164714970685
11700.000000025,304.526416094742,1.0000000004544,0.567183795941679
11800.0000000254,310.664014954601,1.00000000045498,0.566639901242176
11900.0000000258,316.65824201801,1.00000000045499,0.567212788024011
12000.0000000261,322.545794043562,1.00000000044093,0.566658530910526
12100.0000000265,328.303519736316,1.00000000043884,0.566389467679317
12200.0000000269,333.918868427776,1.00000000043819,0.566423873370744
12300.0000000272,339.422552284987,1.00000000042588,0.565770054025155
12400.0000000276,344.769485534471,1.00000000042106,0.565941579304339
12500.0000000279,349.989487909574,1.0000000004138,0.565610702945487
12600.0000000283,355.071710438608,1.00000000042753,0.564884944342193
12700.0000000287,359.996863729884,1.00000000041011,0.565103771538367
12800.000000029,364.797018877121,1.00000000040669,0.564551000417298
12900.0000000294,369.43709936702,1.00000000040255,0.564301545376511
13000.0000000298,373.935975568565,1.00000000040682,0.563923420023495
13100.0000000301,378.2944738427,1.00000000040619,0.563250710491256
13200.0000000305,382.490848751318,1.0000000003857,0.563471356250927
13300.0000000309,386.554999488584,1.00000000038009,0.562719119273604
13400.0000000312,390.460188172806,1.00000000037138,0.562605566146258
13500.0000000316,394.217382930748,1.00000000037831,0.562422747781625
13600.0000000319,397.835394172559,1.0000000003639,0.561747690018727
13700.0000000323,401.29143171606,1.0000000003805,0.56129155253782
13800.0000000327,404.61294096313,1.00000000037813,0.56086452170076
13900.000000033,407.781027678105,1.00000000036937,0.560943580008062
14000.0000000334,410.801707717629,1.00000000036229,0.560722266279863
14100.0000000338,413.68676269848,1.00000000036895,0.559606050445299
14200.0000000341,416.415830557335,1.00000000035287,0.559175085265235
14300.0000000345,419.011654033948,1.00000000035124,0.559094435245065
14400.0000000349,421.464237081809,1.00000000035697,0.559831025501747
14500.0000000352,423.773799418737,1.00000000035146,0.559337139662303
14600.0000000356,425.954509219903,1.00000000034291,0.55780357648387
14700.0000000359,427.988895541301,1.00000000033558,0.557244994248878
14800.0000000363,429.8942950628,1.00000000033,0.557354763089224
14900.0000000367,431.667329222312,1.00000000032567,0.558448419690183
15000.000000037,433.304809364364,1.00000000032827,0.559620075052588
15100.0000000374,434.82526457275,1.00000000031624,0.55772415912329
15200.0000000378,436.212125074162,1.00000000030772,0.554732484726707
15300.0000000381,437.474949501212,1.00000000031227,0.553912631020333
15400.0000000385,438.615178456633,1.00000000030356,0.555722729332475
15500.0000000389,439.632182715998,1.00000000033516,0.561325143558816
15600.0000000392,440.547920278662,1.0000000003095,0.558805147508983
15700.0000000396,441.348467970278,1.00000000032212,0.556581718676677
15800.0000000399,442.037227404915,1.00000000028373,0.549157638377215
15900.0000000403,442.6115017809,1.00000000031053,0.551163039453054
16000.0000000407,443.069991500302,1.00000000029003,0.555404054181486
16100.000000041,443.437420017455,1.00000000032013,0.562802086688382
16200.0000000414,443.714597358886,1.00000000031477,0.561508792687468
16300.0000000418,443.905740289348,1.00000000031013,0.555564323720547
16400.0000000418,444.004393263498,1.00000000027573,0.545489981585109
16500.0000000404,443.990836951173,1.00000000027063,0.543399187981692
16600.0000000389,443.882183655939,1.00000000027918,0.551130047296368
16700.0000000375,443.689931257162,1.0000000003121,0.562826871550783
16800.000000036,443.437768497464,1.00000000034071,0.566371972421876
16900.0000000346,443.130940074583,1.0000000003143,0.558293551266127
17000.0000000331,442.749263879174,1.0000000002865,0.545130399483336
17100.0000000317,442.282205450171,1.00000000024324,0.534436117631734
17200.0000000302,441.719844325469,1.0000000002561,0.538073455853012
17300.0000000287,441.08082858358,1.00000000029176,0.553909406682311
17400.0000000273,440.396750240362,1.00000000034734,0.567500626943089
17500.0000000258,439.678944209918,1.00000000034265,0.568339506792429
17600.0000000244,438.931923832748,1.00000000031888,0.555569840085396
17700.0000000229,438.130421314625,1.0000000002593,0.535615142565597
17800.0000000215,437.251308605841,1.0000000002294,0.522593674608298
17900.00000002,436.293960388498,1.00000000023314,0.52655130244355
18000.0000000186,435.272814282108,1.00000000028748,0.548333963631445
18100.0000000171,434.226051544177,1.0000000003552,0.567961379764758
18200.0000000156,433.172964787467,1.00000000037219,0.572211032496696
18300.0000000142,432.11174370441,1.00000000035071,0.55938429952132
18400.0000000127,431.025485556399,1.00000000028437,0.534979817969487
18500.0000000113,429.881231481467,1.00000000022298,0.512965441675976
18600.0000000098,428.669265594603,1.00000000020306,0.506231320682487
18700.0000000084,427.396072051416,1.00000000025011,0.525755581940545
18800.0000000069,426.091890718333,1.00000000032804,0.556388830096664
18900.0000000055,424.791283190091,1.00000000040026,0.574188037616438
19000.000000004,423.503879347462,1.00000000040815,0.57199570712056
19100.0000000026,422.223685570347,1.00000000034976,0.552906369779611
19200.0000000011,420.926021090071,1.00000000027827,0.523088725601326
19299.9999999996,419.581700016746,1.00000000020246,0.496819949358404
19399.9999999982,418.180981028475,1.00000000018572,0.490227172771772
19499.9999999967,416.729464929366,1.00000000023693,0.512912441754486
19599.9999999953,415.258783394529,1.00000000033477,0.549893713747517
19699.9999999938,413.798516403952,1.00000000040754,0.57337936745749
19799.9999999924,412.361149103094,1.00000000043834,0.576356925547381
19899.9999999909,410.948205513756,1.00000000039274,0.561843480611595
19999.9999999895,409.537560905901,1.00000000032133,0.53223464524989
20099.999999988,408.105315006527,1.00000000022898,0.497883278693411
20199.9999999865,406.631790027763,1.00000000017764,0.47697657416767
20299.9999999851,405.111669196001,1.00000000019572,0.48274610202489
20399.9999999836,403.564246411428,1.00000000027185,0.515221197160263
20499.9999999822,402.012333310146,1.00000000036298,0.552658726928412
20599.9999999807,400.478585821049,1.00000000042059,0.574063984072432
20699.9999999793,398.976099737657,1.00000000043887,0.576251380028046
20799.9999999778,397.499124108119,1.00000000040786,0.561891439439314
20899.9999999764,396.03496160953,1.00000000034249,0.532941587496074
20999.9999999749,394.560857123729,1.00000000024534,0.496881100780827
21099.9999999734,393.059723716479,1.00000000019665,0.471939517365624
21199.999999972,391.527475782857,1.00000000018679,0.469182338909216
21299.9999999705,389.968496012895,1.00000000023312,0.490687618469074
21399.9999999691,388.402293343109,1.00000000030706,0.527405460913646
21499.9999999676,386.846186599774,1.00000000039613,0.558671360456273
21599.9999999662,385.313604879835,1.00000000043062,0.57438443980619
21699.9999999647,383.811533635846,1.0000000004319,0.570781265322072
21799.9999999633,382.333051458371,1.00000000038596,0.554167675937184
21899.9999999618,380.866914638768,1.00000000033656,0.526582115090466
21999.9999999603,379.398171267502,1.00000000026536,0.494344146321967
22099.9999999589,377.914112722381,1.00000000021482,0.470292891771237
22199.9999999574,376.412075226456,1.00000000020154,0.464927256206886
22299.999999956,374.892454969213,1.00000000022245,0.477642051848364
22399.9999999545,373.366451199384,1.00000000027959,0.504927519796929
22499.9999999531,371.845606822704,1.00000000036214,0.536553872839417
22599.9999999516,370.340244148923,1.00000000040537,0.558951827193111
22699.9999999502,368.85830815796,1.00000000042233,0.565638639568681
22799.9999999487,367.399541537057,1.00000000041294,0.558981500754352
22899.9999999473,365.959553520733,1.00000000038671,0.542526678546874
22999.9999999458,364.531298474928,1.00000000033219,0.519892571224845
23099.9999999443,363.104019256235,1.00000000028433,0.494585768339277
23199.9999999429,361.673017264708,1.00000000023379,0.475434016652271
23299.9999999414,360.233257577338,1.00000000021146,0.466748056588853
23399.99999994,358.78722945103,1.00000000023051,0.473111327802631
23499.9999999385,357.338480357267,1.00000000025674,0.489169215404019
23599.9999999371,355.892134231395,1.00000000030418,0.511134993934431
23699.9999999356,354.455701343279,1.00000000035755,0.532914080519462
23799.9999999342,353.033618778616,1.00000000039516,0.54700129552374
23899.9999999327,351.628350439819,1.00000000040027,0.551791109738841
23999.9999999312,350.240745978937,1.0000000003968,0.545136931544368
24099.9999999298,348.867171240071,1.00000000037271,0.533441764123884
24199.9999999283,347.504403573109,1.00000000033226,0.517995932784567
24299.9999999269,346.147908322189,1.00000000030044,0.501942833622691
24399.9999999254,344.794094925248,1.00000000026741,0.487801824299607
24499.999999924,343.442108630868,1.00000000024312,0.478926742858342
24599.9999999225,342.090635159333,1.00000000024697,0.475618999291594
24699.9999999211,340.742053618139,1.00000000025776,0.480555666237913
24799.9999999196,339.396911633164,1.00000000027548,0.491013821029267
24899.9999999181,338.057888922761,1.00000000030087,0.504962838467951
24999.9999999167,336.727838601101,1.00000000034347,0.518463385058371
25099.9999999152,335.408217210602,1.00000000036285,0.52924155390988
25199.9999999138,334.100639317996,1.00000000039228,0.534470731777361
25299.9999999123,332.805458573953,1.00000000036862,0.531751630281876
25399.9999999109,331.521115615297,1.00000000035598,0.528527253473233
25499.9999999094,330.247279690953,1.00000000034071,0.519817078687519
25599.999999908,328.981785648979,1.0000000003082,0.512734383521664
25699.9999999065,327.723939250285,1.00000000030904,0.506770973965391
25799.9999999051,326.473033921153,1.00000000027823,0.499784213165224
25899.9999999036,325.228627855999,1.00000000027355,0.49330064973442
25999.9999999021,323.99146056025,1.00000000026081,0.488473924506562
26099.9999999007,322.760715538217,1.00000000025879,0.486090533217609
26199.9999998992,321.537538106585,1.00000000026269,0.487486406686201
26299.9999998978,320.321637266971,1.00000000028185,0.492249505520553
26399.9999998963,319.113689016421,1.00000000028914,0.498809562404392
26499.9999998949,317.914568936204,1.00000000030971,0.50781581953259
26599.9999998934,316.724432119069,1.00000000034773,0.514278599814287
26699.999999892,315.543161624345,1.00000000035781,0.520847742262546
26799.9999998905,314.371046025364,1.00000000035559,0.522406674992637
26899.999999889,313.20738856348,1.00000000035416,0.523473520307162
26999.9999998876,312.052326838336,1.00000000033407,0.521512676649138
27099.9999998861,310.9056754343,1.00000000032313,0.514997270224749
27199.9999998847,309.767267503775,1.00000000029555,0.512272419540708
27299.9999998832,308.637342019069,1.00000000030804,0.512888665425794
27399.9999998818,307.515810783,1.00000000030001,0.51346692321436
27499.9999998803,306.403357642599,1.00000000030751,0.510130822052221
27599.9999998789,305.299874541569,1.00000000028744,0.503162083981274
27699.9999998774,304.206113430443,1.00000000027383,0.495860754677795
27799.9999998759,303.12190105772,1.0000000002584,0.488485323135947
27899.9999998745,302.047446992807,1.00000000025523,0.48279745982024
27999.999999873,300.983305221448,1.00000000025412,0.482308657801431
28099.9999998716,299.929046061407,1.00000000027499,0.487195924012679
28199.9999998701,298.884094963215,1.00000000029119,0.496828522090952
28299.9999998687,297.847469717025,1.00000000034611,0.505871982569319
28399.9999998672,296.81774641429,1.00000000036523,0.515733828934691
28499.9999998658,295.793897232557,1.00000000038402,0.520334025655893
28599.9999998643,294.776157411412,1.00000000035597,0.521030448530158
28699.9999998629,293.765073869788,1.0000000003312,0.520722516692421
28799.9999998614,292.761904457506,1.00000000029373,0.5158032663778
28899.9999998599,291.767213138977,1.00000000028541,0.51095687755383
