Time,AGPnorm,Energy,Entropy
0,0,1,-7.24889654577558e-17
99.9999999999986,0.00145436231376723,1.00000000000104,0.00456055640953853
199.999999999993,0.00957990134335767,1.00000000000111,0.0134578351912703
300,0.0197198604778786,1.00000000000036,0.024798501709379
400.000000000022,0.0296175471170668,1.00000000000006,0.0389596569008604
500.000000000045,0.0417497396944414,1.00000000000025,0.0562165750890029
600.000000000068,0.0571380293563892,1.00000000000086,0.0763962634699499
700.000000000091,0.0726211398450838,1.00000000000095,0.099345936856953
800.000000000113,0.0878442563739801,1.00000000000069,0.12574908125801
900.000000000136,0.104142215021641,1.00000000000191,0.157620378375508
1000.00000000016,0.120041484852135,1.00000000001904,0.197565819322459
1100.0000000001,0.137034500355253,1.00000000009874,0.246844036664216
1200,0.167564555404287,1.00000000030172,0.300568445957033
1299.99999999991,0.221345527934103,1.00000000060748,0.351552504194325
1399.99999999982,0.341229611903725,1.00000000095444,0.396744869502613
1499.99999999973,0.638193768964543,1.00000000118624,0.435461762992817
1599.99999999964,1.21725632792995,1.00000000151418,0.467825603479967
1699.99999999955,2.12888325089177,1.00000000175105,0.495042469492584
1799.99999999946,3.42808175765674,1.0000000018507,0.517621074490618
1899.99999999937,5.16429817748435,1.00000000184006,0.535602497857841
1999.99999999928,7.32971433617819,1.00000000209739,0.549847884747886
2099.99999999919,9.88336618145505,1.00000000193929,0.561646787017167
2199.99999999909,12.7774824278632,1.00000000208127,0.570265850174419
2299.999999999,15.9471949675459,1.00000000203559,0.576345596230637
2399.99999999891,19.2989804311851,1.00000000197339,0.58083193684184
2499.99999999882,22.7516985506602,1.00000000193681,0.584532603187976
2599.99999999873,26.2516435372381,1.00000000191868,0.585738989491503
2699.99999999864,29.730475517841,1.00000000180385,0.586057422423882
2799.99999999855,33.1102540619698,1.00000000172433,0.585606931891907
2899.99999999846,36.3294204156174,1.00000000173097,0.584933511617741
2999.99999999837,39.3607548852405,1.00000000165385,0.582775679288121
3099.99999999828,42.183498691091,1.00000000154187,0.580427368706208
3199.99999999819,44.7626842660335,1.00000000155561,0.579073356133143
3299.99999999809,47.0678102762139,1.00000000151692,0.579087270230664
3399.999999998,49.0917344783807,1.0000000014238,0.576113804442942
3499.99999999791,50.847688046108,1.00000000132654,0.573131842627654
3599.99999999782,52.333806899115,1.00000000139188,0.572632116202231
3699.99999999773,53.5504868014252,1.0000000012812,0.568026421161647
3799.99999999764,54.5050558059304,1.00000000121526,0.569187831793986
3899.99999999755,55.211808475732,1.00000000121582,0.567268013877654
3999.99999999746,55.6894296370368,1.00000000107739,0.565412678564529
4099.99999999738,55.9757998077353,1.00000000115592,0.564692368380856
4199.99999999775,56.0550306859831,1.00000000102351,0.557859428322074
4299.99999999811,55.9907298310226,1.00000000120477,0.570764197955633
4399.99999999848,55.7701753692226,1.00000000093938,0.539975818871233
4499.99999999884,55.4329780482295,1.00000000126384,0.578893745440288
4599.9999999992,55.0276198589156,1.00000000103998,0.542211061645255
4699.99999999957,54.5004598644055,1.00000000111525,0.542500140201522
4799.99999999993,53.9429192815805,1.00000000143144,0.577373384706229
4900.00000000029,53.3417956063072,1.00000000091415,0.519151151515879
5000.00000000066,52.6568708292318,1.00000000114853,0.539145664143592
5100.00000000102,51.9863206226609,1.00000000143047,0.57726529659181
5200.00000000139,51.3061929405664,1.00000000095059,0.505558817705604
5300.00000000175,50.5644138311961,1.0000000009767,0.507938484280912
5400.00000000211,49.8325841300135,1.0000000016692,0.578855679131058
5500.00000000248,49.1328354823308,1.00000000116612,0.522385150649911
5600.00000000284,48.4082049297296,1.00000000083684,0.475082650945289
5700.00000000321,47.6622801302679,1.0000000012919,0.52432748033784
5800.00000000357,46.9469109606627,1.00000000155384,0.564874301932363
5900.00000000393,46.2580593185721,1.00000000108507,0.500812644795061
6000.0000000043,45.5615510392626,1.00000000085683,0.472018281305976
6100.00000000466,44.8601497049508,1.00000000116712,0.500217023629627
6200.00000000502,44.1778415458669,1.00000000150556,0.547270441805637
6300.00000000539,43.5235752871084,1.00000000126348,0.523965924303798
6400.00000000575,42.8815564008031,1.00000000096578,0.47620206169117
6500.00000000612,42.2464121342155,1.00000000100965,0.488769619483665
6600.00000000648,41.6207992726756,1.00000000117493,0.504323512745493
6700.00000000684,41.0114582940193,1.00000000142693,0.53222494156293
6800.00000000721,40.4214269615907,1.00000000133804,0.526842673252261
6900.00000000757,39.8480118434853,1.00000000101392,0.489078685948652
7000.00000000793,39.2913245148064,1.00000000099778,0.491081700153513
7100.0000000083,38.7499948978282,1.00000000118774,0.515085502474751
7200.00000000866,38.2232411486585,1.00000000109222,0.504607566019481
7300.00000000903,37.7126220826996,1.00000000123514,0.515400237117775
7400.00000000939,37.214752705745,1.00000000142491,0.525545200803635
7500.00000000975,36.7305959494671,1.00000000110753,0.508778088753043
7600.00000001012,36.2680852812559,1.0000000008881,0.48597862224758
7700.00000001048,35.8246239741046,1.00000000122987,0.51099229685922
7800.00000001084,35.3908938626679,1.0000000012644,0.526511845587595
7900.00000001121,34.9734329160598,1.00000000097751,0.49698046771801
8000.00000001157,34.5743718985608,1.00000000114884,0.501545972352719
8100.00000001194,34.1835558513805,1.00000000143014,0.530823004084194
8200.0000000123,33.7978057790593,1.00000000133687,0.517661937304308
8300.00000001266,33.4292960246896,1.0000000009546,0.497090389793495
8400.00000001303,33.0828631973771,1.00000000105121,0.500742932076926
8500.00000001339,32.7499245471458,1.00000000117718,0.516281884480045
8600.00000001376,32.4199183735253,1.00000000124879,0.522889466984905
8700.00000001412,32.1014420571553,1.00000000109692,0.516340742286942
8800.00000001448,31.8019538978981,1.00000000103933,0.494630746157135
8900.00000001485,31.5127115971233,1.00000000122262,0.520413438976693
9000.00000001521,31.2277837654737,1.00000000137262,0.534762733654755
9100.00000001557,30.9452351696548,1.00000000133239,0.527076470016846
9200.00000001594,30.6761453322989,1.00000000104244,0.50803556451455
9300.0000000163,30.4255972343793,1.00000000106791,0.509970364220777
9400.00000001667,30.1873064852694,1.0000000011556,0.525549306867602
9500.00000001703,29.9579265779483,1.00000000120543,0.524444760676588
9600.00000001739,29.7325672465844,1.00000000120506,0.518951913447588
9700.00000001776,29.5119418123294,1.00000000120536,0.530911125207724
9800.00000001812,29.298059243668,1.00000000118525,0.538775386125005
9900.00000001848,29.0937073696723,1.00000000114432,0.523407532657437
10000.0000000188,28.8975644753273,1.00000000118769,0.529730080046707
10100.0000000192,28.7079711489527,1.00000000134878,0.54463549331806
10200.0000000196,28.5229776452551,1.00000000133069,0.540171563349826
10300.0000000199,28.3423006272402,1.00000000112913,0.532370142311983
10400.0000000203,28.1772376232491,1.00000000105391,0.524035540502852
10500.0000000207,28.0273075061933,1.00000000117815,0.523625106520948
10600.000000021,27.8795486703091,1.00000000131177,0.538591742519939
10700.0000000214,27.7352749440364,1.00000000112845,0.527079691874203
10800.0000000218,27.6049115411076,1.00000000108354,0.519623618480839
10900.0000000221,27.4834966394123,1.00000000115686,0.529390669782065
11000.0000000225,27.3594453352053,1.00000000125675,0.539633142133787
11100.0000000229,27.2258161069487,1.00000000139188,0.56058620645341
11200.0000000232,27.0899651325032,1.00000000122252,0.564383327357412
11300.0000000236,26.9587433791556,1.00000000116455,0.548043380284297
11400.0000000239,26.836081304167,1.00000000112179,0.549849717993407
11500.0000000243,26.7193743746945,1.00000000129276,0.556981082739914
11600.0000000247,26.6067098039629,1.00000000127809,0.554179771905979
11700.000000025,26.4974962421825,1.00000000124499,0.544678500833642
11800.0000000254,26.3958100466881,1.00000000112528,0.54221729006895
11900.0000000258,26.3061862946408,1.00000000107692,0.541635120532274
12000.0000000261,26.22685394528,1.0000000011876,0.542433647737656
12100.0000000265,26.1534384167133,1.00000000127974,0.545566992560575
12200.0000000269,26.077740990515,1.0000000013026,0.549952285977838
12300.0000000272,26.0018183044181,1.00000000113607,0.548158717940616
12400.0000000276,25.9360673156517,1.00000000106296,0.531946858014314
12500.0000000279,25.8824202863197,1.00000000117025,0.547916724630293
12600.0000000283,25.8289219034222,1.00000000129755,0.567500639735201
12700.0000000287,25.7719550054057,1.00000000118332,0.554953560911262
12800.000000029,25.7083083899039,1.00000000131168,0.565384896251358
12900.0000000294,25.637679146116,1.00000000128816,0.566723475915611
13000.0000000298,25.5613900905295,1.0000000013003,0.58124508478408
13100.0000000301,25.4796968075978,1.00000000126151,0.582279763933529
13200.0000000305,25.3961286010277,1.00000000118079,0.58247561333023
13300.0000000309,25.3176848217218,1.00000000113838,0.574306782387126
13400.0000000312,25.2473227271148,1.00000000122675,0.56810224434812
13500.0000000316,25.1841605497456,1.00000000128909,0.56164034988642
13600.0000000319,25.1263278930067,1.00000000133547,0.560916489851687
13700.0000000323,25.0733292624127,1.00000000122578,0.555067990911915
13800.0000000327,25.0278613040539,1.00000000110744,0.558810561249889
13900.000000033,24.9937182431849,1.00000000114035,0.562279119297884
14000.0000000334,24.966552073481,1.00000000124852,0.559524643810662
14100.0000000338,24.9365948098181,1.00000000135454,0.564894143288839
14200.0000000341,24.9078584246106,1.00000000116568,0.556651208829708
14300.0000000345,24.8863148610571,1.00000000114034,0.553065002736853
14400.0000000349,24.8694915409648,1.00000000121641,0.553043184279683
14500.0000000352,24.8523169793698,1.00000000124008,0.55821610265511
14600.0000000356,24.8353280846372,1.00000000122696,0.56678678635689
14700.0000000359,24.8195114717406,1.00000000125456,0.578024067778008
14800.0000000363,24.804357679216,1.00000000124281,0.583193009991273
14900.0000000367,24.7861901917104,1.00000000129034,0.595623435320598
15000.000000037,24.7653267803224,1.00000000123262,0.596082501337101
15100.0000000374,24.7437155122154,1.00000000114073,0.590684533099264
15200.0000000378,24.723065867556,1.00000000121925,0.588851160930534
15300.0000000381,24.6981308858463,1.00000000122513,0.591981917587545
15400.0000000385,24.6666468750734,1.00000000130537,0.595748249050815
15500.0000000389,24.6261427377724,1.00000000134555,0.603499121435652
15600.0000000392,24.5757488329883,1.00000000139753,0.605034755026294
15700.0000000396,24.516362148935,1.00000000130838,0.609232001165055
15800.0000000399,24.4540774524289,1.00000000129021,0.612485027843602
15900.0000000403,24.3952757900573,1.00000000113756,0.605438842463183
16000.0000000407,24.3443141747298,1.00000000116327,0.593686713893364
16100.000000041,24.3018761647417,1.00000000119495,0.587354610380349
16200.0000000414,24.2661891626912,1.00000000124097,0.586670098437765
16300.0000000418,24.2361592727879,1.0000000013081,0.58779865565958
16400.0000000418,24.2121580329801,1.00000000125471,0.583245893670949
16500.0000000404,24.1935771967974,1.00000000122649,0.577869214176196
16600.0000000389,24.1827960021007,1.00000000121791,0.580674974846747
16700.0000000375,24.1791286107643,1.00000000120117,0.58176318101275
16800.000000036,24.1798904610304,1.0000000013289,0.58418075535515
16900.0000000346,24.1818916115499,1.00000000130425,0.579394714602597
17000.0000000331,24.1847919173004,1.0000000012593,0.574284419717509
17100.0000000317,24.1906147687414,1.00000000129699,0.566004273927711
17200.0000000302,24.1991115645393,1.00000000130238,0.572270708094098
17300.0000000287,24.2110243119937,1.00000000120524,0.581178046100212
17400.0000000273,24.2259629351925,1.000000001264,0.581859434682976
17500.0000000258,24.2405891736363,1.00000000127347,0.57897642464421
17600.0000000244,24.250725434684,1.00000000136907,0.581076721031707
17700.0000000229,24.2569402137507,1.00000000126753,0.57078531598225
17800.0000000215,24.2623704413125,1.00000000128364,0.571735636656435
17900.00000002,24.2679290449607,1.00000000129819,0.581769038733931
18000.0000000186,24.2737052230071,1.00000000125745,0.595844606757315
18100.0000000171,24.2810824854353,1.00000000132159,0.60123841999943
18200.0000000156,24.2876334666532,1.00000000139244,0.603770627495402
18300.0000000142,24.2902244898934,1.00000000130439,0.598997377750614
18400.0000000127,24.2883311925562,1.00000000137825,0.605643826880181
18500.0000000113,24.2814446441434,1.00000000135186,0.607543000430847
18600.0000000098,24.2739032420541,1.00000000134726,0.614433467320416
18700.0000000084,24.2668143540334,1.000000001337,0.619745059679533
18800.0000000069,24.2567389154873,1.00000000141277,0.623872308929431
18900.0000000055,24.2412524551104,1.00000000143852,0.624954793760329
19000.000000004,24.2208405052439,1.00000000138626,0.622696595352875
19100.0000000026,24.1983154901703,1.00000000125968,0.615955680665216
19200.0000000011,24.1728308448962,1.00000000138901,0.617586170222796
19299.9999999996,24.1415884716293,1.00000000144228,0.613233740410596
19399.9999999982,24.1023452053186,1.00000000146825,0.614243779449975
19499.9999999967,24.055396095866,1.00000000143526,0.613415069157823
19599.9999999953,24.003619664293,1.00000000140421,0.613600355129797
19699.9999999938,23.9503905974607,1.00000000133803,0.608764820228593
19799.9999999924,23.8993570286991,1.00000000127926,0.602394299031964
19899.9999999909,23.8536108903554,1.00000000128485,0.594821110861101
19999.9999999895,23.8146194277584,1.00000000124761,0.591035603769654
20099.999999988,23.7810393448302,1.00000000132983,0.587739860282976
20199.9999999865,23.7540633628747,1.00000000135356,0.587473235714314
20299.9999999851,23.7323183210101,1.00000000136442,0.588565015629013
20399.9999999836,23.7174418269368,1.0000000014479,0.58724621769885
20499.9999999822,23.7084953000837,1.00000000126629,0.575813887834407
20599.9999999807,23.7054672888627,1.00000000138488,0.575521738989054
20699.9999999793,23.7080302603278,1.00000000134551,0.579997494372414
20799.9999999778,23.7160979974579,1.00000000131238,0.585653643216393
20899.9999999764,23.7304898380625,1.00000000133763,0.583998810852176
20999.9999999749,23.7484062599361,1.00000000134403,0.588515752155473
21099.9999999734,23.7671719731316,1.0000000014614,0.585950527289453
21199.999999972,23.7869020049609,1.00000000138615,0.58486913745616
21299.9999999705,23.8100368853681,1.00000000130696,0.581837361744923
21399.9999999691,23.8352943530799,1.00000000141146,0.57143194536795
21499.9999999676,23.8628736437594,1.00000000133544,0.572702071449386
21599.9999999662,23.8955876497915,1.00000000132362,0.574545424328065
21699.9999999647,23.9315119856191,1.00000000134954,0.582025493441392
21799.9999999633,23.9654575402294,1.00000000149534,0.585186018584148
21899.9999999618,23.9949743616369,1.00000000149705,0.590314139633114
21999.9999999603,24.02504168227,1.00000000130374,0.588934120273117
22099.9999999589,24.0549663341829,1.00000000140728,0.590871829544144
22199.9999999574,24.081831458302,1.0000000014294,0.595830770475881
22299.999999956,24.1030376823549,1.00000000152647,0.60105455548536
22399.9999999545,24.122055133136,1.00000000133914,0.60585712711264
22499.9999999531,24.1416521031242,1.00000000132764,0.615961602395783
22599.9999999516,24.1644385484371,1.00000000134666,0.624092298030055
22699.9999999502,24.1874496649644,1.00000000140572,0.623411559520729
22799.9999999487,24.2058584605962,1.00000000149433,0.631679442086919
22899.9999999473,24.2189816974245,1.00000000145514,0.629176176463463
22999.9999999458,24.2288167716674,1.00000000141226,0.631536507388253
23099.9999999443,24.238249747302,1.00000000132567,0.632322046175766
23199.9999999429,24.249120529279,1.00000000137735,0.632498616523202
23299.9999999414,24.2618288920996,1.00000000138436,0.628041994167963
23399.99999994,24.2766493890106,1.00000000131892,0.625053341267817
23499.9999999385,24.2887437702086,1.00000000146954,0.627881679975307
23599.9999999371,24.2931127520677,1.00000000146143,0.636497195371792
23699.9999999356,24.2949766106993,1.0000000013908,0.644992755171403
23799.9999999342,24.2965214753856,1.00000000131852,0.640886793149817
23899.9999999327,24.2960797760093,1.00000000144647,0.645831144687828
23999.9999999312,24.2912592466994,1.00000000140754,0.648063076731613
24099.9999999298,24.2861558298097,1.00000000129293,0.645021328272974
24199.9999999283,24.2843958439638,1.00000000128172,0.636622269229226
24299.9999999269,24.2833529014088,1.00000000138991,0.630249624201673
24399.9999999254,24.2786859782213,1.00000000147901,0.642129871462957
24499.999999924,24.2706954329112,1.000000001404,0.639307819380323
24599.9999999225,24.2585930520906,1.00000000148898,0.642607119743282
24699.9999999211,24.2413474620828,1.00000000145175,0.63452913815162
24799.9999999196,24.2221446248983,1.00000000140398,0.640571417382337
24899.9999999181,24.2025926831865,1.00000000142509,0.644377147588568
24999.9999999167,24.1826098274666,1.00000000135298,0.63997373517772
25099.9999999152,24.1611616236717,1.00000000148546,0.642571453056021
25199.9999999138,24.1382721635316,1.00000000138783,0.645564409595451
25299.9999999123,24.1132581632191,1.00000000136117,0.644970599917656
25399.9999999109,24.0857132481048,1.00000000146349,0.636064409428294
25499.9999999094,24.0553687355052,1.00000000141182,0.641026289983792
25599.999999908,24.0221482217701,1.00000000147257,0.644804137217864
25699.9999999065,23.9860212189639,1.00000000143659,0.647960446278231
25799.9999999051,23.9473765729556,1.00000000147183,0.648100945093892
25899.9999999036,23.9058891765315,1.00000000150531,0.64638912446294
25999.9999999021,23.8609811734364,1.00000000152508,0.650868344921255
26099.9999999007,23.8138494634209,1.00000000145565,0.651164357937517
26199.9999998992,23.7657034205269,1.0000000014882,0.654396711384509
26299.9999998978,23.716510618051,1.00000000153727,0.659411122448997
26399.9999998963,23.667489873171,1.00000000143095,0.656742805835188
26499.9999998949,23.6214716138917,1.00000000136369,0.648008495967655
26599.9999998934,23.5797545690976,1.00000000133229,0.63910235236172
26699.999999892,23.5432533216015,1.00000000137193,0.63312678002566
26799.9999998905,23.5120272787318,1.00000000141999,0.635017399005697
26899.999999889,23.4858864849546,1.00000000138347,0.636683936079298
26999.9999998876,23.4648613154407,1.0000000014707,0.641830523783234
27099.9999998861,23.4479730124239,1.0000000014376,0.64176465756215
27199.9999998847,23.4357937417709,1.0000000013859,0.634931919326008
27299.9999998832,23.4291441609972,1.00000000144485,0.632394085966433
27399.9999998818,23.4279683410253,1.0000000013834,0.62287221351062
27499.9999998803,23.4320719153625,1.00000000145997,0.61695062975542
27599.9999998789,23.4405296802414,1.00000000144786,0.615272273219583
27699.9999998774,23.4531697472245,1.00000000143888,0.612765847666442
27799.9999998759,23.4709982012124,1.00000000136806,0.612307642504343
27899.9999998745,23.4920017317679,1.00000000149654,0.615344981572965
27999.999999873,23.5157981806282,1.00000000143412,0.612514284899567
28099.9999998716,23.5417180353117,1.00000000140881,0.609988047927047
28199.9999998701,23.5693713875119,1.00000000156361,0.611057823916147
28299.9999998687,23.5976330728619,1.00000000147365,0.605596667845918
28399.9999998672,23.6270729976012,1.00000000149349,0.607988824172789
28499.9999998658,23.6606813865846,1.00000000142587,0.607061159979422
28599.9999998643,23.6964314080961,1.00000000149707,0.599474388938757
28699.9999998629,23.7343230929316,1.0000000014853,0.595156645696086
28799.9999998614,23.7747225179234,1.00000000143832,0.602013128885788
28899.9999998599,23.8175461059014,1.00000000146697,0.604517569006825
28999.9999998585,23.8610191592105,1.00000000149093,0.60378452167296
