Time,AGPnorm,Energy,Entropy
0,0,1,-7.44796662136979e-17
99.9999999999986,0.000823071416707662,1.00000000000038,0.00288220420173631
199.999999999993,0.00561556235559169,1.00000000000158,0.00863245733513698
300,0.0116435904560273,1.00000000000168,0.0160781674100141
400.000000000022,0.0177452372936474,1.0000000000006,0.0253437068665847
500.000000000045,0.0254794828254568,0.999999999999796,0.0364762935688193
600.000000000068,0.0352305384219735,1.00000000000088,0.0493148993577039
700.000000000091,0.0456534374198948,1.00000000000195,0.0636441714964956
800.000000000113,0.0561319416052469,1.0000000000013,0.0794121727603049
900.000000000136,0.0683412260955386,1.00000000000013,0.0971079240384276
1000.00000000016,0.0804205648364604,1.00000000000003,0.116952766885128
1100.0000000001,0.0935557928626947,1.00000000000209,0.139659244585045
1200,0.105620392619119,1.000000000004,0.165930404060794
1299.99999999991,0.118550558664583,1.00000000001311,0.196978067996304
1399.99999999982,0.129761280766263,1.00000000004812,0.233668190054442
1499.99999999973,0.143613327912007,1.00000000012381,0.274138002216466
1599.99999999964,0.179583652414456,1.00000000024497,0.315213344720527
1699.99999999955,0.257105527186397,1.00000000039443,0.353231866240322
1799.99999999946,0.408861002210652,1.00000000053519,0.387621565705642
1899.99999999937,0.704140737470511,1.0000000006909,0.417680918018938
1999.99999999928,1.23329356903497,1.00000000080528,0.444046289048967
2099.99999999919,2.06271867242342,1.00000000092765,0.46697609522731
2199.99999999909,3.24408597044074,1.00000000106092,0.486484326017408
2299.999999999,4.83128923500015,1.00000000107136,0.503163968608096
2399.99999999891,6.8515590780387,1.00000000117431,0.517075311789592
2499.99999999882,9.31206596157259,1.00000000126132,0.52900290542981
2599.99999999873,12.2091427753846,1.0000000012156,0.539073717876108
2699.99999999864,15.5210464776537,1.00000000124603,0.546794858814436
2799.99999999855,19.1911258935236,1.00000000125431,0.553007210697744
2899.99999999846,23.1515413632661,1.00000000120657,0.558591576194767
2999.99999999837,27.366510388258,1.00000000125019,0.562216533309647
3099.99999999828,31.7893572878729,1.00000000118995,0.564915567164025
3199.99999999819,36.3453554710753,1.00000000122554,0.566474392501944
3299.99999999809,40.9480868307185,1.00000000113982,0.568432656126303
3399.999999998,45.546847050716,1.00000000115882,0.569131115378858
3499.99999999791,50.1167757682977,1.00000000110843,0.568894219450135
3599.99999999782,54.6039400242555,1.00000000109509,0.568073217973978
3699.99999999773,58.9451126530202,1.00000000107651,0.566891818186625
3799.99999999764,63.096515882366,1.00000000102751,0.566092903389353
3899.99999999755,67.0431980527187,1.0000000010426,0.565577745554858
3999.99999999746,70.7686109130609,1.00000000098383,0.563597027451801
4099.99999999738,74.2468534913672,1.00000000094205,0.560693740344166
4199.99999999775,77.446328632979,1.00000000095225,0.561361891989362
4299.99999999811,80.3590301009846,1.00000000088826,0.55843781844509
4399.99999999848,82.9992430446717,1.00000000090179,0.555531482574187
4499.99999999884,85.360333965408,1.00000000080861,0.556032832146009
4599.9999999992,87.437622995427,1.00000000083289,0.551276687818341
4699.99999999957,89.2278047244863,1.00000000080205,0.552117024104331
4799.99999999993,90.7479346244467,1.00000000080089,0.552710153607794
4900.00000000029,92.0108452008527,1.00000000078803,0.544137974463631
5000.00000000066,93.0185854336595,1.00000000074386,0.548921538731761
5100.00000000102,93.8015924158186,1.00000000077084,0.555285534197387
5200.00000000139,94.3572761716118,1.00000000066997,0.536445193366739
5300.00000000175,94.6844280123482,1.00000000067091,0.544009867874956
5400.00000000211,94.8512918461439,1.00000000077274,0.561352716549511
5500.00000000248,94.8666449789724,1.00000000061883,0.53222165351996
5600.00000000284,94.6771762273741,1.00000000057642,0.5217492981599
5700.00000000321,94.3473083317439,1.00000000080469,0.563514499512699
5800.00000000357,93.9627655619249,1.0000000007723,0.555336900109644
5900.00000000393,93.458634729101,1.00000000050125,0.503438154566921
6000.0000000043,92.7966093852769,1.0000000005844,0.51788648872907
6100.00000000466,92.0831553166239,1.00000000087892,0.572807127201894
6200.00000000502,91.3793693078013,1.00000000084372,0.55401624862982
6300.00000000539,90.6047776445035,1.00000000047018,0.484527367242761
6400.00000000575,89.70937723455,1.00000000047908,0.486039523558921
6500.00000000612,88.7799506863382,1.00000000087765,0.5621358249509
6600.00000000648,87.898017167871,1.00000000096018,0.57223777187684
6700.00000000684,87.0274843760554,1.0000000006928,0.508220262761449
6800.00000000721,86.0866422399955,1.00000000038886,0.441427292941082
6900.00000000757,85.0786875309192,1.00000000061734,0.487075616114431
7000.00000000793,84.0831244625051,1.00000000095468,0.562761048600524
7100.0000000083,83.146232509314,1.00000000101689,0.569607802726542
7200.00000000866,82.2417915044968,1.0000000007514,0.50978640813483
7300.00000000903,81.3078023575185,1.00000000041802,0.428918563994627
7400.00000000939,80.3292942044748,1.00000000048263,0.436900339025241
7500.00000000975,79.3437580220853,1.00000000079543,0.514838270021018
7600.00000001012,78.3938849810956,1.0000000010094,0.561887434285733
7700.00000001048,77.4934548717731,1.00000000095051,0.551450537836114
7800.00000001084,76.618255099807,1.0000000006923,0.498393607096709
7900.00000001121,75.7359320293289,1.00000000046825,0.431734520734419
8000.00000001157,74.8396113858786,1.00000000046945,0.422668711236529
8100.00000001194,73.9423305010439,1.00000000063198,0.470952875639079
8200.0000000123,73.0625891375529,1.00000000087982,0.525022606950743
8300.00000001266,72.2118892370391,1.00000000092978,0.545016068409337
8400.00000001303,71.3909452801926,1.00000000089375,0.53827663262131
8500.00000001339,70.5886093766947,1.00000000071645,0.495982027520831
8600.00000001376,69.7943587841309,1.00000000056954,0.450172355270815
8700.00000001412,69.0099967720131,1.00000000055795,0.433583730028312
8800.00000001448,68.2400590350715,1.00000000059729,0.458225733622206
8900.00000001485,67.4849147791879,1.00000000066597,0.485095711280974
9000.00000001521,66.7446622105299,1.00000000076577,0.512958332095652
9100.00000001557,66.0197825398897,1.00000000087608,0.529655404408841
9200.00000001594,65.310002511691,1.00000000092761,0.53635027699174
9300.0000000163,64.6155532765173,1.00000000075294,0.522591773045508
9400.00000001667,63.9377626975677,1.00000000055918,0.474485056160224
9500.00000001703,63.2803558666742,1.00000000049254,0.448066956519087
9600.00000001739,62.6457863616411,1.00000000063723,0.454834772117998
9700.00000001776,62.0312636286085,1.00000000071035,0.478192999454243
9800.00000001812,61.4320754288177,1.00000000070758,0.49336977861515
9900.00000001848,60.8486471999878,1.00000000065217,0.493039086880651
10000.0000000188,60.280461535441,1.00000000068156,0.499902971490823
10100.0000000192,59.7219839181506,1.00000000079965,0.521131621383497
10200.0000000196,59.1655269110889,1.00000000097651,0.53886587868633
10300.0000000199,58.6122296566051,1.00000000085643,0.537347877720054
10400.0000000203,58.0722818125204,1.00000000061245,0.498589710085656
10500.0000000207,57.5574010149107,1.00000000045835,0.457446505512655
10600.000000021,57.0728335360308,1.00000000051575,0.448047354003522
10700.0000000214,56.6109148629542,1.00000000066699,0.463398542469815
10800.0000000218,56.1611255246144,1.00000000081117,0.482907637698535
10900.0000000221,55.7180020841765,1.00000000080049,0.504334963327707
11000.0000000225,55.284840832239,1.00000000064924,0.500389329986647
11100.0000000229,54.8685218746787,1.00000000057526,0.487886841644327
11200.0000000232,54.4681236870768,1.0000000006084,0.497323694609199
11300.0000000236,54.0742414082146,1.00000000073815,0.515724069814356
11400.0000000239,53.6764416711934,1.00000000089255,0.53288482660004
11500.0000000243,53.2712777889784,1.00000000096698,0.54151908204053
11600.0000000247,52.8649903496959,1.00000000078456,0.531440743670657
11700.000000025,52.4705087721484,1.00000000064912,0.506099302829146
11800.0000000254,52.100896316394,1.00000000057518,0.474312801599549
11900.0000000258,51.7619001668206,1.00000000056708,0.462182995055901
12000.0000000261,51.4492056434938,1.00000000062314,0.465266628644962
12100.0000000265,51.153015574684,1.00000000068853,0.480451270899439
12200.0000000269,50.8630502546128,1.00000000078688,0.493341567507082
12300.0000000272,50.5760927889599,1.00000000073555,0.497257126450045
12400.0000000276,50.2931737985622,1.00000000074706,0.507876547546178
12500.0000000279,50.0165990232435,1.00000000069308,0.516236222595826
12600.0000000283,49.7469136133817,1.00000000068736,0.519567281122227
12700.0000000287,49.4843129819438,1.00000000069713,0.528456391442631
12800.000000029,49.2256509671243,1.00000000068501,0.528654484511944
12900.0000000294,48.9689230798454,1.00000000073582,0.525247530029783
13000.0000000298,48.7106026657753,1.00000000076293,0.525249010554826
13100.0000000301,48.4464299186039,1.00000000086278,0.53548427181261
13200.0000000305,48.1745026926392,1.00000000085426,0.547452274393942
13300.0000000309,47.9040087472354,1.00000000073771,0.536756866389995
13400.0000000312,47.649587681548,1.0000000006212,0.512519509578697
13500.0000000316,47.4219564254971,1.00000000053245,0.486691209921565
13600.0000000319,47.2220932655134,1.00000000058563,0.476132968615456
13700.0000000323,47.0431518805601,1.00000000065022,0.488430150646425
13800.0000000327,46.8749300217039,1.00000000071188,0.492736205086256
13900.000000033,46.7131160084426,1.00000000070238,0.490364881111995
14000.0000000334,46.5570389563568,1.000000000756,0.501066390550828
14100.0000000338,46.4092009637844,1.00000000067559,0.504909540601104
14200.0000000341,46.273676469769,1.0000000006306,0.500478738388157
14300.0000000345,46.1466513307141,1.00000000066923,0.510801073637141
14400.0000000349,46.0164551266115,1.00000000077634,0.527287119286737
14500.0000000352,45.8733612478832,1.00000000089854,0.544072423071424
14600.0000000356,45.7170684743948,1.00000000082766,0.549713612865193
14700.0000000359,45.5522208110528,1.00000000072856,0.551948220177019
14800.0000000363,45.3859771762638,1.00000000065541,0.54782958981363
14900.0000000367,45.2248289797999,1.00000000061319,0.536069853357549
15000.000000037,45.0709557589791,1.00000000065638,0.529298144007588
15100.0000000374,44.9201859732475,1.0000000007498,0.525509141223855
15200.0000000378,44.7656022976021,1.00000000079196,0.530405495661809
15300.0000000381,44.6036099278124,1.00000000088428,0.542331122142517
15400.0000000385,44.433479214886,1.00000000083652,0.550344668703332
15500.0000000389,44.2623483434379,1.00000000071365,0.546847437999002
15600.0000000392,44.1016540932198,1.00000000066432,0.533575589701767
15700.0000000396,43.96201123037,1.00000000060107,0.514279521905686
15800.0000000399,43.8477493836548,1.00000000060379,0.502157446732712
15900.0000000403,43.7564564908939,1.00000000062585,0.493786814997837
16000.0000000407,43.6831027100523,1.00000000068619,0.496227936307476
16100.000000041,43.6188237067683,1.00000000072556,0.497295519460564
16200.0000000414,43.5547596334152,1.00000000073755,0.501104350450659
16300.0000000418,43.4930156874847,1.00000000070967,0.499257986303361
16400.0000000418,43.4385329299757,1.00000000067367,0.501727506180316
16500.0000000404,43.3904120201584,1.00000000068355,0.511755659126075
16600.0000000389,43.3443461967038,1.00000000075387,0.526706149872927
16700.0000000375,43.2982264339924,1.000000000725,0.536612083946897
16800.000000036,43.2557259268327,1.00000000070786,0.538889846234025
16900.0000000346,43.2172075964767,1.00000000070832,0.544830666319693
17000.0000000331,43.1814857955868,1.00000000067607,0.545347596042552
17100.0000000317,43.1423002224776,1.0000000007327,0.542971623832102
17200.0000000302,43.0934551829264,1.00000000079379,0.550641801056253
17300.0000000287,43.0288551455572,1.00000000078435,0.550617882790216
17400.0000000273,42.9469866895942,1.00000000081414,0.544245971463355
17500.0000000258,42.8515677147892,1.0000000008498,0.552869141487276
17600.0000000244,42.7477519758504,1.00000000078857,0.566501534584313
17700.0000000229,42.6400168663328,1.00000000070275,0.565064688722655
17800.0000000215,42.532765529005,1.00000000066073,0.555399405685799
17900.00000002,42.430894962961,1.00000000064792,0.550979146326803
18000.0000000186,42.3358921532578,1.00000000064543,0.543740472459275
18100.0000000171,42.2451791651086,1.0000000007231,0.538043943766364
18200.0000000156,42.1546029734039,1.00000000075798,0.53939824965049
18300.0000000142,42.0602174283981,1.00000000079335,0.54842995025817
18400.0000000127,41.9608676331661,1.00000000086182,0.559846765489038
18500.0000000113,41.8557235726179,1.00000000084445,0.563086660532357
18600.0000000098,41.7496921188302,1.00000000074243,0.561488177112953
18700.0000000084,41.651709996655,1.00000000063968,0.551124610536463
18800.0000000069,41.5703260483414,1.00000000057195,0.537959934707808
18900.0000000055,41.5095807007707,1.00000000058786,0.529313777166787
19000.000000004,41.4707386231796,1.00000000058068,0.51854851139004
19100.0000000026,41.4499601222275,1.0000000006374,0.509730723232356
19200.0000000011,41.4395286524693,1.00000000071497,0.510492133181599
19299.9999999996,41.4336805930059,1.00000000072093,0.517091469731495
19399.9999999982,41.4339506874843,1.00000000068723,0.513357747969886
19499.9999999967,41.4402231504711,1.00000000068978,0.507651745666808
19599.9999999953,41.4502666731526,1.00000000073357,0.507102485718964
19699.9999999938,41.4622608430099,1.00000000073906,0.513281262619899
19799.9999999924,41.4790163194487,1.00000000066692,0.51069019919793
19899.9999999909,41.5024290280274,1.00000000065762,0.506564856941223
19999.9999999895,41.5312000825871,1.00000000071128,0.518924685248909
20099.999999988,41.5583030311059,1.00000000076756,0.539680671496602
20199.9999999865,41.5779607937814,1.00000000079596,0.552447566011072
20299.9999999851,41.5881850710259,1.0000000007585,0.556705243649222
20399.9999999836,41.5919318664233,1.00000000074195,0.56610736870782
20499.9999999822,41.5951337144587,1.00000000070609,0.570423349431708
20599.9999999807,41.6006377971713,1.00000000073039,0.569852857608276
20699.9999999793,41.6044992500244,1.00000000072711,0.572973727413635
20799.9999999778,41.6029176745734,1.00000000073735,0.583333035044388
20899.9999999764,41.5959125544597,1.00000000072358,0.592795528709652
20999.9999999749,41.5854486425197,1.00000000072983,0.592212524501938
21099.9999999734,41.568574060347,1.00000000075485,0.590341365009637
21199.999999972,41.5431723025214,1.00000000073817,0.586709368390319
21299.9999999705,41.5101249362489,1.00000000072765,0.585141896706206
21399.9999999691,41.4695277062426,1.0000000007338,0.578147177984116
21499.9999999676,41.4208058748205,1.00000000080142,0.569474134792363
21599.9999999662,41.3641331603033,1.00000000080608,0.565311841672538
21699.9999999647,41.298741087572,1.00000000077019,0.57322707718291
21799.9999999633,41.2236430100054,1.00000000082766,0.587404257764297
21899.9999999618,41.1409335749474,1.0000000007974,0.59105461882225
21999.9999999603,41.05404759175,1.00000000073628,0.589186033067503
22099.9999999589,40.967474367853,1.00000000069431,0.586871298142909
22199.9999999574,40.884090036905,1.00000000066774,0.588339951746218
22299.999999956,40.8047422458255,1.00000000064226,0.589204161184124
22399.9999999545,40.7294764769207,1.00000000065614,0.592204289327339
22499.9999999531,40.6572230112769,1.00000000066217,0.586832190844328
22599.9999999516,40.5876350127022,1.0000000007129,0.586099226612178
22699.9999999502,40.5195370702537,1.00000000074232,0.58845978312006
22799.9999999487,40.4512993605021,1.0000000007933,0.585825529461359
22899.9999999473,40.3816990860687,1.00000000084529,0.580616391487069
22999.9999999458,40.309289122944,1.00000000078139,0.573027052154945
23099.9999999443,40.2338642131187,1.00000000086254,0.572807285007424
23199.9999999429,40.156865099882,1.00000000077141,0.569968018741043
23299.9999999414,40.0829080469438,1.00000000070812,0.56582974144074
23399.99999994,40.0177162821369,1.00000000065859,0.561704752678299
23499.9999999385,39.9662761562109,1.00000000065626,0.55968291201761
23599.9999999371,39.9318202416994,1.00000000061229,0.549952709194199
23699.9999999356,39.9144901990551,1.00000000064792,0.545453636845941
23799.9999999342,39.9127341454331,1.00000000061858,0.539730866326634
23899.9999999327,39.9232872236286,1.00000000069096,0.533173609562103
23999.9999999312,39.9421579002728,1.0000000007287,0.53146803993896
24099.9999999298,39.966760070228,1.0000000007358,0.532166696831525
24199.9999999283,39.9965451116976,1.00000000069303,0.52758712394802
24299.9999999269,40.0311257972802,1.00000000074199,0.528097250202681
24399.9999999254,40.068514811587,1.00000000074008,0.528341160442716
24499.999999924,40.109145804759,1.00000000071368,0.53066280228679
24599.9999999225,40.1558498479381,1.00000000070853,0.528008162555232
24699.9999999211,40.2090057947028,1.00000000067737,0.522861904626974
24799.9999999196,40.2667117000124,1.00000000070523,0.52509010582183
24899.9999999181,40.3248280734096,1.00000000077117,0.530629285752407
24999.9999999167,40.3791350373779,1.00000000075734,0.542292777814422
25099.9999999152,40.4270884811862,1.00000000078687,0.552577941675892
25199.9999999138,40.4695572884847,1.00000000072553,0.559789970864768
25299.9999999123,40.5084943053104,1.00000000075094,0.570413349406252
25399.9999999109,40.5445291625509,1.00000000073993,0.574262693250902
25499.9999999094,40.577516615917,1.00000000077617,0.58382335618405
25599.999999908,40.6073055101836,1.00000000072228,0.584115757213435
25699.9999999065,40.633906183521,1.0000000007287,0.585793327661518
25799.9999999051,40.6577122561073,1.00000000072381,0.587930963965539
25899.9999999036,40.6788638046947,1.00000000074071,0.589443911409958
25999.9999999021,40.6970272432852,1.00000000077453,0.595008041218325
26099.9999999007,40.71085196147,1.00000000076948,0.59514769887827
26199.9999998992,40.7195034174759,1.00000000075169,0.594779527237599
26299.9999998978,40.7233854511767,1.0000000008079,0.592469598153254
26399.9999998963,40.7229381107376,1.00000000074414,0.590187266536501
26499.9999998949,40.7195640047758,1.00000000070467,0.59677927269798
26599.9999998934,40.7151418862862,1.00000000074991,0.597128899258665
26699.999999892,40.7101169628792,1.00000000072298,0.592651698156682
26799.9999998905,40.7030861692003,1.00000000078937,0.59435478318054
26899.999999889,40.6924965049591,1.00000000077365,0.596127950242504
26999.9999998876,40.6776581539472,1.00000000074674,0.597046326283855
27099.9999998861,40.6601798226995,1.00000000071772,0.591628659078456
27199.9999998847,40.6404800584689,1.00000000071684,0.584490518844112
27299.9999998832,40.6181993357215,1.00000000076217,0.58291235737873
27399.9999998818,40.5928080741557,1.00000000075817,0.576627945946377
27499.9999998803,40.5634120600277,1.00000000077147,0.582356775795537
27599.9999998789,40.5285724155278,1.00000000077476,0.589801605053734
27699.9999998774,40.488885545909,1.00000000080405,0.593237818852398
27799.9999998759,40.4464392832422,1.00000000079887,0.600031598992113
27899.9999998745,40.4020316095958,1.00000000075838,0.599936595232538
27999.999999873,40.3578812662622,1.00000000071805,0.596284728920266
28099.9999998716,40.3137128122605,1.00000000074171,0.598310646863036
28199.9999998701,40.2691916341318,1.00000000071092,0.599617313309327
28299.9999998687,40.2243196565543,1.00000000071804,0.594618051809424
28399.9999998672,40.1798236895103,1.00000000070442,0.588006607312653
28499.9999998658,40.1337068048863,1.00000000074501,0.58638557845018
28599.9999998643,40.0836080348731,1.00000000077373,0.58921183887175
28699.9999998629,40.0292752713954,1.00000000077579,0.592001641303772
28799.9999998614,39.9702569707978,1.00000000083054,0.595273043168809
28899.9999998599,39.9070925947945,1.0000000008123,0.59593032289535
28999.9999998585,39.8395292227956,1.00000000081573,0.597499739993079
