Time,AGPnorm,Energy,Entropy
0,0,1,3.20342650381489e-18
99.9999999999986,0.00258829455377186,0.999999999999098,0.00916996869794807
199.999999999993,0.00770781563247681,0.9999999999999,0.0266352579352659
300,0.0162171490195853,0.999999999999371,0.0521385710718484
400.000000000022,0.0257381211017728,0.999999999999964,0.0832828738233086
500.000000000045,0.0370431306218793,0.999999999999969,0.122140984328166
600.000000000068,0.0488533590592996,1.00000000000472,0.170036191220418
700.000000000091,0.0598941067915176,1.00000000003302,0.231384883370138
800.000000000113,0.0907779574272159,1.00000000014786,0.30487678829408
900.000000000136,0.177809941722541,1.00000000036324,0.37967858455282
1000.00000000016,0.521195192036958,1.00000000059286,0.441889356419102
1100.0000000001,1.31226321609836,1.00000000083871,0.487795674580732
1200,2.82900244901181,1.00000000098623,0.517970137302807
1299.99999999991,5.15513942923912,1.00000000108249,0.537327349586676
1399.99999999982,8.32848359792287,1.0000000011686,0.547115414770383
1499.99999999973,12.2003444777907,1.00000000106101,0.552056113408861
1599.99999999964,16.6167201262967,1.00000000107555,0.551199046931135
1699.99999999955,21.3266643578975,1.00000000105788,0.548338458453415
1799.99999999946,26.1481309599604,1.00000000103286,0.543816598346687
1899.99999999937,30.8475269657245,1.00000000096433,0.535289557877737
1999.99999999928,35.2988986917504,1.00000000099338,0.530927197179739
2099.99999999919,39.3401818091923,1.00000000085147,0.519034707256146
2199.99999999909,42.9154590043796,1.00000000087817,0.516797600815762
2299.999999999,45.9591640675267,1.00000000072902,0.510916295093531
2399.99999999891,48.4425488682742,1.00000000076867,0.490168323202695
2499.99999999882,50.3790664090719,1.00000000074701,0.510450786853074
2599.99999999873,51.8390077832859,1.0000000006916,0.504255734967507
2699.99999999864,52.7660030368677,1.00000000057264,0.453826602895459
2799.99999999855,53.1930667539354,1.00000000062861,0.494020396198554
2899.99999999846,53.379149846821,1.00000000073671,0.53721458607461
2999.99999999837,53.3133798995275,1.00000000053262,0.463533839610814
3099.99999999828,52.8210904624087,1.00000000036913,0.397459763647412
3199.99999999819,52.0680452953649,1.00000000063495,0.498743303666644
3299.99999999809,51.3490188613884,1.00000000085915,0.560991197461055
3399.999999998,50.6778066503294,1.00000000066341,0.50275977899282
3499.99999999791,49.8207574557364,1.00000000030679,0.351443271606472
3599.99999999782,48.7371496976064,1.00000000033561,0.35839742388099
3699.99999999773,47.6122347604232,1.00000000073446,0.493402188111844
3799.99999999764,46.5972333638577,1.00000000089224,0.553204877426563
3899.99999999755,45.7274105628711,1.00000000084701,0.549505769528678
3999.99999999746,44.8936559017199,1.00000000057709,0.448690947112638
4099.99999999738,43.9675062259186,1.00000000027316,0.298184940544637
4199.99999999775,42.9812166524145,1.00000000027913,0.298726118266557
4299.99999999811,42.0113917823029,1.00000000057624,0.436256585980017
4399.99999999848,41.0693495909763,1.00000000078195,0.509787167425677
4499.99999999884,40.1784609689958,1.00000000090217,0.509077535111875
4599.9999999992,39.3666321710809,1.00000000091737,0.543204244872864
4699.99999999957,38.6274203699772,1.00000000076925,0.542565912161503
4799.99999999993,37.9008019757982,1.00000000046326,0.44186926250158
4900.00000000029,37.1647109377663,1.00000000025483,0.30690031144613
5000.00000000066,36.4862867612455,1.00000000026502,0.266934604510729
5100.00000000102,35.9068532763393,1.00000000044011,0.345583231657578
5200.00000000139,35.3691832067591,1.00000000068481,0.451403119225647
5300.00000000175,34.8014419058715,1.00000000083048,0.529339836385656
5400.00000000211,34.2147633523504,1.00000000064695,0.521018472052242
5500.00000000248,33.6403028524803,1.00000000057848,0.453525181026499
5600.00000000284,33.0713054999713,1.00000000077932,0.46526364701449
5700.00000000321,32.4975273179228,1.00000000097815,0.53343369418434
5800.00000000357,31.9436751380496,1.00000000093929,0.566121584706527
5900.00000000393,31.418433206902,1.00000000071471,0.538682984367903
6000.0000000043,30.9095965227465,1.00000000045336,0.445975962154584
6100.00000000466,30.4451556331444,1.00000000024428,0.332579626063243
6200.00000000502,30.1044005268639,1.00000000021617,0.263088322639773
6300.00000000539,29.9325811243609,1.00000000034411,0.282788880569712
6400.00000000575,29.8864902626126,1.00000000049755,0.364223612537563
6500.00000000612,29.8705763839619,1.00000000064697,0.451438621506214
6600.00000000648,29.8027469179572,1.00000000074333,0.502494244614222
6700.00000000684,29.6472220486735,1.0000000007454,0.511421449618512
6800.00000000721,29.4076599657408,1.00000000078423,0.524181961895959
6900.00000000757,29.1148354247847,1.00000000077197,0.540425051153778
7000.00000000793,28.8134706540245,1.0000000005548,0.511719336224998
7100.0000000083,28.5413453763594,1.00000000042849,0.465443341133315
7200.00000000866,28.2931082010308,1.00000000054426,0.47269707158917
7300.00000000903,28.0317972080505,1.00000000068078,0.497691954696266
7400.00000000939,27.7405434538907,1.0000000007146,0.502038875105472
7500.00000000975,27.4208162279345,1.00000000085085,0.503741237635926
7600.00000001012,27.0785891448157,1.0000000009411,0.530980219083882
7700.00000001048,26.7318896361793,1.00000000096001,0.562069840144907
7800.00000001084,26.3959763439879,1.00000000091275,0.565786541022346
7900.00000001121,26.0691672345206,1.0000000006707,0.527542340393141
8000.00000001157,25.7539770853392,1.00000000044209,0.45274367268989
8100.00000001194,25.4889245178737,1.00000000026837,0.365812673715568
8200.0000000123,25.3461027134444,1.00000000021103,0.301113135240988
8300.00000001266,25.3905393816019,1.00000000023588,0.268999873525583
8400.00000001303,25.6397588789936,1.00000000034632,0.290236130907257
8500.00000001339,26.0487955538622,1.0000000004446,0.344989170455049
8600.00000001376,26.5249209001069,1.0000000006107,0.40551898725624
8700.00000001412,26.964419291069,1.00000000074278,0.466786727283683
8800.00000001448,27.3150179062153,1.00000000075062,0.504479182941679
8900.00000001485,27.5666926016832,1.00000000073592,0.522328654724205
9000.00000001521,27.724249361411,1.00000000072474,0.540752908751912
9100.00000001557,27.796650063971,1.00000000072574,0.559340859428896
9200.00000001594,27.8073202189625,1.00000000060251,0.545310863385535
9300.0000000163,27.7830232898338,1.00000000055891,0.519863352091046
9400.00000001667,27.7302667659703,1.00000000064656,0.507685338448222
9500.00000001703,27.6353224309431,1.00000000075478,0.520304042437877
9600.00000001739,27.4949248547901,1.00000000069673,0.534429098512141
9700.00000001776,27.335204044803,1.00000000060313,0.532199525052007
9800.00000001812,27.1876604833484,1.00000000051985,0.507077343884633
9900.00000001848,27.0630505577688,1.00000000055061,0.488287263797688
10000.0000000188,26.9485279274154,1.00000000058284,0.486893750454946
10100.0000000192,26.8356076238111,1.0000000005964,0.496036916222512
10200.0000000196,26.7209728413365,1.00000000059985,0.503098201816969
10300.0000000199,26.6025098358399,1.000000000612,0.512182830069129
10400.0000000203,26.4772219480175,1.00000000061364,0.523929967901662
10500.0000000207,26.3381838559558,1.00000000065461,0.538723215785122
10600.000000021,26.1871746467818,1.00000000063526,0.544787120602552
10700.0000000214,26.0323956098096,1.00000000055587,0.544038545412052
10800.0000000218,25.8781686502451,1.00000000055193,0.541140342295539
10900.0000000221,25.7201593280055,1.00000000058103,0.538652007486493
11000.0000000225,25.5496997777345,1.00000000062641,0.544303942613297
11100.0000000229,25.3623008445208,1.00000000068556,0.546208667303027
11200.0000000232,25.1592281743051,1.00000000082893,0.551181744220871
11300.0000000236,24.9475300357723,1.00000000089147,0.555652982564464
11400.0000000239,24.7379761242463,1.0000000009078,0.559290015380588
11500.0000000243,24.5421080372414,1.00000000095985,0.56933142202274
11600.0000000247,24.3668213548085,1.0000000009136,0.575104267817967
11700.000000025,24.2067015640146,1.00000000083858,0.573259713565157
11800.0000000254,24.0464244049539,1.00000000071636,0.5550531060767
11900.0000000258,23.8705160842587,1.00000000054571,0.515192734991202
12000.0000000261,23.6796211392066,1.00000000038504,0.461574818785599
12100.0000000265,23.4986625389163,1.00000000031408,0.405260598380536
12200.0000000269,23.372623546724,1.00000000023373,0.349405544677859
12300.0000000272,23.3592852003865,1.00000000018762,0.306868065094759
12400.0000000276,23.5113608754544,1.00000000022205,0.290716641078708
12500.0000000279,23.8627484805132,1.00000000023425,0.285273770171828
12600.0000000283,24.4270025492524,1.00000000030738,0.297501960071776
12700.0000000287,25.1605757699862,1.00000000048286,0.332902068676501
12800.000000029,26.0013799250113,1.00000000055215,0.373218291180282
12900.0000000294,26.8851964326189,1.00000000067512,0.414136715033252
13000.0000000298,27.736614807188,1.00000000079511,0.452362880154338
13100.0000000301,28.5114111346739,1.00000000080897,0.486037010848653
13200.0000000305,29.1973586759652,1.00000000077444,0.505580431855313
13300.0000000309,29.7920242635269,1.00000000073157,0.521775361620017
13400.0000000312,30.2944311868975,1.0000000007342,0.545214860333097
13500.0000000316,30.7094170292296,1.00000000072736,0.561861345604429
13600.0000000319,31.0448883606767,1.00000000071938,0.562605000590798
13700.0000000323,31.3127862312445,1.00000000069142,0.554261714203632
13800.0000000327,31.5278206874178,1.00000000064389,0.552774692091472
13900.000000033,31.6924933942134,1.00000000064042,0.568610609726372
14000.0000000334,31.8044040780145,1.00000000065821,0.581616049955987
14100.0000000338,31.8694789741658,1.00000000065709,0.574174904863456
14200.0000000341,31.8988508032476,1.00000000067793,0.562592648845597
14300.0000000345,31.8946428409757,1.00000000068171,0.547201873381542
14400.0000000349,31.86485478775,1.00000000065402,0.539934565082735
14500.0000000352,31.8253546727072,1.00000000060427,0.5325077545528
14600.0000000356,31.7733993110195,1.00000000067908,0.544607803803384
14700.0000000359,31.7026377159718,1.00000000067676,0.547854147398222
14800.0000000363,31.6172928725365,1.00000000064277,0.551648972622186
14900.0000000367,31.5225715660038,1.00000000065934,0.561788977423892
15000.000000037,31.4151996191581,1.00000000071177,0.560987171957605
15100.0000000374,31.2961045635925,1.00000000065411,0.556485397945732
15200.0000000378,31.1699274744293,1.00000000067114,0.556676472624988
15300.0000000381,31.0405993226599,1.00000000064226,0.5508214655419
15400.0000000385,30.9148350084115,1.00000000054522,0.539391341621587
15500.0000000389,30.796550298318,1.00000000055349,0.5346084554744
15600.0000000392,30.6813143435408,1.00000000064178,0.534890358770891
15700.0000000396,30.5602674603953,1.00000000066851,0.537697591088676
15800.0000000399,30.4324516610835,1.00000000075996,0.544667196747152
15900.0000000403,30.2988138108892,1.00000000072617,0.549887754041216
16000.0000000407,30.1556379777661,1.00000000074999,0.560908117614322
16100.000000041,30.0059312314096,1.00000000068925,0.563889869254648
16200.0000000414,29.856615570492,1.00000000062587,0.555673061033763
16300.0000000418,29.7147059978541,1.00000000057437,0.550817016857836
16400.0000000418,29.586446174252,1.00000000049664,0.537617214865629
16500.0000000404,29.4764118688347,1.00000000052034,0.527179450190336
16600.0000000389,29.3865665197398,1.00000000053212,0.512401637254358
16700.0000000375,29.3155119090426,1.00000000060879,0.500750912292596
16800.000000036,29.2514300081979,1.00000000069178,0.493283832734437
16900.0000000346,29.1873447503,1.00000000070659,0.503350855129962
17000.0000000331,29.1275747033787,1.00000000061061,0.506403549045888
17100.0000000317,29.0763809221272,1.00000000057344,0.512306016134179
17200.0000000302,29.0306670744772,1.00000000057789,0.531503937853057
17300.0000000287,28.985757523322,1.00000000060259,0.548639132858793
17400.0000000273,28.9372555326497,1.00000000066745,0.558947265918544
17500.0000000258,28.8777643572265,1.00000000068346,0.556256846007419
17600.0000000244,28.8078178604656,1.00000000067699,0.545374765047884
17700.0000000229,28.7344707020707,1.00000000059858,0.540844619137265
17800.0000000215,28.6627440194628,1.00000000060189,0.547866822205245
17900.00000002,28.5897961234564,1.00000000065975,0.557389338355807
18000.0000000186,28.5105810670364,1.00000000066859,0.568518786063193
18100.0000000171,28.4292886828114,1.00000000062445,0.579389986500225
18200.0000000156,28.3484223189551,1.00000000062041,0.580449082543173
18300.0000000142,28.2617392450306,1.00000000065435,0.587565946243695
18400.0000000127,28.1671792831077,1.0000000006805,0.585721728503359
18500.0000000113,28.0660601147401,1.00000000066081,0.585290859535447
18600.0000000098,27.9588009596338,1.0000000007316,0.587208997170286
18700.0000000084,27.8474886924415,1.00000000064917,0.592839535624555
18800.0000000069,27.7382816516515,1.00000000055676,0.58408936058961
18900.0000000055,27.6344296592866,1.00000000057946,0.57413543038476
19000.000000004,27.5316038552926,1.00000000067885,0.572943687828684
19100.0000000026,27.4249498757685,1.00000000069655,0.566015764234363
19200.0000000011,27.3168845241011,1.00000000065614,0.557224680693778
19299.9999999996,27.212280391839,1.00000000053609,0.559934262346011
19399.9999999982,27.1108176262692,1.00000000063757,0.568312513570197
19499.9999999967,27.0097005511628,1.00000000063302,0.569900628636305
19599.9999999953,26.9085086523299,1.00000000060257,0.571257392822464
19699.9999999938,26.8092453370457,1.00000000061222,0.57665684501159
19799.9999999924,26.711405616876,1.00000000060122,0.573830191874264
19899.9999999909,26.6118441602253,1.00000000068748,0.565906427323605
19999.9999999895,26.507281375729,1.00000000067702,0.577906461537388
20099.999999988,26.397310989411,1.00000000071032,0.574519713279733
20199.9999999865,26.2849068111109,1.00000000062246,0.563324048533116
20299.9999999851,26.1711681039646,1.00000000066973,0.563968940800115
20399.9999999836,26.0551716994729,1.00000000066549,0.580812644745293
20499.9999999822,25.9360830570265,1.00000000074168,0.59978594009434
20599.9999999807,25.8157413162687,1.00000000071691,0.601011292000908
20699.9999999793,25.69579502342,1.00000000061665,0.591162878293721
20799.9999999778,25.5779110255487,1.00000000056368,0.581286900988668
20899.9999999764,25.4613733952618,1.00000000067222,0.586716905584524
20999.9999999749,25.3429957180541,1.00000000075555,0.596321992429501
21099.9999999734,25.2240400550715,1.00000000073259,0.608092005692734
21199.999999972,25.1059870979708,1.00000000059165,0.592723150763721
21299.9999999705,24.9889956086146,1.0000000004977,0.572303203710717
21399.9999999691,24.8731159916247,1.00000000056781,0.582974695757225
21499.9999999676,24.7580715243282,1.00000000060515,0.592305357254965
21599.9999999662,24.6440885189881,1.000000000549,0.589339510140717
21699.9999999647,24.5315202454173,1.00000000058666,0.584587776349338
21799.9999999633,24.4204863787658,1.00000000061491,0.586406105068322
21899.9999999618,24.3121184455256,1.0000000006436,0.596161549802138
21999.9999999603,24.207467465617,1.0000000006658,0.592273054733021
22099.9999999589,24.1091130508777,1.0000000006761,0.587044050442559
22199.9999999574,24.0198940992758,1.00000000069377,0.597324981756242
22299.999999956,23.9430413714085,1.0000000007711,0.604136753837913
22399.9999999545,23.8857203467623,1.00000000081612,0.601574639212143
22499.9999999531,23.8492834668902,1.00000000083712,0.60311845991194
22599.9999999516,23.8447309613102,1.00000000087796,0.611124751880061
22699.9999999502,23.8711500158047,1.00000000087187,0.613769701383327
22799.9999999487,23.9435491009378,1.00000000096615,0.620308491035131
22899.9999999473,24.0559939150933,1.00000000098036,0.622585630907331
22999.9999999458,24.2181902258365,1.00000000092239,0.619627719508322
23099.9999999443,24.4228072862324,1.00000000093902,0.614021888068512
23199.9999999429,24.6729041919611,1.00000000097801,0.606914128677217
23299.9999999414,24.9598787473607,1.00000000094453,0.598466874601766
23399.99999994,25.2634787227965,1.00000000084949,0.590103491367206
23499.9999999385,25.5693798526979,1.00000000076745,0.580744358656622
23599.9999999371,25.8455731749086,1.0000000007179,0.571404112221126
23699.9999999356,26.0816317068384,1.00000000060299,0.550905643277228
23799.9999999342,26.2536457968454,1.00000000054278,0.526551525319744
23899.9999999327,26.3577221912849,1.00000000046463,0.499893453777268
23999.9999999312,26.3955619217846,1.00000000043208,0.471162025746607
24099.9999999298,26.3678775631017,1.00000000035403,0.439540978681962
24199.9999999283,26.3016187815358,1.00000000031566,0.410122676271126
24299.9999999269,26.2068122769824,1.00000000026893,0.382509950256081
24399.9999999254,26.123524306585,1.00000000022665,0.354974476017956
24499.999999924,26.0733358223177,1.00000000021664,0.333108345451456
24599.9999999225,26.0951208711845,1.00000000019121,0.311552791694718
24699.9999999211,26.2210641735538,1.00000000019931,0.297729882246903
24799.9999999196,26.4808789883817,1.00000000020311,0.290775323208886
24899.9999999181,26.8989416205327,1.00000000021723,0.283578816120988
24999.9999999167,27.500391197852,1.00000000023494,0.292067764344665
25099.9999999152,28.2735437005776,1.00000000027527,0.298441592095652
25199.9999999138,29.2500032197266,1.00000000034434,0.309611190931699
25299.9999999123,30.3687739138317,1.00000000041841,0.322602729880038
25399.9999999109,31.6630073657426,1.0000000004482,0.341144207272485
25499.9999999094,33.0461428216711,1.00000000056447,0.360828831241868
25599.999999908,34.5327032635511,1.00000000064504,0.379595267549659
25699.9999999065,36.042044636074,1.0000000006553,0.398086882636479
25799.9999999051,37.5773972586283,1.00000000074662,0.410525322704528
25899.9999999036,39.0885797492803,1.00000000080395,0.430533167730797
25999.9999999021,40.5547940365004,1.00000000081437,0.449069415303347
26099.9999999007,41.9825455947435,1.00000000080904,0.460945077341586
26199.9999998992,43.3251191357054,1.00000000080885,0.470982646012985
26299.9999998978,44.6050063530877,1.00000000080755,0.484629277048448
26399.9999998963,45.7928381437731,1.00000000077142,0.504845783247339
26499.9999998949,46.9148390315362,1.00000000074167,0.512711712368618
26599.9999998934,47.9538519427839,1.00000000075973,0.518514181892111
26699.999999892,48.9118165675678,1.00000000077891,0.524244691620917
26799.9999998905,49.7985801533944,1.0000000006746,0.538919277689223
26899.999999889,50.6056188228063,1.00000000074101,0.550264797555151
26999.9999998876,51.3603617063616,1.00000000073809,0.557848810653508
27099.9999998861,52.0445694601051,1.00000000070014,0.559337880765125
27199.9999998847,52.6790383357126,1.00000000076326,0.562077183166183
27299.9999998832,53.2499639916942,1.00000000070933,0.569315310097556
27399.9999998818,53.7658548565559,1.00000000075579,0.57977328915635
27499.9999998803,54.2265817483162,1.00000000071535,0.591291657156748
27599.9999998789,54.6368867970523,1.00000000068458,0.589492149512247
27699.9999998774,55.0145705428454,1.00000000064604,0.586250408038423
27799.9999998759,55.3475207019301,1.00000000066443,0.579803569667184
27899.9999998745,55.6421971088932,1.00000000076254,0.593195869155267
27999.999999873,55.8776930755482,1.00000000076271,0.605365910662958
28099.9999998716,56.0738670905789,1.00000000074966,0.613896055099753
28199.9999998701,56.2337861301386,1.00000000066036,0.609959851168682
28299.9999998687,56.3752701954338,1.00000000063708,0.592786649299461
28399.9999998672,56.4995993824758,1.0000000006056,0.583541988484711
28499.9999998658,56.5948949711749,1.00000000070059,0.588953127997106
28599.9999998643,56.6536965526403,1.00000000080486,0.601443679849419
28699.9999998629,56.6743753786778,1.00000000074656,0.597561272297533
28799.9999998614,56.6796669595948,1.00000000061741,0.598850993434207
28899.9999998599,56.6729318425769,1.00000000065616,0.591362407237403
28999.9999998585,56.6604186711856,1.00000000066998,0.590827811645586
