Time,AGPnorm,Energy,Entropy
0,0,1,2.58943642391704e-18
99.9999999999986,0.00784371490642349,1.00000000000025,0.022497012910451
199.999999999993,0.0213506764949352,1.00000000000082,0.0660223381625246
300,0.0424653562121412,1.00000000000072,0.13161560621245
400.000000000022,0.0633063951753799,1.00000000006954,0.2294341460861
500.000000000045,0.0927778531135063,1.00000000083782,0.364464214564277
600.000000000068,0.360029468140339,1.00000000192593,0.47581568782734
700.000000000091,1.2254161843438,1.00000000278107,0.539631610910868
800.000000000113,2.89210906733129,1.00000000321884,0.571795368437653
900.000000000136,5.28127434914153,1.00000000305312,0.583682706284658
1000.00000000016,7.98376005415352,1.0000000027049,0.585477854801521
1100.0000000001,10.735883711366,1.00000000283316,0.579334734293767
1200,13.183919583115,1.00000000250774,0.56998562710919
1299.99999999991,15.200033821144,1.00000000228973,0.562280837443272
1399.99999999982,16.6893146701395,1.0000000020503,0.55250767288617
1499.99999999973,17.6539503997345,1.0000000020872,0.554454320990867
1599.99999999964,18.1322774221701,1.00000000192836,0.553045711088761
1699.99999999955,18.2483339091023,1.0000000014746,0.50946744589409
1799.99999999946,18.0904757142791,1.00000000221207,0.579228276909121
1899.99999999937,17.7256992745567,1.00000000119199,0.458124667292394
1999.99999999928,17.2687683261135,1.00000000249511,0.583429972567318
2099.99999999919,16.7631518660781,1.00000000098082,0.409702902971349
2199.99999999909,16.169786332221,1.00000000249818,0.558569692101141
2299.999999999,15.6600329117191,1.00000000204324,0.511273586815307
2399.99999999891,15.1047289350755,1.00000000112237,0.395765758176964
2499.99999999882,14.5418551345279,1.00000000259598,0.548047535268763
2599.99999999873,14.0473242068036,1.00000000209719,0.546550898022247
2699.99999999864,13.5774650012633,1.00000000108967,0.382333954733417
2799.99999999855,13.1220888098723,1.00000000180493,0.473897991210326
2899.99999999846,12.6774165587732,1.00000000213811,0.530899864381423
2999.99999999837,12.2613360876692,1.00000000252139,0.56542570073405
3099.99999999828,11.8868769871302,1.00000000131972,0.446482871538216
3199.99999999819,11.5801640654931,1.00000000141048,0.3991797350933
3299.99999999809,11.2840127364566,1.0000000022197,0.517804901172658
3399.999999998,10.9892679203477,1.00000000172484,0.522730440881439
3499.99999999791,10.7043271366399,1.00000000218715,0.528552088901497
3599.99999999782,10.4123947954836,1.00000000251797,0.567807972171913
3699.99999999773,10.150164251003,1.00000000136896,0.481465210055983
3799.99999999764,9.97507703052345,1.00000000117264,0.401282336938016
3899.99999999755,9.86075470312852,1.00000000181949,0.465636032827244
3999.99999999746,9.72708549447645,1.00000000202834,0.525974320462705
4099.99999999738,9.58282931245994,1.00000000199306,0.549857029132903
4199.99999999775,9.42722166450162,1.00000000178315,0.553391445950358
4299.99999999811,9.26946899357364,1.00000000179708,0.549463972399717
4399.99999999848,9.10301525397292,1.00000000216941,0.541322011593525
4499.99999999884,8.91936073418513,1.00000000259926,0.575614481091009
4599.9999999992,8.74731548882542,1.00000000152996,0.524412830051178
4699.99999999957,8.6509571619626,1.00000000114408,0.422512746857426
4799.99999999993,8.66096858838228,1.00000000152454,0.424506379746121
4900.00000000029,8.6935016441713,1.0000000019656,0.482191793195171
5000.00000000066,8.69944222252597,1.00000000212357,0.536953274669426
5100.00000000102,8.67989171418751,1.00000000190194,0.554695802891573
5200.00000000139,8.64538780788318,1.00000000196694,0.572890722855605
5300.00000000175,8.59820702753884,1.00000000197852,0.568765680781351
5400.00000000211,8.53875587368962,1.00000000196527,0.560514518293544
5500.00000000248,8.46165758071166,1.00000000199743,0.576851470572024
5600.00000000284,8.37546176959934,1.00000000179624,0.578506553301199
5700.00000000321,8.29096225649519,1.00000000175856,0.586195613951915
5800.00000000357,8.19706372744775,1.00000000202303,0.58056155274967
5900.00000000393,8.09047497394014,1.00000000240632,0.586131023878922
6000.0000000043,7.97424255691151,1.00000000248637,0.581834192918727
6100.00000000466,7.85666772348825,1.00000000189901,0.560206320189091
6200.00000000502,7.77657401928227,1.00000000121421,0.484958898363948
6300.00000000539,7.78796944057932,1.00000000122494,0.436356581722829
6400.00000000575,7.89691780493622,1.00000000154313,0.446922116944692
6500.00000000612,8.0344415822703,1.0000000021086,0.490620573566923
6600.00000000648,8.1563230167192,1.00000000217075,0.526270038913673
6700.00000000684,8.25452093633849,1.00000000199391,0.550919810460849
6800.00000000721,8.33243061148272,1.00000000202225,0.578710736357307
6900.00000000757,8.38248464869363,1.00000000219098,0.595064995484551
7000.00000000793,8.40999068639614,1.0000000020255,0.608523180832363
7100.0000000083,8.41530096697103,1.00000000222628,0.617926596361501
7200.00000000866,8.39985902266291,1.00000000211707,0.614438612236721
7300.00000000903,8.37609091363673,1.00000000203208,0.603197207648441
7400.00000000939,8.35095359677421,1.00000000195334,0.598161754156499
7500.00000000975,8.32913144699755,1.00000000201782,0.577989679537785
7600.00000001012,8.29726818130361,1.00000000208277,0.580004895758414
7700.00000001048,8.25914863638795,1.00000000209984,0.59529477100626
7800.00000001084,8.22658821889881,1.00000000190906,0.59774386891979
7900.00000001121,8.19078532755983,1.00000000209294,0.61459049535078
8000.00000001157,8.15411073400799,1.00000000202851,0.607962525106959
8100.00000001194,8.11168763368375,1.00000000221474,0.603674157064693
8200.0000000123,8.06505964649225,1.00000000198327,0.593690774567286
8300.00000001266,8.00803578164365,1.00000000225396,0.619639030639373
8400.00000001303,7.94339598108357,1.00000000221187,0.629454078494952
8500.00000001339,7.87575773994496,1.00000000183068,0.624478709533752
8600.00000001376,7.80872128017743,1.00000000206464,0.630262297751527
8700.00000001412,7.73917075597078,1.00000000214536,0.628499356259653
8800.00000001448,7.66745823812388,1.00000000232455,0.634991799759765
8900.00000001485,7.59657012914415,1.00000000265032,0.636833894147321
9000.00000001521,7.52538259845138,1.00000000271649,0.619254045951481
9100.00000001557,7.44857326655822,1.00000000236963,0.595788287362463
9200.00000001594,7.3713697568732,1.0000000018207,0.558041683837512
9300.0000000163,7.32007739844385,1.00000000151762,0.508181207976614
9400.00000001667,7.33275403344885,1.00000000124416,0.461068226116443
9500.00000001703,7.43417362043878,1.00000000142758,0.452717753555912
9600.00000001739,7.61830975734516,1.00000000184146,0.461681883567119
9700.00000001776,7.83702219545402,1.00000000200827,0.488417870629171
9800.00000001812,8.05689538972737,1.00000000232315,0.507416126892246
9900.00000001848,8.26121144323552,1.00000000207524,0.531991054036647
10000.0000000188,8.44511299390439,1.00000000230088,0.554319254349155
10100.0000000192,8.60804611601373,1.00000000218994,0.56201259290078
10200.0000000196,8.75279937866228,1.00000000224876,0.583544413153798
10300.0000000199,8.87554071261856,1.00000000219954,0.607660128049878
10400.0000000203,8.97782843360164,1.00000000220579,0.615200345178554
10500.0000000207,9.05754760277675,1.00000000209962,0.608695491009743
10600.000000021,9.11833163629588,1.00000000223533,0.631820303185589
10700.0000000214,9.15800152402457,1.0000000021428,0.643621889704145
10800.0000000218,9.18222100207933,1.00000000231753,0.638122340391
10900.0000000221,9.19683314373862,1.00000000205985,0.634228454540627
11000.0000000225,9.20741851575087,1.00000000222105,0.633207987040567
11100.0000000229,9.20661023284828,1.00000000232844,0.638292964225076
11200.0000000232,9.20274298090867,1.00000000219478,0.634960978699401
11300.0000000236,9.18869818546936,1.00000000218436,0.630563180154672
11400.0000000239,9.16836028223897,1.00000000223358,0.625621385014315
11500.0000000243,9.14444593561389,1.00000000241357,0.639659162072653
11600.0000000247,9.11244896923198,1.00000000226254,0.631773729612579
11700.000000025,9.07745127628776,1.00000000225738,0.643457132917261
11800.0000000254,9.03806030644593,1.00000000222914,0.652665700588163
11900.0000000258,8.99638707609459,1.00000000233093,0.652942650679322
12000.0000000261,8.95339416371743,1.00000000215966,0.638906262904125
12100.0000000265,8.91468831530193,1.00000000215799,0.622926101385735
12200.0000000269,8.88256089616047,1.00000000215169,0.601613666676789
12300.0000000272,8.85764756608685,1.00000000214547,0.603906505850036
12400.0000000276,8.83892752136068,1.00000000215697,0.612841803140376
12500.0000000279,8.82582240997794,1.0000000022755,0.620738090577912
12600.0000000283,8.81307241581315,1.00000000233514,0.622103038273312
12700.0000000287,8.79518834320119,1.00000000234308,0.626708486907353
12800.000000029,8.7755986450261,1.00000000204623,0.615407919708027
12900.0000000294,8.75810569670987,1.00000000234473,0.609966427233117
13000.0000000298,8.74074947447237,1.00000000233565,0.620112863377789
13100.0000000301,8.72538258754861,1.00000000218736,0.61393387006207
13200.0000000305,8.71150594793913,1.00000000231276,0.610379955656765
13300.0000000309,8.69652847913909,1.00000000253041,0.620633988155063
13400.0000000312,8.67837237666039,1.00000000222507,0.617583585108995
13500.0000000316,8.66190268255847,1.00000000230967,0.624294426183728
13600.0000000319,8.64609006893738,1.00000000240584,0.644444553813286
13700.0000000323,8.63274390604547,1.00000000221356,0.638858476653117
13800.0000000327,8.62301718804115,1.00000000228008,0.62939951627774
13900.000000033,8.61081157330332,1.00000000237265,0.617772390447651
14000.0000000334,8.59832400841918,1.00000000271828,0.630612946068272
14100.0000000338,8.58496611116646,1.00000000229963,0.648769040926431
14200.0000000341,8.56740404105929,1.00000000259149,0.660290379507098
14300.0000000345,8.54705102499369,1.00000000221127,0.656009910349164
14400.0000000349,8.52842293271985,1.00000000234591,0.663514225645235
14500.0000000352,8.50495368115281,1.00000000244748,0.661481096930966
14600.0000000356,8.48032156182896,1.00000000225873,0.643514017294908
14700.0000000359,8.45630392409433,1.00000000286261,0.658036287575853
14800.0000000363,8.43323339961173,1.00000000222681,0.655841639474885
14900.0000000367,8.41211874228158,1.000000002466,0.663022596197596
15000.000000037,8.39054611723643,1.00000000230522,0.656267102961658
15100.0000000374,8.36699932102148,1.00000000260933,0.649411052873012
15200.0000000378,8.34085576832057,1.0000000024513,0.648903849954473
15300.0000000381,8.31544520280957,1.00000000244297,0.648412819980926
15400.0000000385,8.28639613731061,1.00000000268733,0.651195810168236
15500.0000000389,8.25742394160221,1.0000000025066,0.645936062599387
15600.0000000392,8.23138236863508,1.00000000230738,0.648398584830137
15700.0000000396,8.20459569529855,1.00000000254632,0.653562120884709
15800.0000000399,8.17394309099536,1.00000000246471,0.659766420262437
15900.0000000403,8.14334715377205,1.00000000243618,0.649430869526096
16000.0000000407,8.1127015159859,1.00000000244595,0.660061943502754
16100.000000041,8.07917680176361,1.00000000237173,0.651499249150134
16200.0000000414,8.04454372491367,1.00000000265878,0.659170979700435
16300.0000000418,8.00682594207267,1.00000000271982,0.670561130287542
16400.0000000418,7.96828619027034,1.0000000024491,0.655518704874931
16500.0000000404,7.92916241966329,1.00000000294141,0.672893515730315
16600.0000000389,7.88604480964385,1.00000000263688,0.650291349891549
16700.0000000375,7.84201024242925,1.00000000246803,0.66379550447882
16800.000000036,7.79754559385074,1.00000000250966,0.659086655469493
16900.0000000346,7.75315646036806,1.00000000270253,0.681409921537382
17000.0000000331,7.70923107128188,1.00000000250688,0.674051521619277
17100.0000000317,7.66594223399804,1.00000000228377,0.670168223323808
17200.0000000302,7.62385079577973,1.0000000025021,0.667666097479327
17300.0000000287,7.58409998736952,1.00000000252098,0.665732212771079
17400.0000000273,7.54752415963016,1.00000000279104,0.662827208568165
17500.0000000258,7.51542136907969,1.00000000282832,0.66734868341426
17600.0000000244,7.49139340607387,1.00000000255739,0.672071808218218
17700.0000000229,7.47212423943893,1.00000000292476,0.680142181017397
17800.0000000215,7.46565124144949,1.00000000293157,0.680297672310861
17900.00000002,7.45989923252206,1.00000000307025,0.678412887245622
18000.0000000186,7.46534982578662,1.00000000339137,0.66894123942413
18100.0000000171,7.46189319882158,1.00000000273688,0.655674011568011
18200.0000000156,7.45755969288887,1.00000000287791,0.638293372390951
18300.0000000142,7.43751954318602,1.00000000265994,0.616526445120971
18400.0000000127,7.40674342021155,1.00000000244813,0.603236340850247
18500.0000000113,7.37154564038826,1.00000000193743,0.57461915237363
18600.0000000098,7.34311365332516,1.00000000203227,0.549973431456929
18700.0000000084,7.34432201393714,1.00000000178867,0.521885185899351
18800.0000000069,7.39214482906003,1.00000000189425,0.501337849298923
18900.0000000055,7.50896544569348,1.0000000018231,0.488180841928253
19000.000000004,7.6964966360473,1.00000000188114,0.483752386098675
19100.0000000026,7.97042297908055,1.00000000205058,0.493869867678271
19200.0000000011,8.28765018513709,1.00000000231423,0.491790353567122
19299.9999999996,8.66813248676899,1.0000000024676,0.501115803268646
19399.9999999982,9.04328311359962,1.00000000271037,0.509072153179375
19499.9999999967,9.45048664418722,1.00000000279575,0.520158807363576
19599.9999999953,9.83508670460121,1.00000000264719,0.529698805872946
19699.9999999938,10.2271017442915,1.00000000279585,0.536043495122854
19799.9999999924,10.6017580660889,1.00000000287902,0.550191331907105
19899.9999999909,10.9633205758278,1.00000000298097,0.546735499196262
19999.9999999895,11.320837194625,1.00000000260662,0.563649861951599
20099.999999988,11.6620827757668,1.00000000263867,0.563858122409387
20199.9999999865,11.9996381802528,1.00000000272487,0.578968135362158
20299.9999999851,12.320605542618,1.00000000264195,0.59148575909465
20399.9999999836,12.6411883579248,1.00000000269352,0.606945618344703
20499.9999999822,12.9390881011224,1.00000000267345,0.61142737967959
20599.9999999807,13.2232392930945,1.00000000236787,0.619621957311184
20699.9999999793,13.501256558814,1.0000000029133,0.642106743806947
20799.9999999778,13.747069613353,1.00000000290182,0.637794375604739
20899.9999999764,13.9907060378213,1.00000000293518,0.660309492848856
20999.9999999749,14.2057399020436,1.00000000273314,0.662569158594371
21099.9999999734,14.4073519637866,1.00000000271331,0.654619518442545
21199.999999972,14.5888849313929,1.00000000292116,0.66594809777819
21299.9999999705,14.7551286759078,1.00000000278522,0.671860023152215
21399.9999999691,14.918474561829,1.00000000291049,0.670488421327697
21499.9999999676,15.056630368552,1.00000000310096,0.667952752384905
21599.9999999662,15.1875870820877,1.00000000279066,0.676086175987503
21699.9999999647,15.3007444319853,1.00000000283859,0.683475046662147
21799.9999999633,15.4096767065466,1.0000000029541,0.685918902785964
21899.9999999618,15.5145322564566,1.00000000265017,0.687243329359596
21999.9999999603,15.6190788572922,1.0000000026105,0.683414557622014
22099.9999999589,15.7115766552288,1.00000000303367,0.682767337347289
22199.9999999574,15.7850663980229,1.00000000262421,0.679361264190678
22299.999999956,15.8572311798667,1.00000000315834,0.685316113921021
22399.9999999545,15.9268850833208,1.00000000296314,0.678731542324528
22499.9999999531,15.9996018797959,1.00000000325604,0.67430276756092
22599.9999999516,16.0663580664478,1.00000000310744,0.678235070645003
22699.9999999502,16.1240751638396,1.00000000261273,0.67847171854386
22799.9999999487,16.1839825626282,1.00000000257152,0.674257244150821
22899.9999999473,16.2476042370222,1.00000000293166,0.673619554216707
22999.9999999458,16.313518217597,1.00000000303519,0.683975203637062
23099.9999999443,16.3752390496085,1.00000000302277,0.671414815686905
23199.9999999429,16.4328378187125,1.00000000330114,0.670743226560315
23299.9999999414,16.478539960092,1.00000000295703,0.673131401867948
23399.99999994,16.5215351484272,1.00000000301243,0.676057749341039
23499.9999999385,16.5674925747224,1.00000000247689,0.674815442493019
23599.9999999371,16.6175618638856,1.00000000289428,0.660320172088273
23699.9999999356,16.6735668746699,1.00000000280415,0.668722803391677
23799.9999999342,16.7229006762413,1.00000000283266,0.667950374763618
23899.9999999327,16.7636818903199,1.00000000289326,0.68496103537405
23999.9999999312,16.8058503712029,1.00000000276881,0.661748164908157
24099.9999999298,16.8510250071135,1.00000000289104,0.67192938921065
24199.9999999283,16.9002272278736,1.00000000308037,0.680608219517218
24299.9999999269,16.9448468193832,1.00000000309416,0.684440461159402
24399.9999999254,16.9875054075914,1.00000000294431,0.682571860517566
24499.999999924,17.0384179626108,1.0000000028555,0.661873800081602
24599.9999999225,17.1014419709203,1.00000000302601,0.676015280720366
24699.9999999211,17.1638796800496,1.00000000315875,0.674290764014668
24799.9999999196,17.2253161150805,1.00000000277819,0.654609414276914
24899.9999999181,17.2947460802854,1.00000000316256,0.647826182321571
24999.9999999167,17.3661919056981,1.00000000284801,0.664497365625264
25099.9999999152,17.4291654297022,1.00000000297717,0.678979791358108
25199.9999999138,17.4857633240241,1.00000000292476,0.668078759771887
25299.9999999123,17.5431105980922,1.00000000302646,0.658973968887645
25399.9999999109,17.6047031135848,1.00000000254283,0.665611861631152
25499.9999999094,17.6635796232156,1.00000000343541,0.674837627685841
25599.999999908,17.7214891932336,1.00000000323158,0.680279608208404
25699.9999999065,17.7763150860466,1.00000000295122,0.676335267943162
25799.9999999051,17.837767195598,1.00000000290336,0.654934337147407
25899.9999999036,17.8991371903843,1.0000000029327,0.675746800612626
25999.9999999021,17.9526424459875,1.00000000328608,0.667140243111292
26099.9999999007,18.0025479959967,1.00000000297367,0.661152247115614
26199.9999998992,18.0579074757633,1.0000000028631,0.669256007150194
26299.9999998978,18.1193510772169,1.0000000028641,0.67321273711247
26399.9999998963,18.1860226609067,1.00000000283215,0.664629796640954
26499.9999998949,18.2553089839913,1.00000000293714,0.673716259660595
26599.9999998934,18.3231525175501,1.00000000309513,0.685274728791089
26699.999999892,18.3802322381558,1.00000000312879,0.680546866949225
26799.9999998905,18.4285542279314,1.00000000334982,0.677874447494312
26899.999999889,18.4741509385674,1.00000000312657,0.684887267104595
26999.9999998876,18.5211057904673,1.00000000349227,0.68575805286894
27099.9999998861,18.5734419628984,1.00000000307223,0.693551446184389
27199.9999998847,18.6288579333561,1.00000000278799,0.674695364765522
27299.9999998832,18.6934684452647,1.00000000305151,0.672995992087586
27399.9999998818,18.771558808651,1.00000000271403,0.665294894774148
27499.9999998803,18.8653979713706,1.00000000295092,0.666592721160494
27599.9999998789,18.9626871175933,1.00000000357895,0.661369149761887
27699.9999998774,19.0617026041219,1.00000000325984,0.673234883547574
27799.9999998759,19.1552474924052,1.00000000297633,0.679414346374397
27899.9999998745,19.256904007223,1.00000000305062,0.666196571526997
27999.999999873,19.3624017880746,1.00000000302383,0.696114216492797
28099.9999998716,19.4579568853019,1.00000000375284,0.698815152623709
28199.9999998701,19.5477961237636,1.00000000303298,0.687558069613163
28299.9999998687,19.6369351673175,1.00000000337236,0.684986020087664
28399.9999998672,19.7237783516033,1.0000000031778,0.678931615981401
28499.9999998658,19.8097510366563,1.00000000319872,0.685162585035862
28599.9999998643,19.8997004413793,1.00000000279553,0.685784023686424
28699.9999998629,19.9968112672455,1.00000000324622,0.682241099415922
28799.9999998614,20.0994809760898,1.00000000302817,0.672938118324089
28899.9999998599,20.2055697682544,1.00000000309436,0.674981458665871
28999.9999998585,20.3105160833268,1.00000000318483,0.681708658275579
