Time,AGPnorm,Energy,Entropy
0,0,1,3.44368349160103e-18
99.9999999999986,0.00932016415128523,0.999999999995926,0.0257859965724419
199.999999999993,0.0240275392556999,1.0000000000001,0.0751318125816444
300,0.047503109237552,0.999999999999245,0.152353643697081
400.000000000022,0.0713672027092883,1.00000000023443,0.272085022186627
500.000000000045,0.139747044874703,1.00000000151055,0.417489575080421
600.000000000068,0.612498643483426,1.00000000272203,0.51383099986616
700.000000000091,1.83913473389052,1.00000000363093,0.563668007887277
800.000000000113,3.80999914455177,1.00000000335114,0.585815626158913
900.000000000136,6.28731963472823,1.00000000336507,0.589627583088577
1000.00000000016,8.82619308271569,1.00000000317763,0.586078775771127
1100.0000000001,11.162075555522,1.00000000291918,0.578471523879834
1200,13.0562390527424,1.00000000272448,0.566149203606159
1299.99999999991,14.4283868211778,1.00000000234507,0.562034821193898
1399.99999999982,15.281211681273,1.0000000021341,0.55225800408425
1499.99999999973,15.6767501108617,1.00000000174967,0.529733493159504
1599.99999999964,15.7399155033261,1.00000000221749,0.559110348294353
1699.99999999955,15.4912524904373,1.00000000225276,0.552195347437501
1799.99999999946,15.1614804176236,1.00000000153466,0.481199430699695
1899.99999999937,14.6745126400508,1.00000000270632,0.572633057720405
1999.99999999928,14.2150064238068,1.00000000154354,0.454011497237335
2099.99999999919,13.6663718522267,1.00000000250347,0.512908176377563
2199.99999999909,13.181517557205,1.00000000237887,0.538069286634897
2299.999999999,12.694614532135,1.00000000138857,0.397888350685074
2399.99999999891,12.195290685031,1.00000000252979,0.531921322712831
2499.99999999882,11.7476406453231,1.00000000257558,0.549330669336107
2599.99999999873,11.3372160649315,1.00000000120533,0.401177771609695
2699.99999999864,10.943710505326,1.00000000208629,0.490132967102272
2799.99999999855,10.56251306667,1.00000000212396,0.528066942370692
2899.99999999846,10.2014476656859,1.00000000269908,0.561943201684302
2999.99999999837,9.88614768573233,1.00000000144177,0.437931203976584
3099.99999999828,9.63865603814893,1.00000000190987,0.435092975125568
3199.99999999819,9.38250592433278,1.00000000227473,0.5309961692054
3299.99999999809,9.13857395022356,1.00000000205015,0.52985838237344
3399.999999998,8.89528774187727,1.0000000027364,0.536949436850866
3499.99999999791,8.64920579101286,1.00000000260173,0.557300894324493
3599.99999999782,8.45389297650629,1.00000000135132,0.447526488412783
3699.99999999773,8.34277105569309,1.00000000178322,0.44685761706071
3799.99999999764,8.24027529565098,1.00000000263295,0.522700051329789
3899.99999999755,8.12791777733778,1.00000000199035,0.535811800373802
3999.99999999746,8.00980883447592,1.00000000230171,0.556501466696744
4099.99999999738,7.87521242543413,1.0000000021472,0.58121985018559
4199.99999999775,7.739627687756,1.00000000214837,0.557434698561409
4299.99999999811,7.59155586333628,1.00000000290786,0.566738341866731
4399.99999999848,7.43944925162709,1.00000000237196,0.564031669345262
4499.99999999884,7.34067142053068,1.00000000141496,0.473294148081763
4599.9999999992,7.34006720494623,1.00000000161784,0.457110664862975
4699.99999999957,7.36492332504122,1.00000000229932,0.503657029299892
4799.99999999993,7.37445471815862,1.00000000235708,0.539613488725113
4900.00000000029,7.36385185376396,1.00000000224548,0.567748841682153
5000.00000000066,7.33584855277214,1.00000000241849,0.584830459984031
5100.00000000102,7.30461953589771,1.00000000201946,0.586039944366828
5200.00000000139,7.26201246571146,1.00000000239129,0.588656945969074
5300.00000000175,7.20190068642327,1.00000000239126,0.577708797080807
5400.00000000211,7.12803228148843,1.00000000234037,0.592273100569624
5500.00000000248,7.05314560929119,1.00000000189461,0.600423623540555
5600.00000000284,6.97240542697975,1.00000000228786,0.596530281815859
5700.00000000321,6.88148974466097,1.00000000283112,0.608850851951846
5800.00000000357,6.78467171927782,1.00000000255316,0.588848211463213
5900.00000000393,6.69156262158819,1.00000000205217,0.559978699555711
6000.0000000043,6.64918060211544,1.00000000149995,0.498840193023035
6100.00000000466,6.69937266246287,1.0000000016744,0.475064273158284
6200.00000000502,6.80876194815665,1.00000000208894,0.503142784084724
6300.00000000539,6.90937100140527,1.00000000238282,0.536443552758089
6400.00000000575,6.99503583266913,1.00000000237898,0.556747692191782
6500.00000000612,7.06549736353826,1.00000000231689,0.582457461518782
6600.00000000648,7.11887256602128,1.00000000241873,0.604756930445333
6700.00000000684,7.14931950703,1.0000000022344,0.611439294373131
6800.00000000721,7.16597911769287,1.00000000232488,0.629611373395512
6900.00000000757,7.16349124583556,1.00000000233124,0.630278712709177
7000.00000000793,7.14358243534416,1.00000000258449,0.638009454062297
7100.0000000083,7.12508019589159,1.00000000218481,0.626287116767372
7200.00000000866,7.11320873806487,1.00000000214968,0.61551965189257
7300.00000000903,7.09685229514247,1.0000000024649,0.600735771393643
7400.00000000939,7.06628890558624,1.00000000244685,0.61432440295247
7500.00000000975,7.03669735626224,1.00000000209313,0.618454345560811
7600.00000001012,7.00979174262306,1.00000000245473,0.634987657001007
7700.00000001048,6.97702240716568,1.0000000023313,0.634673014209716
7800.00000001084,6.93962495041431,1.00000000241585,0.623559043051849
7900.00000001121,6.90238514509245,1.00000000250081,0.610735903761568
8000.00000001157,6.85663283214001,1.00000000255188,0.639827838543924
8100.00000001194,6.80191789290917,1.00000000248917,0.641235102525934
8200.0000000123,6.74031254543058,1.00000000238727,0.636332052695097
8300.00000001266,6.67894755281337,1.00000000227072,0.644157704633649
8400.00000001303,6.6170577215297,1.00000000240494,0.651460348734806
8500.00000001339,6.55441097293219,1.00000000271388,0.661034541366304
8600.00000001376,6.49347584912278,1.00000000290643,0.672356669609657
8700.00000001412,6.43177468551935,1.00000000275626,0.650379366304724
8800.00000001448,6.36497474516655,1.00000000263152,0.620061478112816
8900.00000001485,6.30648078245922,1.00000000209047,0.57366430932857
9000.00000001521,6.28944977303101,1.0000000016072,0.530390433331456
9100.00000001557,6.34493695435764,1.00000000156366,0.49936479610204
9200.00000001594,6.47329922915718,1.00000000208128,0.501526863157069
9300.0000000163,6.64356863482723,1.00000000234829,0.519593036913101
9400.00000001667,6.81456880937354,1.00000000242224,0.539730327298503
9500.00000001703,6.97224772403754,1.00000000248657,0.54652188786741
9600.00000001739,7.11898921626937,1.00000000250145,0.566253804805666
9700.00000001776,7.24746965770332,1.00000000248707,0.577435762578143
9800.00000001812,7.3634589246494,1.00000000239961,0.585430681899071
9900.00000001848,7.46569829894342,1.00000000271811,0.612233893946006
10000.0000000188,7.55178227385453,1.00000000245023,0.626438655508285
10100.0000000192,7.625849983241,1.00000000271808,0.611611870871858
10200.0000000196,7.68346473131748,1.00000000267576,0.631586835050975
10300.0000000199,7.72286431297186,1.00000000274108,0.652398604383752
10400.0000000203,7.74884710790087,1.00000000293126,0.65458959649173
10500.0000000207,7.76780645265005,1.00000000252626,0.653467728311636
10600.000000021,7.79004181678259,1.00000000251482,0.646689612408676
10700.0000000214,7.80452463260654,1.0000000030112,0.656665155237082
10800.0000000218,7.81293481952463,1.00000000248348,0.656540232406344
10900.0000000221,7.8197794905801,1.0000000027619,0.65773507100088
11000.0000000225,7.81523472166624,1.0000000029216,0.660119802666983
11100.0000000229,7.80949535894929,1.00000000297465,0.663145085143896
11200.0000000232,7.79799760279916,1.00000000294339,0.653784314425994
11300.0000000236,7.78455557238158,1.00000000265933,0.663065356791573
11400.0000000239,7.76522138515661,1.00000000266378,0.666831092069479
11500.0000000243,7.74466476521107,1.0000000027473,0.662819805496264
11600.0000000247,7.72441251397586,1.00000000260457,0.655354492360301
11700.000000025,7.70588608073986,1.00000000278607,0.647887525175734
11800.0000000254,7.69481278931264,1.00000000271894,0.629980907494566
11900.0000000258,7.69611482689778,1.00000000275392,0.613299834338043
12000.0000000261,7.71003823764774,1.00000000285449,0.635024103205001
12100.0000000265,7.7263589313157,1.00000000279296,0.645437396747454
12200.0000000269,7.74119796729055,1.00000000293471,0.639543745253168
12300.0000000272,7.74560149918986,1.00000000309162,0.638154424601157
12400.0000000276,7.75255994762532,1.00000000261063,0.624722190954237
12500.0000000279,7.76246168756721,1.00000000298705,0.635748824584376
12600.0000000283,7.76783221044306,1.00000000288407,0.630902399009004
12700.0000000287,7.77878287265584,1.00000000268889,0.645412313498122
12800.000000029,7.79476113144482,1.00000000285084,0.664981455439654
12900.0000000294,7.80311666688446,1.00000000302556,0.660144335120615
13000.0000000298,7.80544671529301,1.0000000029515,0.662529336824775
13100.0000000301,7.81313334137818,1.0000000027463,0.652569863775667
13200.0000000305,7.82537049982541,1.00000000307119,0.659757873300061
13300.0000000309,7.84906640609035,1.00000000281384,0.649787166795676
13400.0000000312,7.87237423908858,1.00000000309612,0.657967655977193
13500.0000000316,7.88664767016585,1.00000000330977,0.6716267538299
13600.0000000319,7.89872673302191,1.0000000032937,0.658344842435268
13700.0000000323,7.91671519911456,1.00000000314304,0.678844968195416
13800.0000000327,7.93035992378489,1.00000000321886,0.676246510903275
13900.000000033,7.94403900434263,1.00000000278152,0.658174137393234
14000.0000000334,7.9581739512406,1.00000000318659,0.681745912651004
14100.0000000338,7.96725716712451,1.00000000277809,0.668506767504108
14200.0000000341,7.98392200086989,1.00000000292627,0.664168766019096
14300.0000000345,7.9950813500546,1.00000000349666,0.672351925134434
14400.0000000349,8.003345222216,1.00000000301371,0.679889997128894
14500.0000000352,8.01322925763606,1.00000000283292,0.664264163029604
14600.0000000356,8.02298120750496,1.0000000033669,0.68030671532837
14700.0000000359,8.02602066765969,1.00000000327753,0.664173216472746
14800.0000000363,8.02669081890572,1.00000000292301,0.661117336182759
14900.0000000367,8.03078060178702,1.00000000332644,0.662250147780885
15000.000000037,8.03310444765269,1.00000000313477,0.672413716638084
15100.0000000374,8.04067976949165,1.00000000333948,0.665498880745383
15200.0000000378,8.04610133517108,1.00000000331485,0.692712271172437
15300.0000000381,8.04152378708088,1.00000000313642,0.672984792927812
15400.0000000385,8.03853666114564,1.00000000305914,0.660604456169161
15500.0000000389,8.0388041868828,1.00000000333535,0.661804779527037
15600.0000000392,8.03581198547244,1.00000000312462,0.676927239661488
15700.0000000396,8.02640416772636,1.00000000356922,0.687636895503246
15800.0000000399,8.00888965164642,1.00000000314096,0.681024728611709
15900.0000000403,7.99136721693019,1.00000000338068,0.668861381735419
16000.0000000407,7.97333009053796,1.00000000337597,0.677432619449134
16100.000000041,7.94969084172929,1.00000000319623,0.684884559787961
16200.0000000414,7.92067365007621,1.00000000321689,0.684103341603861
16300.0000000418,7.8881992911676,1.00000000335787,0.685017649064339
16400.0000000418,7.85536164293044,1.00000000332149,0.680535102353566
16500.0000000404,7.82113788121195,1.00000000355319,0.681420847918215
16600.0000000389,7.78835423075607,1.00000000325147,0.678932036789313
16700.0000000375,7.75741405274901,1.00000000319853,0.664985946592316
16800.000000036,7.72831868394665,1.00000000359184,0.669027670369142
16900.0000000346,7.70301238411373,1.00000000327499,0.6594879058175
17000.0000000331,7.67858822350362,1.00000000348381,0.679492017929205
17100.0000000317,7.65688046973152,1.00000000353652,0.682543195769239
17200.0000000302,7.63843332101249,1.00000000340721,0.682811817956894
17300.0000000287,7.62034709983238,1.00000000399928,0.695855539923334
17400.0000000273,7.6018995710637,1.0000000035154,0.688063286190723
17500.0000000258,7.57935254719806,1.00000000376131,0.671507771698577
17600.0000000244,7.55150758698468,1.00000000343889,0.655165360426967
17700.0000000229,7.51971355080694,1.00000000351981,0.63169638025601
17800.0000000215,7.4933553113538,1.00000000305177,0.599586172659779
17900.00000002,7.48936114397608,1.00000000278105,0.592081421470592
18000.0000000186,7.52289033450612,1.0000000028315,0.574025032240945
18100.0000000171,7.616452885699,1.00000000282051,0.560784421328623
18200.0000000156,7.77956920055751,1.00000000273132,0.54272745048435
18300.0000000142,8.02571200396174,1.00000000284786,0.545617383258902
18400.0000000127,8.33059876798507,1.00000000308604,0.552525626265227
18500.0000000113,8.70474420457525,1.00000000319454,0.560009863417072
18600.0000000098,9.08382115702423,1.00000000350798,0.558575142858961
18700.0000000084,9.49525624490657,1.00000000373431,0.56381081391869
18800.0000000069,9.88817301653681,1.00000000355926,0.5755517938519
18900.0000000055,10.2973093007068,1.00000000358203,0.574090775962883
19000.000000004,10.6877979388885,1.00000000356817,0.586538925297856
19100.0000000026,11.0761928648959,1.0000000036254,0.590489653072185
19200.0000000011,11.4607383971238,1.00000000351596,0.592414854203513
19299.9999999996,11.8323725564787,1.00000000332858,0.586512751179045
19399.9999999982,12.214357716254,1.0000000037,0.600904939242853
19499.9999999967,12.5862493727198,1.00000000347305,0.604897290994068
19599.9999999953,12.9645388619656,1.00000000405122,0.612007576008608
19699.9999999938,13.3273807421157,1.00000000334549,0.639956298973721
19799.9999999924,13.6799526949566,1.00000000357607,0.643220497887053
19899.9999999909,14.0268450464318,1.00000000360261,0.657920392806379
19999.9999999895,14.3505016219742,1.00000000376729,0.650715187194532
20099.999999988,14.6709862264928,1.00000000348419,0.662099506998488
20199.9999999865,14.9702057600345,1.0000000036668,0.670439206032916
20299.9999999851,15.2662043748414,1.00000000365538,0.653201638952762
20399.9999999836,15.5232405242538,1.00000000375106,0.660579321836654
20499.9999999822,15.7624988820236,1.00000000387058,0.682624092693084
20599.9999999807,15.9974178511932,1.00000000356196,0.679800640074967
20699.9999999793,16.2160978834945,1.00000000359477,0.680727034979061
20799.9999999778,16.4181820631633,1.00000000388708,0.683646603520153
20899.9999999764,16.603983877188,1.0000000036073,0.669863336387328
20999.9999999749,16.7846793374317,1.00000000379094,0.682536454665583
21099.9999999734,16.9502991479377,1.00000000373791,0.692572973631859
21199.999999972,17.1129600581736,1.00000000343166,0.698441608001207
21299.9999999705,17.2786002198898,1.00000000377653,0.701163690662875
21399.9999999691,17.4305934809204,1.0000000040538,0.69756085828041
21499.9999999676,17.5693513029905,1.00000000435983,0.710572791580556
21599.9999999662,17.6937570314917,1.00000000418852,0.714710954357148
21699.9999999647,17.8321482470489,1.00000000332635,0.705120737409337
21799.9999999633,17.9866424200119,1.0000000037518,0.693690513642457
21899.9999999618,18.1406680888958,1.00000000402663,0.691061893847976
21999.9999999603,18.2762817332532,1.00000000398899,0.681235740700349
22099.9999999589,18.3940806735537,1.00000000400693,0.703300809957416
22199.9999999574,18.5051479210366,1.0000000039146,0.691273015124029
22299.999999956,18.6175356168557,1.00000000383774,0.680590809500685
22399.9999999545,18.746066661785,1.00000000359269,0.690907248797817
22499.9999999531,18.8693909046421,1.0000000041356,0.694046969646739
22599.9999999516,18.9820222183569,1.00000000383736,0.68818259235545
22699.9999999502,19.085428815493,1.00000000410751,0.701053030864955
22799.9999999487,19.182508367611,1.00000000395658,0.697545525782402
22899.9999999473,19.2825090172438,1.00000000385716,0.696975589847364
22999.9999999458,19.3832518164051,1.0000000034541,0.667732631452125
23099.9999999443,19.4807478959389,1.00000000384793,0.679875691397145
23199.9999999429,19.5674630858655,1.00000000394452,0.690335291530278
23299.9999999414,19.6536397368828,1.00000000362133,0.693785919991011
23399.99999994,19.7511028399619,1.00000000343985,0.673507098931858
23499.9999999385,19.8505344568205,1.00000000420149,0.681979366511641
23599.9999999371,19.944074977442,1.00000000380107,0.693441967513092
23699.9999999356,20.036359520199,1.00000000366368,0.681670564809868
23799.9999999342,20.1296645097553,1.00000000393933,0.681501381592198
23899.9999999327,20.2206204764046,1.00000000427918,0.680463711839841
23999.9999999312,20.3170327319508,1.00000000413426,0.689774471517557
24099.9999999298,20.4111163852039,1.00000000399508,0.700846708217041
24199.9999999283,20.5083833829129,1.00000000377553,0.681851189661087
24299.9999999269,20.6012500492416,1.00000000404579,0.683211063042266
24399.9999999254,20.6845166692948,1.00000000387561,0.666104450738244
24499.999999924,20.7750702102516,1.00000000376258,0.660564321479701
24599.9999999225,20.8642982957155,1.00000000361114,0.661557959112586
24699.9999999211,20.9517014351079,1.00000000384648,0.666442683110438
24799.9999999196,21.0349857707516,1.00000000394508,0.657243845125009
24899.9999999181,21.1199613287091,1.00000000407928,0.684893401141513
24999.9999999167,21.206946270165,1.00000000394817,0.690116946410296
25099.9999999152,21.2920389554239,1.00000000413871,0.680154492643585
25199.9999999138,21.3695459752391,1.00000000428957,0.704459184020743
25299.9999999123,21.4483141911663,1.00000000401652,0.689150097099932
25399.9999999109,21.5305960269787,1.00000000381291,0.685268988308415
25499.9999999094,21.6178737121749,1.0000000039218,0.68566717285913
25599.999999908,21.7109081317657,1.00000000400754,0.680691295699588
25699.9999999065,21.8024017517142,1.00000000365259,0.68549259743827
25799.9999999051,21.8774262361645,1.00000000441226,0.693990487970137
25899.9999999036,21.9421590566719,1.00000000417271,0.692076313565073
25999.9999999021,22.0013401132003,1.00000000397936,0.701158153204403
26099.9999999007,22.0654876463954,1.00000000392184,0.700776050478832
26199.9999998992,22.1403945061155,1.00000000359288,0.687716054144453
26299.9999998978,22.2353907028029,1.00000000361891,0.682743708608125
26399.9999998963,22.3464539298883,1.00000000393234,0.668759792970271
26499.9999998949,22.4694892023019,1.00000000375747,0.685923673133764
26599.9999998934,22.6143218374811,1.00000000391932,0.692104350267755
26699.999999892,22.7618702129732,1.0000000041893,0.699717331729394
26799.9999998905,22.9059796550788,1.00000000410315,0.702843908376386
26899.999999889,23.0345665282172,1.00000000396992,0.708991906356298
26999.9999998876,23.152749006331,1.00000000453831,0.703513083637413
27099.9999998861,23.2655968755174,1.00000000420698,0.686259354017744
27199.9999998847,23.3828707363778,1.00000000427854,0.683803591790536
27299.9999998832,23.5057520882179,1.00000000430025,0.704614056546242
27399.9999998818,23.620773786696,1.00000000406596,0.70052322337118
27499.9999998803,23.7329896063225,1.00000000442736,0.702466613970452
27599.9999998789,23.8475288552467,1.00000000379589,0.691432145675433
27699.9999998774,23.9710397590059,1.00000000335799,0.692476114251728
27799.9999998759,24.0905005427428,1.00000000445993,0.695768957355435
27899.9999998745,24.2141532866047,1.00000000366818,0.67899522661382
27999.999999873,24.3512466826233,1.00000000445046,0.67579379054058
28099.9999998716,24.4843119880126,1.00000000446853,0.670364516577194
28199.9999998701,24.5967760186522,1.00000000454762,0.68135396927769
28299.9999998687,24.707409608887,1.00000000372034,0.678987196231481
28399.9999998672,24.8272462552279,1.00000000404652,0.652087952447046
28499.9999998658,24.9607361862773,1.00000000398689,0.640404954415816
28599.9999998643,25.0990827428721,1.00000000450117,0.649731744629413
28699.9999998629,25.2298133437828,1.00000000406263,0.67376670557117
28799.9999998614,25.3491419246449,1.00000000448295,0.687400755685637
28899.9999998599,25.4693230472593,1.00000000399707,0.684341455690964
28999.9999998585,25.5935269048113,1.00000000475615,0.678967173855152
29099.999999857,25.7152706582537,1.00000000449918,0.693405215312238
