Time,AGPnorm,Energy,Entropy
0,0,1,-7.30838875227499e-17
99.9999999999986,0.000505249661358421,1.00000000000216,0.00187971510010703
199.999999999993,0.00330085618294687,1.00000000000109,0.00562590976262448
300,0.00690450070412465,0.999999999998684,0.0104188539574758
400.000000000022,0.0109263356974554,0.999999999999055,0.0162691329790567
500.000000000045,0.0151250554272132,1.00000000000126,0.0235107284251181
600.000000000068,0.0211937253703578,1.00000000000189,0.0319504440717868
700.000000000091,0.0277938107871008,0.999999999999599,0.0410675300105618
800.000000000113,0.0350897458029471,0.999999999998777,0.050795304732757
900.000000000136,0.042591105447329,1.00000000000025,0.0616154229833894
1000.00000000016,0.0509129823890875,1.00000000000172,0.073545201392307
1100.0000000001,0.0599926528998214,1.00000000000078,0.086586450107678
1200,0.0686659213547609,0.999999999998968,0.100363310182271
1299.99999999991,0.0785769933898936,0.999999999999742,0.115509306281951
1399.99999999982,0.0873849220547458,1.00000000000115,0.132326096242189
1499.99999999973,0.0975162395735906,1.00000000000228,0.151226718928106
1599.99999999964,0.106986245115729,1.00000000000201,0.172320272016564
1699.99999999955,0.117892941350292,1.00000000000766,0.196061124794766
1799.99999999946,0.127144752417715,1.00000000002211,0.22314864532238
1899.99999999937,0.136465455689452,1.00000000005438,0.252822110171508
1999.99999999928,0.157093312326004,1.00000000009188,0.284007602743068
2099.99999999919,0.203834424592741,1.00000000014849,0.314212318977793
2199.99999999909,0.284128848372821,1.00000000020714,0.34318802954077
2299.999999999,0.421779950222612,1.00000000028541,0.3699966191068
2399.99999999891,0.68332652108638,1.00000000033754,0.394505194549225
2499.99999999882,1.13736464709489,1.00000000041585,0.41600232800206
2599.99999999873,1.81525538426653,1.00000000044407,0.435326300612274
2699.99999999864,2.75281844758254,1.00000000053784,0.452574240188282
2799.99999999855,4.02372676776595,1.00000000057134,0.467981409476866
2899.99999999846,5.70559945370881,1.00000000059372,0.481348849354181
2999.99999999837,7.8139737336246,1.00000000063569,0.492900889224461
3099.99999999828,10.3417657235258,1.00000000066444,0.50311737291858
3199.99999999819,13.3064159895589,1.00000000070067,0.512166653528815
3299.99999999809,16.7348396066303,1.00000000075751,0.519545654142034
3399.999999998,20.618758316614,1.00000000072891,0.525850603708687
3499.99999999791,24.9068296782871,1.00000000073614,0.531409569083873
3599.99999999782,29.5631493703376,1.00000000072109,0.536444418189257
3699.99999999773,34.5638730917459,1.00000000068866,0.540526969233723
3799.99999999764,39.8818128644656,1.00000000070955,0.542659465961044
3899.99999999755,45.4590238342067,1.00000000074374,0.545213117478464
3999.99999999746,51.2317099331421,1.00000000075795,0.547940769576464
4099.99999999738,57.1564755604263,1.00000000075879,0.548359601191675
4199.99999999775,63.1975106951807,1.00000000072663,0.549112258731752
4299.99999999811,69.305923184428,1.00000000070614,0.550386198350491
4399.99999999848,75.4243745232944,1.00000000072739,0.549958521817238
4499.99999999884,81.5146954768303,1.00000000067344,0.549899841899294
4599.9999999992,87.5357051368966,1.000000000637,0.549179206117367
4699.99999999957,93.4546067958853,1.00000000063482,0.549122355918151
4799.99999999993,99.2403137635127,1.00000000065112,0.547483283014842
4900.00000000029,104.857231407549,1.00000000063482,0.546500158905179
5000.00000000066,110.278613892556,1.00000000061062,0.545940356843426
5100.00000000102,115.483511693208,1.0000000005851,0.543877795177702
5200.00000000139,120.458417685777,1.00000000060571,0.542776647577568
5300.00000000175,125.184533590875,1.00000000056388,0.541754186451778
5400.00000000211,129.649200974449,1.00000000055288,0.540403890382103
5500.00000000248,133.84221388189,1.00000000057127,0.537691783742293
5600.00000000284,137.758905376851,1.0000000005336,0.537278665276565
5700.00000000321,141.39486236201,1.00000000050068,0.536470167607098
5800.00000000357,144.743826647799,1.00000000050629,0.533342765447485
5900.00000000393,147.802903124293,1.00000000049652,0.530826507049056
6000.0000000043,150.576445677773,1.0000000005034,0.532746255752897
6100.00000000466,153.070528062094,1.00000000047594,0.531707855101806
6200.00000000502,155.285332378569,1.00000000044518,0.525409909265645
6300.00000000539,157.219023182398,1.00000000043883,0.522624137289475
6400.00000000575,158.885670249435,1.00000000045372,0.530360183168821
6500.00000000612,160.308251490638,1.00000000046093,0.533322408067838
6600.00000000648,161.491189395731,1.00000000041142,0.5215367991169
6700.00000000684,162.416915450668,1.00000000039085,0.509231454311568
6800.00000000721,163.09364622226,1.00000000039295,0.5199928880149
6900.00000000757,163.574172347601,1.00000000044856,0.539152642110133
7000.00000000793,163.900466566977,1.00000000045013,0.53645707243661
7100.0000000083,164.050031364344,1.00000000036067,0.509009250660865
7200.00000000866,163.973846388225,1.00000000030847,0.490541231849795
7300.00000000903,163.692946198536,1.00000000036158,0.51446149732111
7400.00000000939,163.297944909152,1.00000000048574,0.547099661585523
7500.00000000975,162.852521351295,1.00000000050857,0.549801019381836
7600.00000001012,162.328319152555,1.00000000041135,0.514656190156122
7700.00000001048,161.643611989028,1.00000000026084,0.468580617116815
7800.00000001084,160.773705223961,1.00000000028576,0.474627511412481
7900.00000001121,159.795734892784,1.00000000041926,0.526567345691881
8000.00000001157,158.812393769708,1.00000000051128,0.559042156066305
8100.00000001194,157.86235257933,1.00000000053358,0.554636126080535
8200.0000000123,156.897278135944,1.00000000041485,0.508260893854536
8300.00000001266,155.828013860745,1.00000000024144,0.441502574862425
8400.00000001303,154.616958772538,1.00000000020838,0.431825283044449
8500.00000001339,153.320457567341,1.0000000003662,0.492552016920495
8600.00000001376,152.029409563361,1.00000000053228,0.545524827128719
8700.00000001412,150.800738476036,1.00000000060178,0.564210073909112
8800.00000001448,149.634162016266,1.0000000005248,0.547369968999122
8900.00000001485,148.477158217617,1.00000000038102,0.48713932674964
9000.00000001521,147.257140423606,1.0000000002234,0.409864437661156
9100.00000001557,145.945731391808,1.00000000017962,0.386397454985259
9200.00000001594,144.576777280261,1.00000000029577,0.443290430360948
9300.0000000163,143.208943615997,1.00000000051107,0.514573460746117
9400.00000001667,141.889234078323,1.00000000064606,0.549565534077334
9500.00000001703,140.638397516261,1.00000000064925,0.555085487226523
9600.00000001739,139.445499311017,1.00000000058522,0.538091067923632
9700.00000001776,138.273122866179,1.00000000041749,0.483907569853083
9800.00000001812,137.07538266031,1.00000000026443,0.405148383181861
9900.00000001848,135.830767336018,1.00000000018703,0.359970374138028
10000.0000000188,134.553403018792,1.00000000024282,0.381855903911587
10100.0000000192,133.27191627661,1.00000000036276,0.449920274289364
10200.0000000196,132.010071153497,1.00000000054458,0.509796620636709
10300.0000000199,130.785087520974,1.00000000061633,0.536419064473161
10400.0000000203,129.606916144707,1.0000000006179,0.543158922258465
10500.0000000207,128.472841764178,1.00000000055554,0.537640131675696
10600.000000021,127.367943760924,1.00000000047329,0.509380583181167
10700.0000000214,126.271067702156,1.00000000038831,0.457366919107027
10800.0000000218,125.167425591933,1.00000000027602,0.399529247061443
10900.0000000221,124.057177391749,1.00000000023958,0.365507811294024
11000.0000000225,122.950798734919,1.00000000025341,0.37779203327473
11100.0000000229,121.857326710198,1.00000000033013,0.418620497679188
11200.0000000232,120.78012555879,1.0000000004197,0.472761488734218
11300.0000000236,119.720117294218,1.00000000048266,0.507978671799226
11400.0000000239,118.678432991127,1.00000000053797,0.518398034768789
11500.0000000243,117.657236949122,1.00000000057848,0.523077508735672
11600.0000000247,116.658548037088,1.00000000058001,0.533681786816576
11700.000000025,115.681498326536,1.0000000005067,0.528548130555922
11800.0000000254,114.720954837153,1.00000000041857,0.496053334439646
11900.0000000258,113.771990141695,1.00000000033838,0.449802016852435
12000.0000000261,112.835824600108,1.00000000028317,0.409089994799154
12100.0000000265,111.918969939797,1.00000000028031,0.388104127809089
12200.0000000269,111.027449166604,1.00000000031688,0.390783477961218
12300.0000000272,110.162928198179,1.00000000033932,0.418673791381929
12400.0000000276,109.321127087447,1.00000000038283,0.447148089684581
12500.0000000279,108.49519500256,1.00000000043157,0.475452687935174
12600.0000000283,107.68043101364,1.00000000043729,0.498817628235053
12700.0000000287,106.876007251128,1.00000000042186,0.501835480143024
12800.000000029,106.081026863113,1.00000000042063,0.495922817320357
12900.0000000294,105.291638787076,1.00000000048035,0.50409387553669
13000.0000000298,104.504680370077,1.00000000058593,0.52357705882128
13100.0000000301,103.722051964304,1.00000000057528,0.538365481380769
13200.0000000305,102.947837588785,1.00000000051377,0.528691114298989
13300.0000000309,102.18666532134,1.00000000040465,0.493997174564942
13400.0000000312,101.445907008674,1.00000000029123,0.446979112562349
13500.0000000316,100.735270949807,1.00000000024133,0.409754339979817
13600.0000000319,100.060626757487,1.00000000026938,0.392823631177091
13700.0000000323,99.4205242419919,1.00000000033681,0.39802243801127
13800.0000000327,98.8084633841009,1.00000000038397,0.415330850058479
13900.000000033,98.2177865710828,1.0000000004275,0.4449028316842
14000.0000000334,97.6401333108469,1.0000000004264,0.467800510079319
14100.0000000338,97.0687836475837,1.00000000047268,0.483913700784951
14200.0000000341,96.501928743437,1.00000000046816,0.494031715967862
14300.0000000345,95.9411672554292,1.00000000041081,0.497609025737365
14400.0000000349,95.3910674046602,1.00000000036348,0.494705325783879
14500.0000000352,94.8533218745956,1.0000000003496,0.486798192503278
14600.0000000356,94.3215956305551,1.00000000041885,0.487206862364633
14700.0000000359,93.7851469127148,1.0000000005224,0.497969887747177
14800.0000000363,93.2355489494084,1.00000000056385,0.514114769485215
14900.0000000367,92.6730113995088,1.0000000005555,0.530803117987321
15000.000000037,92.1043008212073,1.00000000054452,0.535748800458593
15100.0000000374,91.5380744244012,1.0000000004614,0.523116429247183
15200.0000000378,90.9832679909179,1.00000000039162,0.495123348043876
15300.0000000381,90.4504136360716,1.00000000032461,0.458745337868434
15400.0000000385,89.9512211200491,1.0000000002715,0.428904594085515
15500.0000000389,89.4936094530234,1.00000000025516,0.409456582569589
15600.0000000392,89.0792005864464,1.0000000003068,0.402283427321735
15700.0000000396,88.7009837731,1.00000000032573,0.407710151199101
15800.0000000399,88.3468632485288,1.00000000038727,0.430308115807954
15900.0000000403,88.0054272383219,1.0000000004429,0.452202844525797
16000.0000000407,87.671139245584,1.00000000042716,0.466577864034206
16100.000000041,87.3407865527072,1.00000000043432,0.478644864710195
16200.0000000414,87.013173081035,1.00000000043687,0.486284523579846
16300.0000000418,86.6851664436018,1.00000000045685,0.494587910308478
16400.0000000418,86.3544202185023,1.00000000045593,0.505889617921305
16500.0000000404,86.0194776099908,1.0000000004537,0.514843538841012
16600.0000000389,85.6828270052207,1.00000000040515,0.520015817444296
16700.0000000375,85.3491652831361,1.00000000038616,0.522122261397194
16800.000000036,85.0210099087144,1.00000000036022,0.515857148857272
16900.0000000346,84.6964603758237,1.00000000037597,0.509896859477325
17000.0000000331,84.3705471690116,1.00000000043071,0.502804250448888
17100.0000000317,84.0386296896243,1.00000000045144,0.49585920202862
17200.0000000302,83.6963181997453,1.00000000049669,0.501615343025038
17300.0000000287,83.3410440676758,1.00000000054296,0.515158897814709
17400.0000000273,82.9711321981991,1.0000000005321,0.53030543601658
17500.0000000258,82.5902911335198,1.00000000051831,0.540733724417569
17600.0000000244,82.2061582721371,1.00000000046414,0.537456964102442
17700.0000000229,81.8300756642796,1.00000000042742,0.517289980577802
17800.0000000215,81.4742922949426,1.00000000033966,0.48847048200725
17900.00000002,81.1500694740972,1.00000000028551,0.457693411477806
18000.0000000186,80.8650475448243,1.0000000002724,0.437256650103601
18100.0000000171,80.6206401657817,1.00000000029243,0.427831030502117
18200.0000000156,80.4145161848843,1.00000000030611,0.426468348943904
18300.0000000142,80.2410785810034,1.00000000036902,0.430196779298669
18400.0000000127,80.0916541987045,1.00000000038125,0.43396134209038
18500.0000000113,79.9556206098152,1.00000000042323,0.443524137095126
18600.0000000098,79.8240467104677,1.00000000045553,0.461358230367439
18700.0000000084,79.6905295845081,1.00000000046651,0.477638839681804
18800.0000000069,79.5543063682367,1.0000000004362,0.488409432318403
18900.0000000055,79.4225230392274,1.00000000036365,0.491196097444704
19000.000000004,79.3029691468437,1.00000000035095,0.489279336887956
19100.0000000026,79.1981331246122,1.00000000034801,0.489227125294094
19200.0000000011,79.1027573790686,1.00000000040151,0.494646077696327
19299.9999999996,79.0053690596119,1.00000000044819,0.507185479323645
19399.9999999982,78.8933655707894,1.00000000049567,0.518589741483156
19499.9999999967,78.7578999006917,1.00000000051512,0.527134584193895
19599.9999999953,78.5970475099353,1.00000000053727,0.532483185425802
19699.9999999938,78.4139694599041,1.00000000052188,0.535657869730494
19799.9999999924,78.2162769946396,1.00000000046345,0.538836917825665
19899.9999999909,78.0123554300851,1.00000000039773,0.539163584051471
19999.9999999895,77.8096795101421,1.00000000038132,0.532548568233148
20099.999999988,77.6130104488514,1.00000000034465,0.51993799555291
20199.9999999865,77.4240133343299,1.00000000033824,0.511527276883749
20299.9999999851,77.2419218148677,1.00000000037739,0.51013429211757
20399.9999999836,77.0615686230611,1.00000000040716,0.506629379451365
20499.9999999822,76.8764422118753,1.00000000041627,0.50522175483614
20599.9999999807,76.6811520948954,1.00000000046436,0.510070772356205
20699.9999999793,76.4721074276412,1.00000000054891,0.518064255683981
20799.9999999778,76.247342669068,1.00000000054691,0.526911591129061
20899.9999999764,76.0074457564411,1.0000000005663,0.536567602964435
20999.9999999749,75.7565882357606,1.00000000052475,0.543955687155523
21099.9999999734,75.5017476167576,1.00000000047922,0.54336363569219
21199.999999972,75.2517282621095,1.00000000040849,0.533767846806758
21299.9999999705,75.0155860438843,1.00000000034676,0.515245435521036
21399.9999999691,74.8027177248761,1.00000000031308,0.490464238597131
21499.9999999676,74.6203685493561,1.00000000029728,0.471531445668142
21599.9999999662,74.4736886449734,1.0000000002952,0.454982565607707
21699.9999999647,74.3646355222354,1.00000000031201,0.444608919877287
21799.9999999633,74.2923131326962,1.00000000031266,0.443090792325342
21899.9999999618,74.2526731108205,1.00000000033421,0.441621245945113
21999.9999999603,74.2384545340356,1.00000000037167,0.440047833862086
22099.9999999589,74.2405136263877,1.00000000040404,0.441528753524992
22199.9999999574,74.249862204345,1.00000000042996,0.448658371538022
22299.999999956,74.2623656967718,1.00000000044787,0.455117058711814
22399.9999999545,74.2781990080401,1.00000000042859,0.456830215978142
22499.9999999531,74.2995805879551,1.00000000038868,0.459478101765161
22599.9999999516,74.3273727150832,1.00000000039782,0.469920341851963
22699.9999999502,74.3591001345649,1.00000000040353,0.484775289039682
22799.9999999487,74.390671245281,1.00000000042007,0.496089773682268
22899.9999999473,74.4175625163526,1.0000000004645,0.507027212753712
22999.9999999458,74.4365588862265,1.00000000043898,0.519873401966613
23099.9999999443,74.4475020824849,1.00000000043303,0.53172192090898
23199.9999999429,74.4534565890152,1.00000000041787,0.537037901326249
23299.9999999414,74.4576573288832,1.00000000040859,0.537001138817644
23399.99999994,74.4610661482173,1.00000000040643,0.535894391410979
23499.9999999385,74.4617276140408,1.00000000042013,0.537925144191628
23599.9999999371,74.4579170089725,1.00000000043816,0.543852788474528
23699.9999999356,74.4473317640142,1.0000000004027,0.544392547953441
23799.9999999342,74.4269990614969,1.00000000039725,0.541496889780336
23899.9999999327,74.3947053660742,1.00000000042871,0.538484352424511
23999.9999999312,74.3486127911783,1.00000000044335,0.537136778331799
24099.9999999298,74.2872298319772,1.00000000046311,0.536815778732536
24199.9999999283,74.209492869305,1.00000000047771,0.534097220099857
24299.9999999269,74.1154375524312,1.00000000047612,0.528663420153551
24399.9999999254,74.0074360881962,1.00000000047689,0.531385091986889
24499.999999924,73.8893852171682,1.0000000004613,0.53860792475763
24599.9999999225,73.764845979408,1.00000000042557,0.543364135668551
24699.9999999211,73.6366752522548,1.0000000004202,0.546675040000686
24799.9999999196,73.5066282626999,1.00000000041353,0.548430593665792
24899.9999999181,73.37622430816,1.00000000039301,0.54798619923389
24999.9999999167,73.2477992878657,1.00000000036763,0.54537771721234
25099.9999999152,73.1236322513534,1.00000000035558,0.543046607989537
25199.9999999138,73.0044653646844,1.00000000034774,0.544470073087933
25299.9999999123,72.8887503640225,1.00000000035718,0.544063967084646
25399.9999999109,72.7738165133523,1.00000000037732,0.542235809016889
25499.9999999094,72.6575994041948,1.00000000041381,0.542380824401232
25599.999999908,72.5374661744664,1.0000000004235,0.542438042540447
25699.9999999065,72.4111031357417,1.00000000044769,0.540901447168982
25799.9999999051,72.2764512112525,1.00000000047773,0.53760946962424
25899.9999999036,72.1319931039986,1.00000000050579,0.533661941814959
25999.9999999021,71.9773207589264,1.00000000051338,0.532460572091527
26099.9999999007,71.8122591743179,1.00000000054184,0.536064859136203
26199.9999998992,71.6376139714057,1.00000000052724,0.540369150332893
26299.9999998978,71.456226576179,1.00000000049479,0.543777104195338
26399.9999998963,71.2729439439334,1.00000000043691,0.543752436173761
26499.9999998949,71.0941925776032,1.000000000431,0.539967988074667
26599.9999998934,70.9265881885147,1.00000000037388,0.528685127746726
26699.999999892,70.7764083464399,1.00000000034404,0.513322182560147
26799.9999998905,70.6489360304733,1.000000000307,0.49869051782815
26899.999999889,70.5486721442853,1.00000000029068,0.4878493882394
26999.9999998876,70.4790912868008,1.00000000028606,0.476848945855894
27099.9999998861,70.4414241611744,1.0000000003024,0.46899052755729
27199.9999998847,70.4348962843089,1.00000000031693,0.461382334977859
27299.9999998832,70.4573882139746,1.00000000034488,0.455782257315353
27399.9999998818,70.5049907830449,1.00000000035919,0.455431239481707
27499.9999998803,70.5712129343454,1.00000000037845,0.457666324489469
27599.9999998789,70.649127994215,1.00000000042916,0.463766708662371
27699.9999998774,70.7342557093721,1.00000000041274,0.469140759214131
27799.9999998759,70.8250815063063,1.00000000042251,0.470121625348321
27899.9999998745,70.922776553809,1.00000000040457,0.467479820062462
27999.999999873,71.0264708647541,1.00000000039532,0.466706102125431
28099.9999998716,71.1330785776075,1.00000000042916,0.471799379191171
28199.9999998701,71.2409810852422,1.00000000042121,0.480400608314522
28299.9999998687,71.3509888268029,1.00000000039941,0.488854090752479
28399.9999998672,71.4636923055287,1.00000000040391,0.497953854918268
28499.9999998658,71.5786161828335,1.00000000042214,0.506409838133306
28599.9999998643,71.6936127535239,1.00000000041119,0.513470012435306
28699.9999998629,71.806627102321,1.00000000041027,0.520284390011102
28799.9999998614,71.9157170133403,1.00000000040895,0.52802224748799
28899.9999998599,72.0196481375679,1.00000000044714,0.534992079476571
28999.9999998585,72.1173588920096,1.00000000044141,0.541212010767216
