Time,AGPnorm,Energy,Entropy
0,0,1,-7.30152426690968e-17
99.9999999999986,0.000713196623384342,0.99999999999899,0.0025891159674445
199.999999999993,0.00493532921558655,0.999999999997227,0.00758098197466465
300,0.00999896196480241,0.999999999997809,0.0140087588752457
400.000000000022,0.0154104820045249,0.999999999999766,0.0221016521555268
500.000000000045,0.0215898069200845,0.999999999999433,0.0320222246574831
600.000000000068,0.0303385190171083,0.999999999997815,0.0432961659425819
700.000000000091,0.0393607367819673,0.999999999997277,0.0555816898113828
800.000000000113,0.049156016533492,0.999999999999276,0.0690987070638038
900.000000000136,0.058984530370675,0.999999999999769,0.0844242686390489
1000.00000000016,0.0702977846121912,0.999999999998356,0.101295372977861
1100.0000000001,0.0822456210041713,0.999999999997393,0.120056708519985
1200,0.0932547041473669,0.999999999998899,0.140850298771891
1299.99999999991,0.105107028014711,1.00000000000196,0.16516304459201
1399.99999999982,0.115638210155258,1.0000000000079,0.193599069397849
1499.99999999973,0.127643599645566,1.00000000002986,0.226700093434256
1599.99999999964,0.144675181953752,1.00000000008353,0.263068348972251
1699.99999999955,0.173509325466442,1.00000000017274,0.300698408329475
1799.99999999946,0.219585644221722,1.0000000002718,0.337180475181725
1899.99999999937,0.32797521105922,1.00000000039556,0.370303422298155
1999.99999999928,0.569899408041128,1.00000000049789,0.399842949538374
2099.99999999919,0.992276946462219,1.00000000063347,0.425691414949932
2199.99999999909,1.63985297486307,1.00000000074815,0.448902448719304
2299.999999999,2.60006678991095,1.00000000084091,0.46898044552382
2399.99999999891,3.95391570475241,1.00000000086903,0.486100049630694
2499.99999999882,5.72329430372009,1.00000000093169,0.500766703760898
2599.99999999873,7.90564117199993,1.0000000010231,0.513609541966229
2699.99999999864,10.5359247236486,1.00000000101485,0.52453810267052
2799.99999999855,13.6261435945481,1.00000000104241,0.533314083661304
2899.99999999846,17.1331185373573,1.0000000010832,0.54044095328383
2999.99999999837,20.9936428519018,1.00000000105498,0.546782545911311
3099.99999999828,25.1848998595217,1.00000000103954,0.551829706622944
3199.99999999819,29.6786787270116,1.0000000010465,0.555650673734738
3299.99999999809,34.399690588412,1.00000000100093,0.558261848162259
3399.999999998,39.2677365290207,1.00000000102929,0.560422481427159
3499.99999999791,44.2355852368069,1.00000000099021,0.562010513519001
3599.99999999782,49.27238119203,1.00000000096343,0.563017770102063
3699.99999999773,54.315798420636,1.00000000099394,0.563107571040179
3799.99999999764,59.297255584343,1.00000000098444,0.562086670688098
3899.99999999755,64.1690186865655,1.00000000091378,0.563403909861229
3999.99999999746,68.9080577181867,1.00000000091714,0.561632667863483
4099.99999999738,73.4901413600742,1.00000000089428,0.559293864975402
4199.99999999775,77.8657177743769,1.00000000086813,0.559226307492736
4299.99999999811,82.0007501761211,1.00000000086968,0.557528268489894
4399.99999999848,85.8911227586069,1.00000000082995,0.555656542132226
4499.99999999884,89.5273191598629,1.0000000007984,0.554131382751197
4599.9999999992,92.8952076721603,1.00000000077592,0.552015938317579
4699.99999999957,95.975803055168,1.00000000073258,0.551506970494452
4799.99999999993,98.7662788600404,1.00000000072547,0.548240301965738
4900.00000000029,101.276212442431,1.00000000073147,0.548888050390566
5000.00000000066,103.509857962526,1.00000000069556,0.54673027790788
5100.00000000102,105.463686094124,1.00000000068877,0.542726452252445
5200.00000000139,107.139774960877,1.00000000067454,0.546229938423736
5300.00000000175,108.560995347965,1.00000000067193,0.546103084465386
5400.00000000211,109.727655958355,1.00000000058655,0.534185002735873
5500.00000000248,110.643255330486,1.00000000061055,0.539810512212775
5600.00000000284,111.342336690476,1.00000000062874,0.550748399223108
5700.00000000321,111.838872032487,1.0000000005877,0.532781402205504
5800.00000000357,112.102317124328,1.00000000048162,0.520802642379508
5900.00000000393,112.17374011643,1.0000000006045,0.548129891698948
6000.0000000043,112.127505292162,1.00000000062165,0.554889247781192
6100.00000000466,111.938059880539,1.00000000051951,0.517248248410925
6200.00000000502,111.547678703853,1.00000000042207,0.50556448804057
6300.00000000539,111.024490519343,1.00000000060981,0.550570290703371
6400.00000000575,110.470737506698,1.00000000075679,0.564621484404152
6500.00000000612,109.861522711595,1.00000000052085,0.516881854283929
6600.00000000648,109.104509951988,1.00000000034987,0.475540574078402
6700.00000000684,108.220506435898,1.00000000054761,0.520708424210966
6800.00000000721,107.328876336694,1.0000000007998,0.570331381480527
6900.00000000757,106.475306306805,1.00000000075278,0.557401416280583
7000.00000000793,105.588803770318,1.0000000004655,0.48461096451258
7100.0000000083,104.588984252647,1.00000000031361,0.443934211678086
7200.00000000866,103.512082186606,1.0000000005725,0.506516473599518
7300.00000000903,102.456071350555,1.0000000008334,0.565299580388132
7400.00000000939,101.464670350232,1.00000000083578,0.566364577011845
7500.00000000975,100.496710730769,1.00000000060936,0.505708553750199
7600.00000001012,99.4761086411699,1.00000000032725,0.423996685275484
7700.00000001048,98.3853108358225,1.00000000035247,0.428790475400677
7800.00000001084,97.2764954823948,1.00000000065629,0.510109663189144
7900.00000001121,96.2065160803789,1.00000000084057,0.560216847553446
8000.00000001157,95.1963367449702,1.00000000084849,0.558975799080546
8100.00000001194,94.2218687529377,1.00000000067089,0.513919506842934
8200.0000000123,93.2362044355468,1.00000000041578,0.433771983232215
8300.00000001266,92.2167478120452,1.00000000032008,0.396561604637816
8400.00000001303,91.1781436127161,1.00000000048005,0.439876746936639
8500.00000001339,90.1495788209129,1.00000000072057,0.512005068932834
8600.00000001376,89.1549450012479,1.00000000084987,0.544825645729563
8700.00000001412,88.2028732013536,1.00000000081868,0.545016541698549
8800.00000001448,87.2822891204858,1.00000000069839,0.517323713919778
8900.00000001485,86.371259925187,1.0000000005183,0.464110081665799
9000.00000001521,85.4568972760233,1.00000000042538,0.415038101632865
9100.00000001557,84.5433263541908,1.00000000041817,0.412484759770764
9200.00000001594,83.639234184423,1.00000000051122,0.446163444943391
9300.0000000163,82.7497779340435,1.00000000064462,0.493980518132602
9400.00000001667,81.8783826038693,1.0000000007832,0.52322593870734
9500.00000001703,81.0285054516193,1.00000000080363,0.531865762297988
9600.00000001739,80.2007062561141,1.00000000074672,0.533291414547038
9700.00000001776,79.3907984120629,1.00000000064656,0.507163134884227
9800.00000001812,78.594302902731,1.00000000046679,0.459688552844735
9900.00000001848,77.8128540381213,1.00000000043288,0.431561397973133
10000.0000000188,77.0515210380347,1.00000000046205,0.428470396925421
10100.0000000192,76.3115653526534,1.0000000005203,0.454014055382184
10200.0000000196,75.5891721122885,1.0000000005602,0.473284068141866
10300.0000000199,74.8821747745405,1.0000000005941,0.493359901778543
10400.0000000203,74.1884160562483,1.00000000061138,0.503057546172756
10500.0000000207,73.5052417839151,1.00000000073254,0.513844104384757
10600.000000021,72.8285288382013,1.0000000008232,0.529034570337335
10700.0000000214,72.1593190213214,1.00000000075329,0.535616152340716
10800.0000000218,71.5033146818785,1.0000000005406,0.502655749304813
10900.0000000221,70.8684273205109,1.00000000040564,0.457075233853705
11000.0000000225,70.2622193740256,1.00000000040382,0.432192878001331
11100.0000000229,69.6834024146524,1.00000000053289,0.439973490008797
11200.0000000232,69.1254542308161,1.00000000061872,0.455593951608984
11300.0000000236,68.5812790391116,1.0000000006473,0.482060909664102
11400.0000000239,68.0477902543621,1.00000000059734,0.491010703367225
11500.0000000243,67.5275977078484,1.00000000054781,0.487760013372987
11600.0000000247,67.0232748837789,1.00000000051181,0.489633478925722
11700.000000025,66.5315711847969,1.00000000057521,0.496474222701387
11800.0000000254,66.0425069887752,1.00000000070684,0.511638979861024
11900.0000000258,65.5469429090977,1.00000000078265,0.528419305872242
12000.0000000261,65.0456215366885,1.00000000077869,0.536078424978229
12100.0000000265,64.5477654394242,1.00000000064166,0.523217552152468
12200.0000000269,64.0659176835855,1.00000000054063,0.48920308295138
12300.0000000272,63.6125256710886,1.00000000041048,0.455189730271116
12400.0000000276,63.1939160597282,1.00000000043187,0.440933378576557
12500.0000000279,62.8052933671936,1.00000000052336,0.443831749558793
12600.0000000283,62.4343227063815,1.00000000060766,0.462694823371377
12700.0000000287,62.0704391650198,1.00000000068122,0.476508392278976
12800.000000029,61.7098146126025,1.00000000064326,0.490794071834051
12900.0000000294,61.3531606206865,1.00000000065118,0.499890931112879
13000.0000000298,61.0042737988422,1.0000000005853,0.503253400256725
13100.0000000301,60.66578776951,1.00000000056154,0.50429567462642
13200.0000000305,60.3369044458658,1.00000000051258,0.51047145012725
13300.0000000309,60.0142935034001,1.00000000058514,0.515123304775099
13400.0000000312,59.6920455188648,1.00000000063959,0.512639246850266
13500.0000000316,59.3647978089144,1.00000000071192,0.514937303403803
13600.0000000319,59.0289537609448,1.00000000072077,0.522967330634668
13700.0000000323,58.6847546508089,1.00000000074313,0.536429767321941
13800.0000000327,58.3397477583448,1.00000000073415,0.534775808947991
13900.000000033,58.0060791886604,1.00000000053546,0.513939361152556
14000.0000000334,57.69649504023,1.00000000045691,0.484361404282084
14100.0000000338,57.4175315576232,1.00000000041739,0.46179493203494
14200.0000000341,57.1689675954053,1.00000000049305,0.462986953405257
14300.0000000345,56.9442206151116,1.00000000051147,0.467838059018585
14400.0000000349,56.7355907733185,1.00000000056914,0.467310721130485
14500.0000000352,56.5349735602816,1.00000000060987,0.482667490039389
14600.0000000356,56.3386091694259,1.00000000062632,0.494217914932445
14700.0000000359,56.1486635134199,1.0000000005587,0.491489499340524
14800.0000000363,55.9709092526363,1.00000000053141,0.491879880903793
14900.0000000367,55.7998516020417,1.00000000059498,0.503339325747933
15000.000000037,55.626407140993,1.00000000066472,0.520678023127479
15100.0000000374,55.441820264516,1.00000000069627,0.534661450336139
15200.0000000378,55.2453815816919,1.00000000064346,0.538887352848969
15300.0000000381,55.0414349928991,1.00000000059299,0.544385553518338
15400.0000000385,54.8368774345776,1.00000000055182,0.538817761918284
15500.0000000389,54.6370534044331,1.00000000054519,0.525288823075731
15600.0000000392,54.4444516599766,1.00000000055486,0.515509617609002
15700.0000000396,54.2538833460535,1.00000000061268,0.508242462904156
15800.0000000399,54.0579945043612,1.00000000071583,0.517926624636264
15900.0000000403,53.8522467559259,1.00000000072631,0.531504242239053
16000.0000000407,53.6351264054823,1.00000000073492,0.542540324251089
16100.000000041,53.4147176656029,1.00000000067623,0.543352021180348
16200.0000000414,53.2021377878775,1.00000000060564,0.530526799390075
16300.0000000418,53.0093466622714,1.00000000047158,0.508875064831142
16400.0000000418,52.8445602706,1.0000000004358,0.490055786865141
16500.0000000404,52.7098487431954,1.00000000047244,0.476925256923986
16600.0000000389,52.6016619365743,1.00000000051547,0.474002239958276
16700.0000000375,52.5104630049705,1.00000000059103,0.479285616878402
16800.000000036,52.4273851505681,1.00000000065446,0.485583860034701
16900.0000000346,52.3471804088092,1.000000000633,0.48778931395339
17000.0000000331,52.2702435195667,1.00000000059378,0.489149010608583
17100.0000000317,52.1981617723548,1.00000000060471,0.497586080197543
17200.0000000302,52.1290424839844,1.00000000059019,0.510045699882019
17300.0000000287,52.0628428114731,1.00000000060517,0.520868795930955
17400.0000000273,52.0030528485446,1.00000000055466,0.526322582940961
17500.0000000258,51.952080154973,1.00000000053991,0.526544741945075
17600.0000000244,51.9064363904075,1.00000000059483,0.531761570469048
17700.0000000229,51.8607350561393,1.00000000061838,0.535849418598131
17800.0000000215,51.8045935900894,1.00000000065859,0.5397120364774
17900.00000002,51.7326790365084,1.0000000006759,0.545285550647621
18000.0000000186,51.6415083196424,1.00000000068673,0.54747938470494
18100.0000000171,51.5330594392789,1.00000000066548,0.54612516232796
18200.0000000156,51.4118899658181,1.0000000006642,0.556266614785272
18300.0000000142,51.2844343905522,1.00000000063175,0.566813828590616
18400.0000000127,51.1560051135285,1.00000000057075,0.561687607876916
18500.0000000113,51.0298770611644,1.00000000053334,0.553248349551773
18600.0000000098,50.9092693311477,1.00000000054714,0.552485598463796
18700.0000000084,50.7927881445619,1.00000000055985,0.548472448463189
18800.0000000069,50.6785439168275,1.00000000060546,0.53899061115546
18900.0000000055,50.5636932884485,1.00000000064232,0.535814560767838
19000.000000004,50.4447999242423,1.0000000006876,0.542367088689446
19100.0000000026,50.3196825605341,1.00000000072982,0.551202979385098
19200.0000000011,50.1860688882461,1.00000000072544,0.557916847259256
19299.9999999996,50.0475960074874,1.00000000065444,0.559966145901042
19399.9999999982,49.9126049002636,1.0000000005843,0.553126914220274
19499.9999999967,49.7914850878958,1.00000000053874,0.539349343069882
19599.9999999953,49.6918863791678,1.00000000050926,0.525799447203016
19699.9999999938,49.6177181821051,1.00000000050261,0.510442127040285
19799.9999999924,49.5684182757735,1.00000000048889,0.500889196527628
19899.9999999909,49.5395878849239,1.00000000053525,0.4947006026605
19999.9999999895,49.524316436387,1.00000000056571,0.501364813194233
20099.999999988,49.5185301215618,1.00000000058731,0.505289322475312
20199.9999999865,49.5204547431976,1.00000000057763,0.502486297649454
20299.9999999851,49.5262124244823,1.00000000062028,0.49752148429284
20399.9999999836,49.5321061226534,1.00000000061713,0.500794787477942
20499.9999999822,49.5406229061349,1.00000000058911,0.501609006791637
20599.9999999807,49.5565363335397,1.00000000056092,0.496760561905226
20699.9999999793,49.5821106525202,1.00000000055638,0.499579264953307
20799.9999999778,49.6137365219585,1.00000000057333,0.515608379488419
20899.9999999764,49.6429955854958,1.00000000063035,0.536720173749523
20999.9999999749,49.6634510341942,1.00000000066446,0.546672612638191
21099.9999999734,49.6727258321336,1.00000000067739,0.55578727846394
21199.999999972,49.6733022134247,1.00000000064073,0.561257418643212
21299.9999999705,49.6696092609076,1.00000000061353,0.560713549880018
21399.9999999691,49.6652002289369,1.00000000057708,0.558426840597615
21499.9999999676,49.6605019496782,1.00000000059708,0.558464827879149
21599.9999999662,49.6548460972925,1.0000000005838,0.565965122289325
21699.9999999647,49.6474809626313,1.00000000057256,0.573942179072066
21799.9999999633,49.6378966818588,1.0000000005913,0.577423183826712
21899.9999999618,49.6232179229846,1.00000000060341,0.57708000052176
21999.9999999603,49.5989492042832,1.00000000063549,0.573996189898712
22099.9999999589,49.5643367489666,1.00000000063379,0.57450326721633
22199.9999999574,49.5198576822073,1.00000000062465,0.569745285349124
22299.999999956,49.4659419593144,1.00000000062561,0.558681583737835
22399.9999999545,49.4030201269641,1.00000000065768,0.550592233002118
22499.9999999531,49.3312037181707,1.00000000065706,0.557120203420726
22599.9999999516,49.2490795621368,1.00000000067891,0.571283393704383
22699.9999999502,49.1580094017456,1.00000000069139,0.580025381702292
22799.9999999487,49.0608101037324,1.0000000006413,0.577945739391111
22899.9999999473,48.9619414674294,1.00000000058525,0.574840173084155
22999.9999999458,48.8648757127892,1.00000000057144,0.573299414385804
23099.9999999443,48.7717218381801,1.00000000056491,0.574957633501658
23199.9999999429,48.6829230147107,1.00000000054902,0.578733869140811
23299.9999999414,48.5969965395036,1.00000000057002,0.57562991553496
23399.99999994,48.512670895473,1.0000000005959,0.570628799131634
23499.9999999385,48.4297696294611,1.00000000063596,0.5726156746506
23599.9999999371,48.346817923588,1.00000000065218,0.57057395371147
23699.9999999356,48.2623188051295,1.00000000064932,0.567480333267786
23799.9999999342,48.174523840412,1.0000000007089,0.562451054927697
23899.9999999327,48.0832291695079,1.00000000068663,0.558946315525476
23999.9999999312,47.9882731706446,1.00000000070167,0.560081612613698
24099.9999999298,47.8903618973123,1.00000000067386,0.555968097971413
24199.9999999283,47.7933814292674,1.00000000060862,0.556827845764875
24299.9999999269,47.7037169709153,1.00000000059984,0.555960389597644
24399.9999999254,47.6272740719604,1.00000000054152,0.55119368192353
24499.999999924,47.5685270228135,1.00000000049785,0.538134750647791
24599.9999999225,47.5298694071565,1.00000000047662,0.531982081180778
24699.9999999211,47.5113756423858,1.00000000051363,0.528984625046972
24799.9999999196,47.5119571452644,1.00000000051633,0.51974491852413
24899.9999999181,47.5273685700342,1.00000000055785,0.515433777505644
24999.9999999167,47.5539362217195,1.00000000059996,0.515695665889301
25099.9999999152,47.5898852645169,1.00000000056553,0.514230244907384
25199.9999999138,47.6334212986362,1.00000000060634,0.514760200596684
25299.9999999123,47.6798037497953,1.00000000062398,0.516934538018389
25399.9999999109,47.7279301844098,1.00000000062791,0.519525535558844
25499.9999999094,47.7806776914544,1.00000000058675,0.51942870231989
25599.999999908,47.8402089825653,1.00000000058564,0.511948734133706
25699.9999999065,47.9066176626882,1.00000000056443,0.508359623781674
25799.9999999051,47.9767296263149,1.00000000060511,0.514138678042669
25899.9999999036,48.0463418978537,1.00000000062061,0.524057955711052
25999.9999999021,48.1121893913993,1.00000000063367,0.533088444559855
26099.9999999007,48.1732931914452,1.00000000064889,0.545631834842426
26199.9999998992,48.2311250326248,1.00000000062898,0.555759501367966
26299.9999998978,48.2847267187007,1.0000000006237,0.559364206579267
26399.9999998963,48.3334635305791,1.00000000060991,0.562860017432365
26499.9999998949,48.3773371253557,1.0000000006632,0.571056523163918
26599.9999998934,48.4161906007282,1.0000000006405,0.573384347973912
26699.999999892,48.4500206272717,1.00000000063463,0.578236112433065
26799.9999998905,48.4800354599195,1.00000000060201,0.581047383657288
26899.999999889,48.505884705758,1.00000000060485,0.581312360794619
26999.9999998876,48.5267465504079,1.00000000063443,0.581918817607653
27099.9999998861,48.5429399056035,1.00000000064549,0.580692569484045
27199.9999998847,48.5542887044905,1.00000000064986,0.581353947388266
27299.9999998832,48.5606862094376,1.0000000006504,0.578381297462621
27399.9999998818,48.5628033627517,1.00000000060628,0.58041705310907
27499.9999998803,48.5620774991464,1.00000000060986,0.586285046181462
27599.9999998789,48.5611313648832,1.0000000006127,0.58484198803625
27699.9999998774,48.5605649308221,1.00000000059699,0.581727964158684
27799.9999998759,48.5583241324111,1.00000000060426,0.582280417660446
27899.9999998745,48.5521127083921,1.00000000063957,0.58184481715803
27999.999999873,48.5409541272357,1.00000000061131,0.585884906265546
28099.9999998716,48.525941749987,1.00000000062446,0.580926966022665
28199.9999998701,48.5076120945861,1.00000000063003,0.577039491978344
28299.9999998687,48.4856839420484,1.00000000062821,0.577880495821777
28399.9999998672,48.4601016213038,1.00000000062877,0.57567233362401
28499.9999998658,48.4302610005871,1.00000000064833,0.580223472651717
28599.9999998643,48.3950026551384,1.00000000068048,0.584758610302733
28699.9999998629,48.3548050330204,1.00000000063693,0.584099982271965
28799.9999998614,48.3109511419445,1.00000000063015,0.590518414896685
28899.9999998599,48.2637277361946,1.00000000063937,0.594370224001956
28999.9999998585,48.2155955602446,1.00000000058779,0.59023928437965
