Time,AGPnorm,Energy,Entropy
0,0,1,-1.17725924015198e-17
99.9999999999986,2.92815436306572e-05,1.00000000000097,0.00121175903173446
199.999999999993,0.00260910521026175,0.999999999999062,0.001946455736901
300,0.00645765511327407,1.00000000000109,0.00345494729115884
400.000000000022,0.00893706829858987,0.999999999999928,0.00584085640539806
500.000000000045,0.0110017978849539,0.999999999999602,0.00792494483461272
600.000000000068,0.0156717969293959,1.00000000000125,0.0109546902127154
700.000000000091,0.0193925931099239,0.999999999999022,0.0140388856222352
800.000000000113,0.0247120891650612,1.00000000000088,0.0173524610473192
900.000000000136,0.0309969699333722,1.00000000000032,0.0212172583453734
1000.00000000016,0.0362415598240916,0.999999999999197,0.0250363430880055
1100.0000000001,0.0430686142052275,1.00000000000143,0.0293094069845095
1200,0.0503867062067253,0.999999999999167,0.0338074451896223
1299.99999999991,0.0579762921798132,1.00000000000052,0.0384910532368088
1399.99999999982,0.0663835587746052,1.00000000000074,0.0435265639877691
1499.99999999973,0.074429057297721,0.999999999998882,0.0487023459665757
1599.99999999964,0.0832057711792679,1.00000000000146,0.0541902009737787
1699.99999999955,0.09285997356658,0.999999999999474,0.0599524304658411
1799.99999999946,0.10225796198633,1.00000000000006,0.0659961702652319
1899.99999999937,0.11198872356523,1.00000000000112,0.0722877999372384
1999.99999999928,0.122013069692647,0.99999999999873,0.0788954618608758
2099.99999999919,0.132082081130674,1.00000000000132,0.0858420190805689
2199.99999999909,0.14304278360408,0.999999999999865,0.093137383610557
2299.999999999,0.153537056853261,0.999999999999615,0.100864740795729
2399.99999999891,0.164001683292826,1.00000000000137,0.108941323471006
2499.99999999882,0.1749421050338,0.999999999998836,0.117537386812852
2599.99999999873,0.185707327575932,1.00000000000103,0.126742866095808
2699.99999999864,0.196929305225039,1.00000000000045,0.136558230527309
2799.99999999855,0.20779752006065,0.999999999999641,0.147250711473993
2899.99999999846,0.218475221175751,1.00000000000266,0.158818111700893
2999.99999999837,0.229216290999751,1.00000000000252,0.171587276016538
3099.99999999828,0.240231910808276,1.00000000000922,0.185668153190407
3199.99999999819,0.251408853101763,1.00000000001881,0.20089878501699
3299.99999999809,0.260935033335409,1.00000000003334,0.217176071942477
3399.999999998,0.27498110885247,1.00000000006042,0.233966025031867
3499.99999999791,0.28652949524291,1.00000000008772,0.251030100391168
3599.99999999782,0.304529462404333,1.00000000012488,0.268056013502795
3699.99999999773,0.33423126589273,1.0000000001678,0.284783988710994
3799.99999999764,0.366926397657876,1.00000000020976,0.301159097097913
3899.99999999755,0.431847947966509,1.00000000025444,0.31720514615345
3999.99999999746,0.519688328812632,1.00000000031966,0.332572883790504
4099.99999999738,0.647109456159386,1.00000000036761,0.347809108378459
4199.99999999775,0.83957112356088,1.000000000422,0.362168518112775
4299.99999999811,1.0871890201713,1.00000000045756,0.376233753800727
4399.99999999848,1.42900782496669,1.00000000050581,0.389720384767928
4499.99999999884,1.87267721192621,1.00000000057193,0.402324463486245
4599.9999999992,2.42813247040751,1.00000000057779,0.414939275328151
4699.99999999957,3.12741654990639,1.00000000063658,0.426528948551089
4799.99999999993,3.97335686427242,1.00000000068873,0.437556094570048
4900.00000000029,4.98473730873276,1.0000000007144,0.448409438939489
5000.00000000066,6.18174856913715,1.00000000073313,0.458243105726196
5100.00000000102,7.57034090592035,1.00000000074584,0.467887143017757
5200.00000000139,9.15838607964149,1.00000000078927,0.476898132387609
5300.00000000175,10.967808308982,1.00000000083643,0.48494317530162
5400.00000000211,12.9899999119804,1.00000000083213,0.493380064227052
5500.00000000248,15.2354714787621,1.00000000085203,0.500623631625123
5600.00000000284,17.7209768375762,1.0000000008782,0.507512553053528
5700.00000000321,20.4160637648617,1.00000000087715,0.514315643871093
5800.00000000357,23.3519675714924,1.0000000008788,0.520125249280371
5900.00000000393,26.511506411189,1.00000000091021,0.526031596421225
6000.0000000043,29.8749551173104,1.00000000090691,0.531379684964427
6100.00000000466,33.4780341097235,1.00000000092028,0.536029976045638
6200.00000000502,37.2633101959973,1.0000000009176,0.541049961226094
6300.00000000539,41.2519472878779,1.00000000092613,0.545083826813938
6400.00000000575,45.4413611143654,1.00000000092855,0.549075307979458
6500.00000000612,49.7777894387331,1.00000000092618,0.552966591755673
6600.00000000648,54.3085370567868,1.00000000091394,0.556006096728392
6700.00000000684,58.9736297022157,1.00000000090862,0.559529614323046
6800.00000000721,63.769776899456,1.00000000092428,0.562236672545198
6900.00000000757,68.7183522016043,1.00000000093734,0.564648000934846
7000.00000000793,73.7436247133218,1.00000000093126,0.56749120036266
7100.0000000083,78.8906989197498,1.00000000087779,0.569486066898309
7200.00000000866,84.1172033423157,1.00000000092251,0.571587419036977
7300.00000000903,89.3926157235005,1.00000000091351,0.573653782993504
7400.00000000939,94.7574112451454,1.0000000008818,0.574906137596564
7500.00000000975,100.133102908357,1.00000000089632,0.576746958611851
7600.00000001012,105.550414371026,1.00000000087169,0.577809416209652
7700.00000001048,110.991899401364,1.00000000085874,0.579060472235737
7800.00000001084,116.408953238343,1.0000000008594,0.580401564727262
7900.00000001121,121.849268384712,1.00000000087204,0.580642047160994
8000.00000001157,127.246394353952,1.00000000086892,0.58198859459549
8100.00000001194,132.61275853338,1.00000000085354,0.582584806442466
8200.0000000123,137.954064817266,1.00000000082924,0.582994458898115
8300.00000001266,143.213699228614,1.00000000083251,0.583879378533965
8400.00000001303,148.437358744565,1.00000000081342,0.583625556318096
8500.00000001339,153.577292163109,1.00000000080993,0.584541687645669
8600.00000001376,158.630330968498,1.00000000077919,0.5845166022194
8700.00000001412,163.61583612933,1.00000000077912,0.584716443044732
8800.00000001448,168.481214197661,1.00000000076753,0.584558548885294
8900.00000001485,173.262380899833,1.00000000078019,0.584909920164368
9000.00000001521,177.932723826266,1.0000000007362,0.584443714252162
9100.00000001557,182.475955979531,1.00000000076483,0.585003784255323
9200.00000001594,186.922581187691,1.00000000072523,0.584005152243168
9300.0000000163,191.223270960056,1.00000000071467,0.584332807271202
9400.00000001667,195.409729577054,1.00000000069285,0.584566993445542
9500.00000001703,199.465073461126,1.00000000069373,0.583015002880367
9600.00000001739,203.371909103071,1.00000000069964,0.584343055902712
9700.00000001776,207.160440361228,1.00000000069409,0.582262067840311
9800.00000001812,210.793304417747,1.00000000068737,0.5831132456198
9900.00000001848,214.292118092005,1.00000000067585,0.582223150061171
10000.0000000188,217.651470985871,1.00000000067064,0.581615465452269
10100.0000000192,220.854091501687,1.00000000066123,0.58234837153642
10200.0000000196,223.927192408784,1.00000000065139,0.581115249117187
10300.0000000199,226.84581480041,1.00000000065599,0.581279724291923
10400.0000000203,229.620603366985,1.00000000062928,0.580493171383812
10500.0000000207,232.257996292982,1.00000000063764,0.580481489942859
10600.000000021,234.739892364777,1.00000000063183,0.579713213829643
10700.0000000214,237.088638540514,1.0000000006007,0.578998239727996
10800.0000000218,239.290491978939,1.00000000063195,0.579439842736949
10900.0000000221,241.349797751358,1.00000000059241,0.577917534818571
11000.0000000225,243.275821591223,1.00000000058368,0.578360181535639
11100.0000000229,245.055538099265,1.00000000056705,0.578200915001401
11200.0000000232,246.707482457336,1.00000000056814,0.576563277132742
11300.0000000236,248.221801199707,1.00000000057243,0.578101130846039
11400.0000000239,249.604063474345,1.0000000005599,0.57688072290894
11500.0000000243,250.861866499486,1.00000000054634,0.574891430397424
11600.0000000247,251.984085950097,1.00000000056062,0.577898424853044
11700.000000025,252.992597748446,1.00000000054754,0.576488305888616
11800.0000000254,253.877588208752,1.00000000053108,0.573395039104506
11900.0000000258,254.638364814891,1.00000000051427,0.57529481167985
12000.0000000261,255.292847325448,1.00000000052182,0.576940890511915
12100.0000000265,255.831905325618,1.00000000051189,0.575682046881082
12200.0000000269,256.26780228148,1.00000000049018,0.572277345740256
12300.0000000272,256.5946902934,1.0000000004916,0.57177668971386
12400.0000000276,256.817824576814,1.00000000051777,0.577810889554774
12500.0000000279,256.959072561971,1.00000000050718,0.576139374998119
12600.0000000283,257.00450509085,1.00000000047686,0.567454338598993
12700.0000000287,256.954192876239,1.0000000004626,0.56740755311892
12800.000000029,256.819933042182,1.00000000049999,0.577779234639501
12900.0000000294,256.615098361476,1.00000000050991,0.576920757369248
13000.0000000298,256.344602931169,1.00000000047007,0.566269908711389
13100.0000000301,255.987805753561,1.00000000043555,0.560244899372766
13200.0000000305,255.557087222449,1.00000000048014,0.570551117590854
13300.0000000309,255.074669790376,1.00000000052432,0.5793707078855
13400.0000000312,254.544743423129,1.00000000050664,0.570243643703327
13500.0000000316,253.95935870923,1.00000000044393,0.556924878871877
13600.0000000319,253.300442940181,1.0000000004304,0.554262505867633
13700.0000000323,252.590352073264,1.00000000051588,0.574947005275023
13800.0000000327,251.856696396439,1.00000000057758,0.57922485657108
13900.000000033,251.093148577334,1.00000000053537,0.56433196170179
14000.0000000334,250.284154239603,1.0000000004198,0.545710467504823
14100.0000000338,249.413154599838,1.00000000042048,0.547002785374637
14200.0000000341,248.509402342138,1.00000000057786,0.576918838483666
14300.0000000345,247.599241463405,1.00000000060249,0.57941168948336
14400.0000000349,246.676928480346,1.00000000055039,0.561571926428361
14500.0000000352,245.721866517484,1.00000000041568,0.538633565498471
14600.0000000356,244.715610111912,1.0000000003886,0.533316308690472
14700.0000000359,243.680842323624,1.00000000059061,0.568291528516115
14800.0000000363,242.648058289856,1.00000000062767,0.58167099346494
14900.0000000367,241.619749119189,1.00000000061081,0.568425675361499
15000.000000037,240.580728495588,1.00000000043545,0.538930666215321
15100.0000000374,239.503923977805,1.00000000039274,0.523032862978262
15200.0000000378,238.393550988156,1.00000000045847,0.537034334026564
15300.0000000381,237.277910097629,1.00000000062347,0.575238525444563
15400.0000000385,236.174564511743,1.00000000067434,0.581692545147067
15500.0000000389,235.083790023414,1.00000000057919,0.554772927857641
15600.0000000392,233.98186817964,1.00000000043034,0.527956674578682
15700.0000000396,232.851897699995,1.00000000037683,0.515180492709635
15800.0000000399,231.699167010553,1.00000000047329,0.530812967081595
15900.0000000403,230.543130750115,1.00000000061802,0.569905511122044
16000.0000000407,229.406550988701,1.00000000070026,0.582919153852759
16100.000000041,228.286746048559,1.00000000060559,0.555500564362931
16200.0000000414,227.164934188334,1.00000000046673,0.525007210099499
16300.0000000418,226.028955587896,1.00000000040507,0.512508927761939
16400.0000000418,224.873045845072,1.00000000043337,0.517717132502819
16500.0000000404,223.712419368429,1.00000000052947,0.544886991449237
16600.0000000389,222.563020092597,1.00000000066305,0.575741217946061
16700.0000000375,221.432474858992,1.00000000069044,0.572939995000829
16800.000000036,220.316418740571,1.00000000056973,0.538643530440501
16900.0000000346,219.197742099196,1.0000000004582,0.514086448296438
17000.0000000331,218.071341601419,1.00000000042287,0.511966275665617
17100.0000000317,216.936181433894,1.00000000045902,0.518422178063182
17200.0000000302,215.799352293041,1.00000000052744,0.537174248212637
17300.0000000287,214.673818763897,1.00000000063713,0.563427752339639
17400.0000000273,213.564659506348,1.00000000067619,0.56659335113578
17500.0000000258,212.469209682723,1.00000000061507,0.542574587962946
17600.0000000244,211.380262881163,1.00000000049332,0.516766698634747
17700.0000000229,210.289563418928,1.00000000044289,0.510424513542956
17800.0000000215,209.197805805911,1.00000000046587,0.517008498165907
17900.00000002,208.105090274462,1.00000000048927,0.524758129433781
18000.0000000186,207.017880849042,1.00000000056786,0.536734152192108
18100.0000000171,205.941683410373,1.00000000059708,0.55063296785808
18200.0000000156,204.877776980032,1.0000000006217,0.554578343581828
18300.0000000142,203.826024750107,1.00000000061027,0.537530485857842
18400.0000000127,202.781600493536,1.00000000050226,0.518104175116757
18500.0000000113,201.741210204602,1.00000000045453,0.511787828499317
18600.0000000098,200.70443162891,1.00000000047857,0.520295168600901
18700.0000000084,199.670898517234,1.00000000047723,0.524942734024156
18800.0000000069,198.643720960747,1.00000000052777,0.526975837406503
18900.0000000055,197.623656606339,1.00000000054922,0.530076134201956
19000.000000004,196.613046830049,1.00000000058956,0.541427653618229
19100.0000000026,195.613251358055,1.00000000061254,0.542814265661713
19200.0000000011,194.622708347618,1.00000000057349,0.533416561737584
19299.9999999996,193.640478994282,1.00000000051919,0.52206260704452
19399.9999999982,192.665394714833,1.00000000049415,0.518425039111536
19499.9999999967,191.697136132736,1.0000000005015,0.524442271096519
19599.9999999953,190.735834223528,1.00000000048492,0.526952349454607
19699.9999999938,189.780610165937,1.00000000049449,0.523749886957939
19799.9999999924,188.833040980249,1.00000000050634,0.521768997298144
19899.9999999909,187.893620522888,1.0000000005212,0.52356017631142
19999.9999999895,186.962678048109,1.00000000056973,0.534738162591822
20099.999999988,186.040915299686,1.00000000055566,0.539275529158791
20199.9999999865,185.12758366205,1.00000000055695,0.53630824115633
20299.9999999851,184.222744810045,1.00000000050288,0.529242915501213
20399.9999999836,183.326369925665,1.00000000052221,0.527912370128289
20499.9999999822,182.438523696819,1.00000000049967,0.531764856258557
20599.9999999807,181.559244862801,1.00000000047471,0.529656991931145
20699.9999999793,180.687775277686,1.00000000046556,0.519851527890862
20799.9999999778,179.824653883058,1.00000000046864,0.515309036939144
20899.9999999764,178.969941500028,1.0000000004898,0.517355245899765
20999.9999999749,178.123648889691,1.0000000005457,0.52466358140495
21099.9999999734,177.285777201599,1.00000000056088,0.532931288660084
21199.999999972,176.455806527752,1.00000000054482,0.540708654733857
21299.9999999705,175.633700241063,1.0000000005375,0.540303460372084
21399.9999999691,174.819752104344,1.00000000052568,0.534613214365284
21499.9999999676,174.013724123302,1.00000000052139,0.538910987902816
21599.9999999662,173.216215505164,1.00000000053749,0.53855024836221
21699.9999999647,172.427651443322,1.00000000048622,0.532004781285742
21799.9999999633,171.649117750578,1.00000000044036,0.520111639960124
21899.9999999618,170.880770931837,1.00000000043037,0.508074188750038
21999.9999999603,170.122401069521,1.00000000047958,0.507626841815344
22099.9999999589,169.373135485234,1.00000000053567,0.515347402004201
22199.9999999574,168.63187881671,1.00000000056355,0.525034437915883
22299.999999956,167.897482828965,1.00000000054136,0.53077916723364
22399.9999999545,167.169868675855,1.00000000055278,0.538999975217236
22499.9999999531,166.448994145492,1.00000000052486,0.542296347386146
22599.9999999516,165.735089141311,1.0000000005338,0.539535153145248
22699.9999999502,165.027708949491,1.00000000055313,0.541378088248346
22799.9999999487,164.326840761167,1.0000000005944,0.547371903706606
22899.9999999473,163.633025027519,1.00000000055556,0.539471494916593
22999.9999999458,162.949053437269,1.00000000046731,0.522919660934406
23099.9999999443,162.277438830663,1.0000000004151,0.508608895522064
23199.9999999429,161.618768937175,1.00000000038493,0.496745601611856
23299.9999999414,160.972108885675,1.00000000049032,0.500327970170213
23399.99999994,160.334015391103,1.00000000054029,0.512715966633054
23499.9999999385,159.702302955523,1.00000000057056,0.522577417783161
23599.9999999371,159.075374334497,1.00000000055707,0.52407016578805
23699.9999999356,158.453635399401,1.00000000053602,0.524980341416359
23799.9999999342,157.837356801044,1.0000000005328,0.537375181871774
23899.9999999327,157.226003856991,1.00000000052233,0.542995069009065
23999.9999999312,156.619361297646,1.00000000055616,0.542374018919334
24099.9999999298,156.016157299091,1.0000000006041,0.549028084786751
24199.9999999283,155.416604375691,1.00000000058009,0.548716413185327
24299.9999999269,154.823356229436,1.00000000054039,0.535713087417845
24399.9999999254,154.239623387492,1.00000000046491,0.519082961350433
24499.999999924,153.669106351552,1.00000000040929,0.504509525113283
24599.9999999225,153.113644847645,1.00000000040888,0.497328748702697
24699.9999999211,152.571565357646,1.00000000044225,0.495302382842926
24799.9999999196,152.039885124877,1.00000000051345,0.501154152403963
24899.9999999181,151.51415641115,1.00000000057095,0.511951818907855
24999.9999999167,150.992467737423,1.00000000056747,0.518378912138472
25099.9999999152,150.474010483202,1.00000000056684,0.517343027905237
25199.9999999138,149.959134340739,1.000000000549,0.517804555490325
25299.9999999123,149.447639016225,1.00000000053824,0.529668226338023
25399.9999999109,148.938160566508,1.00000000056552,0.542696317584674
25499.9999999094,148.430384581016,1.00000000054997,0.545363545287494
25599.999999908,147.924129743537,1.00000000057299,0.543934134110245
25699.9999999065,147.420074691068,1.00000000058148,0.542922024692862
25799.9999999051,146.919682653635,1.00000000057072,0.540218305230957
25899.9999999036,146.425232869325,1.00000000052056,0.52902543833586
25999.9999999021,145.940590175593,1.00000000047337,0.51413718197577
26099.9999999007,145.469127355102,1.00000000043508,0.504687673551458
26199.9999998992,145.011385134002,1.00000000042571,0.503394496106526
26299.9999998978,144.567072835642,1.00000000047012,0.501454591878387
26399.9999998963,144.133161036669,1.00000000049433,0.500284904081654
26499.9999998949,143.708045781723,1.00000000051991,0.502188879860397
26599.9999998934,143.288377978125,1.00000000056141,0.508905665640007
26699.999999892,142.871786442795,1.0000000005587,0.514460407871052
26799.9999998905,142.457329373558,1.00000000055268,0.520048932471521
26899.999999889,142.043300730982,1.00000000056936,0.523167585451137
26999.9999998876,141.629237880102,1.00000000055311,0.528649389150644
27099.9999998861,141.215207414343,1.00000000056008,0.536103731861094
27199.9999998847,140.800507852953,1.00000000055429,0.543046041775775
27299.9999998832,140.386213072885,1.00000000055379,0.543275424183542
27399.9999998818,139.972920577467,1.00000000054532,0.539060715981892
27499.9999998803,139.562695958385,1.00000000055598,0.533358701752591
27599.9999998789,139.157154442414,1.00000000053881,0.533111330961812
27699.9999998774,138.756951618566,1.00000000051988,0.529141666739037
27799.9999998759,138.364470037434,1.00000000050764,0.522389248765695
27899.9999998745,137.981203885648,1.00000000047725,0.516282075923671
27999.999999873,137.608394644502,1.00000000044783,0.511625916729631
28099.9999998716,137.248094706966,1.00000000044436,0.508976173434666
28199.9999998701,136.899058631287,1.00000000046136,0.507551335866622
28299.9999998687,136.561193314565,1.00000000048113,0.502672779091925
28399.9999998672,136.231919691862,1.0000000005025,0.505644634021971
28499.9999998658,135.909158726059,1.0000000005279,0.511419927510789
28599.9999998643,135.5903094435,1.00000000053897,0.518422971416281
28699.9999998629,135.272183500275,1.00000000056753,0.525248312527885
28799.9999998614,134.953214013301,1.00000000055088,0.533898079967969
28899.9999998599,134.632153581582,1.00000000056037,0.533874915232719
