Time,AGPnorm,Energy,Entropy
0,0,1,1.36145626412132e-18
99.9999999999986,0.0019824233191771,0.999999999999095,0.00688016470533898
199.999999999993,0.00579888019718557,1.00000000000084,0.0205040400880067
300,0.0124263916232934,0.999999999998541,0.0400054642703832
400.000000000022,0.0200724188538539,1.0000000000016,0.0640171103778443
500.000000000045,0.029088974532396,0.999999999998349,0.0927988133802303
600.000000000068,0.0385990191503208,1.00000000000238,0.127067042190945
700.000000000091,0.048348493097168,1.0000000000024,0.168460158235566
800.000000000113,0.0601874040086325,1.00000000002335,0.219038357789517
900.000000000136,0.077488299621121,1.00000000008071,0.279143135680304
1000.00000000016,0.142487690217176,1.00000000019133,0.34300520226234
1100.0000000001,0.338763836216754,1.00000000033329,0.40216847186195
1200,0.854396519828742,1.00000000045918,0.450053886233859
1299.99999999991,1.8883457116969,1.0000000005896,0.486554796890919
1399.99999999982,3.64437166450672,1.00000000072128,0.511144895378509
1499.99999999973,6.21226252756249,1.0000000007334,0.528069093342192
1599.99999999964,9.64491272959033,1.00000000083683,0.537156514179095
1699.99999999955,13.8216463494016,1.00000000079581,0.541740546848973
1799.99999999946,18.6700574735927,1.00000000080985,0.542543061647788
1899.99999999937,23.9398920620646,1.00000000081718,0.540969938462849
1999.99999999928,29.5202515739756,1.00000000076215,0.536301157832075
2099.99999999919,35.1392359911816,1.00000000073515,0.532021140191552
2199.99999999909,40.7034092429211,1.00000000067504,0.524574510275405
2299.999999999,45.9978001254597,1.00000000066699,0.517970468811531
2399.99999999891,50.9599181156173,1.00000000065932,0.514602482123255
2499.99999999882,55.4610828944869,1.00000000061097,0.500540808346724
2599.99999999873,59.4608808027599,1.00000000058078,0.497032998830152
2699.99999999864,62.9327548748588,1.0000000006007,0.503683965568066
2799.99999999855,65.8498420144043,1.00000000057356,0.484782356874873
2899.99999999846,68.1844469035079,1.00000000051191,0.46226103445762
2999.99999999837,69.9580166658653,1.00000000052729,0.48647196154163
3099.99999999828,71.3221634822046,1.00000000052148,0.509240971883617
3199.99999999819,72.2583766897666,1.00000000044569,0.46984033620896
3299.99999999809,72.6699629349927,1.00000000035929,0.4146321116556
3399.999999998,72.608154165034,1.00000000041601,0.45351737663407
3499.99999999791,72.3391465783741,1.00000000053314,0.523287417382593
3599.99999999782,72.0168206221775,1.0000000005943,0.529472756666502
3699.99999999773,71.527564738704,1.00000000039741,0.442718498712254
3799.99999999764,70.6835460731297,1.00000000019416,0.345679232696932
3899.99999999755,69.5320466346877,1.00000000029776,0.392809060201898
3999.99999999746,68.318209558428,1.00000000058171,0.496102580992175
4099.99999999738,67.2145178275227,1.00000000066137,0.549187071561381
4199.99999999775,66.2586391665315,1.000000000651,0.542420249464902
4299.99999999811,65.3265358949555,1.00000000048411,0.457043560173828
4399.99999999848,64.2479921251677,1.00000000022234,0.321381776993347
4499.99999999884,63.0039034883114,1.00000000014277,0.271525817692202
4599.9999999992,61.7072116519902,1.00000000032054,0.373012405920997
4699.99999999957,60.4385954031209,1.00000000056939,0.475594571372514
4799.99999999993,59.2406847619215,1.00000000065874,0.511644970115739
4900.00000000029,58.1567584588961,1.00000000067166,0.530671100803821
5000.00000000066,57.1930429426194,1.00000000064066,0.543768583400585
5100.00000000102,56.2925961582154,1.00000000051711,0.501692124176474
5200.00000000139,55.3669655431501,1.00000000033237,0.394808858537346
5300.00000000175,54.3903046874835,1.0000000001987,0.280332462152786
5400.00000000211,53.4278048359988,1.00000000016364,0.245328102946086
5500.00000000248,52.5444135013906,1.00000000026183,0.309387553312331
5600.00000000284,51.7216492413689,1.00000000043657,0.416271890885016
5700.00000000321,50.9014803362142,1.0000000005922,0.503888543578938
5800.00000000357,50.0709584325187,1.00000000055553,0.516324582671098
5900.00000000393,49.2482754887358,1.0000000004908,0.469834413261497
6000.0000000043,48.4412152498427,1.00000000050163,0.453459188156999
6100.00000000466,47.6531458219862,1.00000000063999,0.50696857952806
6200.00000000502,46.9029109417069,1.00000000070552,0.552803498683438
6300.00000000539,46.1986045078761,1.00000000062706,0.550730538258091
6400.00000000575,45.5185764381606,1.00000000049315,0.495219002937597
6500.00000000612,44.8424654834845,1.00000000027139,0.397338922215453
6600.00000000648,44.2045947038928,1.0000000001387,0.291022293731206
6700.00000000684,43.6860128719024,1.00000000013374,0.235260034414073
6800.00000000721,43.3396215433476,1.00000000021899,0.25573401812751
6900.00000000757,43.1510969224926,1.00000000030908,0.324148190282874
7000.00000000793,43.0477690205302,1.00000000043081,0.405775915213194
7100.0000000083,42.9204351428044,1.00000000056051,0.469601038332588
7200.00000000866,42.6897161083636,1.00000000063759,0.501681058325081
7300.00000000903,42.3459933470137,1.00000000068882,0.522506402085887
7400.00000000939,41.9257268374344,1.00000000057372,0.539468219266035
7500.00000000975,41.483400439698,1.00000000044314,0.51565916212777
7600.00000001012,41.0625157321501,1.00000000032049,0.455581127734713
7700.00000001048,40.6797093393455,1.00000000031937,0.42732589425596
7800.00000001084,40.3079490076533,1.00000000042655,0.448828851654565
7900.00000001121,39.9090583349012,1.00000000053802,0.481455333773709
8000.00000001157,39.4743176649664,1.0000000005947,0.494560706082692
8100.00000001194,39.0128464700085,1.00000000066913,0.504087769255103
8200.0000000123,38.5432210020456,1.00000000072273,0.533024593154558
8300.00000001266,38.085864444507,1.00000000070033,0.558172041847401
8400.00000001303,37.6481523235531,1.00000000061362,0.555366442713284
8500.00000001339,37.2210047094236,1.00000000047609,0.519468706332313
8600.00000001376,36.7978089889127,1.00000000035349,0.453779170225316
8700.00000001412,36.4028111882627,1.00000000020528,0.371555334310699
8800.00000001448,36.0999168761668,1.00000000012864,0.299317071831761
8900.00000001485,35.9641531464722,1.00000000012558,0.249552300004332
9000.00000001521,36.0490157035086,1.00000000016212,0.239400091132058
9100.00000001557,36.3706901684762,1.00000000021396,0.267015631727031
9200.00000001594,36.880687253583,1.00000000032743,0.318178065690821
9300.0000000163,37.4816869351919,1.0000000004524,0.381012603782066
9400.00000001667,38.0662788762004,1.00000000050966,0.439353260647009
9500.00000001703,38.555728834541,1.00000000058244,0.482574909191562
9600.00000001739,38.9155760015815,1.00000000056197,0.513289922336394
9700.00000001776,39.1343712075264,1.00000000058141,0.537401164709543
9800.00000001812,39.2342212109656,1.00000000054574,0.547766849557186
9900.00000001848,39.2536693769039,1.00000000047984,0.532924765150435
10000.0000000188,39.2275399424529,1.00000000045077,0.497571135500727
10100.0000000192,39.1658947014754,1.00000000044632,0.476172017449756
10200.0000000196,39.0532520907675,1.00000000051953,0.488060956869203
10300.0000000199,38.8791635396799,1.0000000005855,0.515447755288052
10400.0000000203,38.6642801402776,1.00000000053175,0.53073473994919
10500.0000000207,38.4408164459911,1.0000000004088,0.512731999985574
10600.000000021,38.2286680549467,1.00000000042734,0.4851594949387
10700.0000000214,38.0359934323661,1.00000000040423,0.465062353963493
10800.0000000218,37.8619846765594,1.000000000414,0.45871271146159
10900.0000000221,37.7042704463597,1.00000000040942,0.465227935997364
11000.0000000225,37.5544704230995,1.00000000045447,0.47475150573691
11100.0000000229,37.4020540258457,1.00000000047331,0.492810119086377
11200.0000000232,37.2361182033402,1.00000000049354,0.515337729014833
11300.0000000236,37.0504363495502,1.00000000046342,0.530742852483542
11400.0000000239,36.8533602010541,1.00000000042045,0.526076616286917
11500.0000000243,36.6547776548399,1.0000000003759,0.517343298456153
11600.0000000247,36.4558861202141,1.00000000040824,0.516518873392361
11700.000000025,36.2459269091452,1.00000000046587,0.521074404122658
11800.0000000254,36.0162792899302,1.00000000048265,0.523938632411601
11900.0000000258,35.7659828011217,1.00000000049277,0.523560735583431
12000.0000000261,35.4971730666535,1.00000000058292,0.526767193223621
12100.0000000265,35.2163743606009,1.00000000063638,0.534849693390273
12200.0000000269,34.9342639940685,1.0000000006592,0.541601789050295
12300.0000000272,34.6645769850419,1.0000000006938,0.550667211989293
12400.0000000276,34.4195408735592,1.00000000071141,0.560548658590647
12500.0000000279,34.2026406808049,1.00000000066743,0.566526889385297
12600.0000000283,34.0049012598981,1.00000000063289,0.561767273311629
12700.0000000287,33.8066322228873,1.00000000052815,0.54286418033755
12800.000000029,33.5896303630871,1.00000000041702,0.508746695936115
12900.0000000294,33.3487284262232,1.00000000031789,0.461819394538827
13000.0000000298,33.0993356225358,1.00000000022658,0.405807114696397
13100.0000000301,32.8803290863067,1.00000000014909,0.350491394672365
13200.0000000305,32.7462189478012,1.00000000013423,0.307183017334275
13300.0000000309,32.7547872525869,1.00000000013014,0.273205543396119
13400.0000000312,32.9636370506955,1.00000000010662,0.249655276383293
13500.0000000316,33.412736449458,1.00000000013687,0.243407541262947
13600.0000000319,34.1104565429329,1.00000000020141,0.260021948252526
13700.0000000323,35.0358039826887,1.0000000002512,0.290648341598986
13800.0000000327,36.1462644993867,1.00000000031233,0.327760010376053
13900.000000033,37.3672083217,1.00000000043332,0.367958449500756
14000.0000000334,38.6081735644164,1.00000000048332,0.407410999617439
14100.0000000338,39.8048541212452,1.00000000055948,0.442790816051003
14200.0000000341,40.9101529859041,1.00000000055794,0.471160651875078
14300.0000000345,41.8947539828315,1.00000000060015,0.498087436526284
14400.0000000349,42.7427482026624,1.00000000056011,0.522012952845073
14500.0000000352,43.453103887963,1.00000000056254,0.540553879891667
14600.0000000356,44.0407792129989,1.00000000053658,0.544705830663298
14700.0000000359,44.5251821612425,1.00000000048074,0.537268120274744
14800.0000000363,44.9261459539447,1.0000000005066,0.532628211435903
14900.0000000367,45.2481179474002,1.0000000004849,0.542718349805191
15000.000000037,45.492804719572,1.00000000050862,0.556159747911908
15100.0000000374,45.6653667027382,1.00000000049031,0.563324653283019
15200.0000000378,45.7756105206738,1.00000000050533,0.557705511230221
15300.0000000381,45.8341079923037,1.00000000049109,0.537545562780252
15400.0000000385,45.8543456918229,1.00000000046294,0.521333830149629
15500.0000000389,45.8515200888477,1.00000000042207,0.511583325734962
15600.0000000392,45.8252559694026,1.00000000048762,0.518318699928227
15700.0000000396,45.767004981722,1.00000000052442,0.53160728414036
15800.0000000399,45.6779836647478,1.00000000048514,0.533899465205725
15900.0000000403,45.5705245648088,1.00000000043489,0.538325818346114
16000.0000000407,45.4511188579639,1.00000000044681,0.539741090804062
16100.000000041,45.317031515127,1.00000000048846,0.540380208343199
16200.0000000414,45.1677584323274,1.00000000050332,0.538529671414342
16300.0000000418,45.0080390642077,1.00000000046723,0.535251441690025
16400.0000000418,44.8469221933254,1.00000000043357,0.525402760589729
16500.0000000404,44.6911534970457,1.00000000037868,0.511940404308106
16600.0000000389,44.5442509484459,1.00000000037663,0.510475252813312
16700.0000000375,44.3997199478476,1.00000000040286,0.513256653606194
16800.000000036,44.2483945807715,1.00000000046903,0.515206146869562
16900.0000000346,44.0852445625034,1.00000000048389,0.518002837594859
17000.0000000331,43.9096924898925,1.0000000005313,0.524393993914443
17100.0000000317,43.720028801546,1.00000000055301,0.535847608941245
17200.0000000302,43.5159552374592,1.00000000059765,0.547220298325184
17300.0000000287,43.3015663620693,1.00000000053761,0.552450544989326
17400.0000000273,43.0837949651704,1.00000000047934,0.550267416240127
17500.0000000258,42.8685331928409,1.00000000043864,0.550288193247032
17600.0000000244,42.6646499283823,1.00000000035774,0.532096627473785
17700.0000000229,42.483826671521,1.00000000030833,0.510095265560615
17800.0000000215,42.3326173946545,1.00000000032629,0.490855627307607
17900.00000002,42.2093745414332,1.00000000038231,0.47410381008756
18000.0000000186,42.1063966487838,1.00000000044275,0.465715109887978
18100.0000000171,42.017961517286,1.00000000043746,0.472177148972354
18200.0000000156,41.9437463765625,1.00000000040504,0.479515301675434
18300.0000000142,41.8822545154367,1.00000000041434,0.483312538612459
18400.0000000127,41.8286749710993,1.00000000041826,0.493258869574065
18500.0000000113,41.7770350342406,1.00000000045558,0.508024425545978
18600.0000000098,41.7232434144202,1.00000000043481,0.517878990267692
18700.0000000084,41.6621864068139,1.00000000049762,0.523625415176995
18800.0000000069,41.5912856464066,1.00000000049096,0.52299321131855
18900.0000000055,41.5120705214382,1.0000000004774,0.520842195583573
19000.000000004,41.4265010917808,1.00000000045984,0.522064112560733
19100.0000000026,41.3368672064407,1.00000000045015,0.52874076422794
19200.0000000011,41.2403274829602,1.00000000046781,0.540328677713395
19299.9999999996,41.1363031222097,1.00000000046019,0.556361567924623
19399.9999999982,41.0274156829048,1.00000000045019,0.56595309544413
19499.9999999967,40.91578877706,1.00000000043779,0.568078854147239
19599.9999999953,40.8008854536422,1.0000000004642,0.567425942640589
19699.9999999938,40.6784545405936,1.00000000050174,0.571516561808809
19799.9999999924,40.5452664736688,1.00000000051895,0.583074269377514
19899.9999999909,40.4004295769535,1.00000000051226,0.5800740600498
19999.9999999895,40.2504478712593,1.00000000045551,0.575436507704089
20099.999999988,40.1033779369869,1.00000000040969,0.573907880006491
20199.9999999865,39.9634961894486,1.00000000038811,0.565547818097792
20299.9999999851,39.8271700512718,1.00000000047608,0.560940869359336
20399.9999999836,39.6864702838779,1.0000000004896,0.558861241901839
20499.9999999822,39.5404586517295,1.00000000049192,0.544214715594306
20599.9999999807,39.3936905127466,1.00000000042519,0.531897092690913
20699.9999999793,39.2511923863464,1.00000000038632,0.532800301211832
20799.9999999778,39.1129098109011,1.00000000043051,0.53503420809258
20899.9999999764,38.9766418914999,1.00000000043672,0.538247940872015
20999.9999999749,38.8406875310041,1.00000000043722,0.543922825847313
21099.9999999734,38.706248633286,1.00000000043551,0.549684349965433
21199.999999972,38.573829194801,1.00000000042963,0.555107606591343
21299.9999999705,38.440448478335,1.0000000004591,0.550387736475535
21399.9999999691,38.3024170070434,1.00000000051793,0.553965798178217
21499.9999999676,38.1574588409867,1.00000000049502,0.559113567857655
21599.9999999662,38.0073203754131,1.00000000048513,0.554477794449063
21699.9999999647,37.8536466894433,1.00000000047389,0.548876881802642
21799.9999999633,37.696556487452,1.00000000047831,0.553127146042974
21899.9999999618,37.5362941454713,1.00000000053009,0.566292995351744
21999.9999999603,37.3746138677976,1.00000000047,0.576126291669913
22099.9999999589,37.2139357756197,1.00000000042647,0.572311947823013
22199.9999999574,37.0548878457414,1.0000000003899,0.56366377061299
22299.999999956,36.8979531424376,1.0000000004446,0.565842176189187
22399.9999999545,36.7412265809556,1.0000000004724,0.575421917117172
22499.9999999531,36.5826782417694,1.00000000050555,0.575118238600929
22599.9999999516,36.4234169465732,1.00000000047349,0.58031436311255
22699.9999999502,36.2651576004126,1.00000000039791,0.576029556837296
22799.9999999487,36.1081397904872,1.00000000038809,0.563877309927218
22899.9999999473,35.9526955815624,1.00000000036975,0.559982143189183
22999.9999999458,35.7984930612683,1.00000000039686,0.565553624519977
23099.9999999443,35.6451349550487,1.00000000040649,0.570458674158713
23199.9999999429,35.492817931472,1.00000000041733,0.569490339352174
23299.9999999414,35.3420249840993,1.00000000042477,0.567633677976885
23399.99999994,35.1929468060433,1.00000000047071,0.570471083770028
23499.9999999385,35.047088977175,1.00000000047595,0.581185259661946
23599.9999999371,34.9059696480558,1.00000000049121,0.574415713111195
23699.9999999356,34.7719896676673,1.00000000050072,0.565112133893244
23799.9999999342,34.6492626963347,1.00000000050145,0.579122878357888
23899.9999999327,34.5413825427088,1.00000000057799,0.588783016966128
23999.9999999312,34.455241178926,1.00000000057931,0.584850280045681
24099.9999999298,34.3942530166698,1.00000000059732,0.581186545044547
24199.9999999283,34.3659672649474,1.00000000060473,0.590235457522328
24299.9999999269,34.3762309000854,1.00000000063653,0.597509022633012
24399.9999999254,34.4317279358826,1.00000000067979,0.603325539432133
24499.999999924,34.5427936074741,1.00000000068633,0.606406485030186
24599.9999999225,34.7042932433905,1.00000000068187,0.607415465379901
24699.9999999211,34.9286557323042,1.00000000072588,0.604892905032312
24799.9999999196,35.2021291986482,1.00000000070758,0.601634957002661
24899.9999999181,35.5438323807949,1.0000000007367,0.596816982474805
24999.9999999167,35.925243964947,1.00000000069528,0.588941098794331
25099.9999999152,36.3563148368947,1.00000000066506,0.582209818503554
25199.9999999138,36.792764888875,1.00000000060331,0.575791727298313
25299.9999999123,37.2319249874421,1.0000000005927,0.568042041876353
25399.9999999109,37.6344305346581,1.00000000052781,0.556500554584601
25499.9999999094,37.98713530795,1.0000000004838,0.539938050332802
25599.999999908,38.2688024002161,1.00000000041229,0.517951414818271
25699.9999999065,38.4655668576785,1.00000000034193,0.495423594177729
25799.9999999051,38.5802661179021,1.00000000032465,0.46927217131683
25899.9999999036,38.6084426318692,1.00000000025721,0.440772416157752
25999.9999999021,38.5670981503891,1.00000000024683,0.411549162019826
26099.9999999007,38.4700565151953,1.00000000019799,0.384269866888356
26199.9999998992,38.341485694718,1.00000000016873,0.358737326393417
26299.9999998978,38.2135460118674,1.00000000014574,0.332008490249954
26399.9999998963,38.1119748384559,1.00000000012529,0.309462330595325
26499.9999998949,38.0779645206485,1.0000000001201,0.290373798903606
26599.9999998934,38.1423114665071,1.00000000010521,0.273547609533139
26699.999999892,38.3396677570867,1.00000000010363,0.259622567331992
26799.9999998905,38.7091370907453,1.00000000010185,0.248948945841887
26899.999999889,39.2646104039775,1.00000000011238,0.248570596142011
26999.9999998876,40.0486511513501,1.00000000011656,0.249698753271585
27099.9999998861,41.0539144216486,1.0000000001521,0.256097021130954
27199.9999998847,42.299292148031,1.00000000019046,0.264456341842156
27299.9999998832,43.776490761723,1.00000000021411,0.278015920388052
27399.9999998818,45.4596334930908,1.00000000027168,0.295049449344494
27499.9999998803,47.3457533115514,1.00000000030663,0.315328388819857
27599.9999998789,49.3666516632224,1.00000000037151,0.335440864727455
27699.9999998774,51.5378221598141,1.00000000041798,0.35403906024668
27799.9999998759,53.7522508709811,1.00000000048205,0.371710883789095
27899.9999998745,56.0331226168016,1.00000000049846,0.386220176558657
27999.999999873,58.2925313702444,1.00000000053839,0.402795285521948
28099.9999998716,60.5343196120643,1.00000000054894,0.421013287614538
28199.9999998701,62.7054101612681,1.00000000059439,0.437722767399716
28299.9999998687,64.7946545426121,1.00000000056014,0.452862778554765
28399.9999998672,66.802574117119,1.00000000062987,0.468344066567534
28499.9999998658,68.690564711828,1.00000000059305,0.474929993585342
28599.9999998643,70.4827892083236,1.00000000062959,0.485872128873505
28699.9999998629,72.1393922265988,1.00000000058526,0.50048443771324
28799.9999998614,73.6942481015292,1.00000000060174,0.513800875676037
28899.9999998599,75.1250026444526,1.00000000058088,0.526170298966871
28999.9999998585,76.4523578567074,1.0000000005649,0.526683560279372
29099.999999857,77.6733651311122,1.00000000054983,0.530705403108101
