Time,AGPnorm,Energy,Entropy
0,0,1,-7.24203206041026e-17
99.9999999999986,0.000975819574935604,1.00000000000302,0.0030705898388678
199.999999999993,0.00602966623553331,1.00000000000397,0.00929577665899813
300,0.0125895749887615,1.00000000000148,0.0172410051353617
400.000000000022,0.0192776978580037,0.999999999999697,0.0269065775478561
500.000000000045,0.0274698475305763,1.00000000000143,0.0386558545763555
600.000000000068,0.0378442005669755,1.0000000000037,0.0524489857194602
700.000000000091,0.0483461318706338,1.00000000000289,0.0677581400992787
800.000000000113,0.0603962572860261,1.00000000000055,0.0845352059831749
900.000000000136,0.0723840754926016,1.00000000000032,0.103267821116178
1000.00000000016,0.0858619910545719,1.00000000000297,0.124927145013544
1100.0000000001,0.0982588593354346,1.00000000000395,0.149884393101081
1200,0.112415940306719,1.00000000000695,0.179074285049847
1299.99999999991,0.125075718603646,1.00000000002566,0.213750422883702
1399.99999999982,0.136744903309605,1.00000000008864,0.253980037959771
1499.99999999973,0.152897976059446,1.00000000019354,0.297144094208669
1599.99999999964,0.210310129010309,1.00000000035016,0.33822514594139
1699.99999999955,0.336921900956054,1.00000000051711,0.375351447521882
1799.99999999946,0.566412604030027,1.00000000067517,0.407850766848334
1899.99999999937,0.978202930870646,1.00000000082716,0.43700368258946
1999.99999999928,1.68369043160357,1.00000000098433,0.461620076991624
2099.99999999919,2.75118128845166,1.00000000109987,0.483038352029954
2199.99999999909,4.20290446284231,1.00000000117932,0.500818560521676
2299.999999999,6.06034216162276,1.00000000124189,0.516328105033437
2399.99999999891,8.36233293725447,1.00000000126485,0.528861803436562
2499.99999999882,11.1126835597098,1.00000000130887,0.539678074297235
2599.99999999873,14.2799052562902,1.00000000132489,0.547715592404196
2699.99999999864,17.7984582283877,1.0000000013181,0.554960292809006
2799.99999999855,21.613030411411,1.00000000124453,0.560396430406334
2899.99999999846,25.676948097476,1.00000000132337,0.564735432928563
2999.99999999837,29.9425861219986,1.00000000127881,0.567335645410208
3099.99999999828,34.3379704374261,1.0000000013208,0.568834880216743
3199.99999999819,38.7793852848231,1.00000000123291,0.570419875784302
3299.99999999809,43.2084329036003,1.00000000123772,0.571007347058185
3399.999999998,47.5864534535653,1.00000000122624,0.570953020804546
3499.99999999791,51.8777265004222,1.00000000119974,0.570076308048566
3599.99999999782,56.0216519826012,1.00000000107887,0.570288161428682
3699.99999999773,59.9665605600529,1.00000000106592,0.568417228014713
3799.99999999764,63.6970866024057,1.00000000106232,0.566031809117564
3899.99999999755,67.1934523939056,1.00000000103326,0.56627577084839
3999.99999999746,70.4381540052962,1.00000000100702,0.564019700810632
4099.99999999738,73.4098486474594,1.00000000096091,0.560693671824303
4199.99999999775,76.0927496839043,1.00000000095168,0.561394960699298
4299.99999999811,78.489167155795,1.00000000091082,0.557514314954573
4399.99999999848,80.6108022323581,1.00000000089062,0.556593895894283
4499.99999999884,82.4560485708665,1.00000000088376,0.555302002849741
4599.9999999992,84.0206522815573,1.00000000080507,0.550919318252426
4699.99999999957,85.3182759254362,1.00000000082717,0.556305476302965
4799.99999999993,86.365668748032,1.00000000078922,0.548314349142712
4900.00000000029,87.1650075433439,1.00000000077749,0.548246661014937
5000.00000000066,87.7512857253554,1.00000000083992,0.560744385695413
5100.00000000102,88.135515162797,1.00000000077055,0.540715610878605
5200.00000000139,88.2941691735654,1.00000000068145,0.540848732838237
5300.00000000175,88.2994938358635,1.00000000085424,0.566537039386306
5400.00000000211,88.1830317426252,1.00000000073559,0.539402077617343
5500.00000000248,87.8788955848085,1.00000000058928,0.518354637599463
5600.00000000284,87.4446740691828,1.00000000084751,0.564676342454025
5700.00000000321,86.9706965764595,1.00000000084915,0.560486096887685
5800.00000000357,86.397836640846,1.00000000054863,0.503081274183271
5900.00000000393,85.6809446335001,1.00000000059036,0.516309265101234
6000.0000000043,84.9288915304639,1.00000000099247,0.575688322791101
6100.00000000466,84.1966026386257,1.00000000085921,0.55325354829585
6200.00000000502,83.4002764903217,1.00000000051618,0.478900057743628
6300.00000000539,82.4954866410044,1.00000000056341,0.490199246902565
6400.00000000575,81.5766303636308,1.00000000100207,0.566721640607524
6500.00000000612,80.7098526843008,1.00000000105786,0.57021239027422
6600.00000000648,79.8502584123878,1.00000000063333,0.493479295181195
6700.00000000684,78.9209936615858,1.00000000041487,0.438626453575324
6800.00000000721,77.944515310716,1.00000000071555,0.502076388832582
6900.00000000757,76.9950120209187,1.00000000104963,0.567427589589684
7000.00000000793,76.1034530587477,1.00000000105459,0.562168108020053
7100.0000000083,75.2312051057446,1.00000000070364,0.488825644914118
7200.00000000866,74.3263090170274,1.00000000042388,0.423199271950887
7300.00000000903,73.3917421341313,1.00000000060532,0.455519565313801
7400.00000000939,72.4656514966399,1.00000000090531,0.530973242031547
7500.00000000975,71.5789391689164,1.00000000107686,0.561330360954075
7600.00000001012,70.7328747618316,1.00000000097328,0.538437239856633
7700.00000001048,69.9009185601571,1.0000000006979,0.477233272652358
7800.00000001084,69.0618602433594,1.00000000049239,0.4275990561938
7900.00000001121,68.2188768649705,1.00000000057153,0.442685144144559
8000.00000001157,67.3838324312607,1.00000000079371,0.494189221319382
8100.00000001194,66.5687620147563,1.00000000097537,0.535545732660415
8200.0000000123,65.780854750675,1.00000000103987,0.543592324587292
8300.00000001266,65.0167297829861,1.00000000089119,0.524283758202594
8400.00000001303,64.2663379379199,1.00000000066634,0.475969874406604
8500.00000001339,63.5267402146694,1.00000000058546,0.445720818287318
8600.00000001376,62.802207225257,1.00000000059638,0.449322946733701
8700.00000001412,62.0936063911992,1.00000000069051,0.477987676953244
8800.00000001448,61.4007288926669,1.00000000078926,0.49891742812799
8900.00000001485,60.7223703919527,1.00000000085983,0.518074329566476
9000.00000001521,60.0569396446942,1.00000000096407,0.534151990555923
9100.00000001557,59.4048024043726,1.00000000096617,0.534040227564218
9200.00000001594,58.7680499876253,1.00000000070666,0.499358840791639
9300.0000000163,58.1516990692219,1.00000000056526,0.458773416772553
9400.00000001667,57.5591632035459,1.00000000065308,0.459066851599884
9500.00000001703,56.9877163554307,1.00000000075396,0.472317791980197
9600.00000001739,56.4308358823481,1.00000000077675,0.49627220706204
9700.00000001776,55.8894087080231,1.00000000071242,0.494384132252504
9800.00000001812,55.3656559067237,1.00000000068658,0.492943135302933
9900.00000001848,54.8544018317766,1.00000000082277,0.512253931379942
10000.0000000188,54.3464411257465,1.00000000101405,0.534716675783694
10100.0000000192,53.8381737685512,1.00000000096348,0.537435608726448
10200.0000000196,53.3386691348427,1.00000000074502,0.510699502450095
10300.0000000199,52.8614535433173,1.00000000055104,0.472222694148225
10400.0000000203,52.41451300586,1.00000000059776,0.455719214034126
10500.0000000207,51.9908251964564,1.00000000070184,0.466288467128895
10600.000000021,51.5789546079364,1.0000000008506,0.486806245021228
10700.0000000214,51.1727813329885,1.00000000088208,0.50366940750891
10800.0000000218,50.7757790683636,1.00000000072613,0.504822686330367
10900.0000000221,50.3952084322358,1.00000000061853,0.489583702919207
11000.0000000225,50.0321888189985,1.00000000067637,0.49514172034895
11100.0000000229,49.6765785345947,1.00000000082423,0.515248845844288
11200.0000000232,49.3175474880915,1.00000000096507,0.53075836652869
11300.0000000236,48.9513347128616,1.00000000097124,0.541917105846507
11400.0000000239,48.5834148147529,1.00000000087531,0.532965960944113
11500.0000000243,48.226196999971,1.0000000007171,0.509127345840113
11600.0000000247,47.8924224179463,1.00000000060619,0.482669552774421
11700.000000025,47.5876315354159,1.00000000063044,0.474276031262122
11800.0000000254,47.3070614529208,1.00000000065321,0.476808636903906
11900.0000000258,47.0408123314696,1.00000000078383,0.488761728800987
12000.0000000261,46.7808258263796,1.00000000082781,0.501210029064047
12100.0000000265,46.5252361969322,1.00000000078396,0.49909517707168
12200.0000000269,46.2746227012787,1.00000000079424,0.511148833946862
12300.0000000272,46.0290452868409,1.00000000078927,0.52468499706356
12400.0000000276,45.7887659500932,1.00000000070417,0.526458934884556
12500.0000000279,45.5537187531146,1.00000000074323,0.532524232189251
12600.0000000283,45.3223911359805,1.00000000072419,0.533440035644773
12700.0000000287,45.0941399481354,1.0000000007882,0.527540129569033
12800.000000029,44.8660911381371,1.00000000083566,0.528982085449421
12900.0000000294,44.6338333710603,1.00000000093365,0.539032161795072
13000.0000000298,44.3938076168756,1.00000000086976,0.546217464413259
13100.0000000301,44.1565697973014,1.00000000077045,0.533676933114866
13200.0000000305,43.9379285038939,1.00000000064348,0.511112802057063
13300.0000000309,43.7464974706328,1.00000000060528,0.489843345556938
13400.0000000312,43.5788052038436,1.00000000070245,0.486109488009033
13500.0000000316,43.4246010665408,1.00000000076471,0.50019818519787
13600.0000000319,43.2762367159174,1.0000000007964,0.503694041684299
13700.0000000323,43.1340660178376,1.0000000007523,0.498765545296701
13800.0000000327,43.00086118392,1.00000000075256,0.505546608986617
13900.000000033,42.8791230137031,1.0000000006971,0.50849815068973
14000.0000000334,42.7694291771149,1.00000000070864,0.508640571527038
14100.0000000338,42.6621205103476,1.00000000083139,0.523864510549807
14200.0000000341,42.5451231933288,1.00000000088275,0.540096874774701
14300.0000000345,42.4130118374977,1.00000000090167,0.554188446687065
14400.0000000349,42.2690060672834,1.00000000085096,0.557702972418198
14500.0000000352,42.1197338974072,1.00000000078538,0.559029334805119
14600.0000000356,41.9731482070879,1.00000000071116,0.551473990077468
14700.0000000359,41.8343630311973,1.00000000066278,0.541480781921254
14800.0000000363,41.701677996394,1.00000000075547,0.536092044411541
14900.0000000367,41.5695902546278,1.00000000085243,0.534056577592191
15000.000000037,41.4329646463153,1.00000000089128,0.540887215786037
15100.0000000374,41.289390327044,1.00000000090469,0.549034316486546
15200.0000000378,41.1415316961876,1.00000000089381,0.553077115066189
15300.0000000381,40.9985803134607,1.00000000072418,0.542152510297182
15400.0000000385,40.8711342177895,1.00000000064463,0.52884010299235
15500.0000000389,40.7656849932209,1.0000000006079,0.512337781699808
15600.0000000392,40.6813199987204,1.00000000069021,0.506143769614022
15700.0000000396,40.6136503697833,1.00000000072253,0.505095514162738
15800.0000000399,40.5554365812853,1.00000000077369,0.506556670727739
15900.0000000403,40.4991063913157,1.00000000084029,0.508692490102859
16000.0000000407,40.4437782089133,1.00000000077841,0.506745420934213
16100.000000041,40.3959323884764,1.00000000070956,0.505973398604402
16200.0000000414,40.3567396207985,1.00000000071693,0.516106703553256
16300.0000000418,40.3217151152272,1.0000000007965,0.530271321670423
16400.0000000418,40.2868836537435,1.00000000081821,0.543628148984638
16500.0000000404,40.2519917315968,1.00000000074744,0.547022988035309
16600.0000000389,40.2188835792889,1.00000000073646,0.54741342304071
16700.0000000375,40.1859077094982,1.00000000071678,0.54883153501343
16800.000000036,40.1509871491823,1.00000000078535,0.547707155784442
16900.0000000346,40.1091108654101,1.00000000079368,0.551022937868509
17000.0000000331,40.0556582927868,1.00000000083965,0.556854944184658
17100.0000000317,39.9881800151115,1.00000000091413,0.554701109630134
17200.0000000302,39.9075349679965,1.00000000087453,0.555385841184194
17300.0000000287,39.8159453538944,1.00000000083353,0.562515306982451
17400.0000000273,39.7181738242706,1.00000000075124,0.567248174337954
17500.0000000258,39.6207406381204,1.00000000074163,0.561626372750254
17600.0000000244,39.5287596054317,1.00000000067671,0.550773473704994
17700.0000000229,39.4434265622624,1.00000000065691,0.541080875936301
17800.0000000215,39.363551479614,1.00000000075834,0.53684049130718
17900.00000002,39.2850885811843,1.0000000008207,0.533185098829795
18000.0000000186,39.2044445321236,1.00000000091399,0.541939747361563
18100.0000000171,39.1204049022105,1.00000000092645,0.55219625407498
18200.0000000156,39.030819741437,1.00000000086173,0.557732832430882
18300.0000000142,38.9403768674535,1.00000000080276,0.558919519617229
18400.0000000127,38.8585435464532,1.00000000072045,0.553122110820276
18500.0000000113,38.7923722407012,1.00000000066377,0.540635096778716
18600.0000000098,38.7446815735322,1.00000000066692,0.534466457566132
18700.0000000084,38.7151344217437,1.00000000065834,0.519954616747018
18800.0000000069,38.6996220229929,1.00000000074426,0.51809126683739
18900.0000000055,38.6919807229447,1.00000000077425,0.516638618642841
19000.000000004,38.6872413215298,1.00000000077128,0.521900773578369
19100.0000000026,38.6869813344195,1.000000000751,0.518174119910333
19200.0000000011,38.6934918558287,1.00000000073275,0.512981108872023
19299.9999999996,38.7053774357922,1.00000000076707,0.510779522130128
19399.9999999982,38.7216864399953,1.00000000078278,0.514021465926134
19499.9999999967,38.7423131021837,1.0000000007502,0.510352277992414
19599.9999999953,38.7667477242471,1.00000000076686,0.514039625887292
19699.9999999938,38.7931507997903,1.00000000080784,0.527842887293967
19799.9999999924,38.8152609436324,1.00000000084734,0.545946537353091
19899.9999999909,38.8305262442667,1.00000000083345,0.556035898554111
19999.9999999895,38.8383949034043,1.00000000079377,0.559298407441917
20099.999999988,38.8422208517044,1.00000000079286,0.562860648802697
20199.9999999865,38.8471236654566,1.00000000077662,0.562735407185568
20299.9999999851,38.8535645488664,1.00000000077793,0.563597812315058
20399.9999999836,38.8570695210315,1.00000000081771,0.570211202720181
20499.9999999822,38.8540653190906,1.00000000078451,0.58073261209094
20599.9999999807,38.8451017737008,1.00000000080934,0.590223590488259
20699.9999999793,38.8317516439736,1.00000000079076,0.590541633489585
20799.9999999778,38.811793490473,1.00000000085179,0.588953408572774
20899.9999999764,38.7851446810821,1.00000000081203,0.585248072806405
20999.9999999749,38.7537564489097,1.00000000077936,0.582836862562874
21099.9999999734,38.7164726106686,1.00000000083085,0.579347817865593
21199.999999972,38.6715167956789,1.00000000082091,0.570492302131859
21299.9999999705,38.6176942299305,1.00000000082617,0.565672474174616
21399.9999999691,38.5536510417451,1.00000000084771,0.572344281378198
21499.9999999676,38.4808207695015,1.0000000008824,0.583700328519261
21599.9999999662,38.4018520449094,1.00000000083645,0.5845376033908
21699.9999999647,38.3203851143394,1.00000000077264,0.583790106682519
21799.9999999633,38.2405080575313,1.00000000078094,0.582496179526577
21899.9999999618,38.1646664976709,1.00000000072477,0.579940154596679
21999.9999999603,38.093661207959,1.0000000007146,0.578879331137945
22099.9999999589,38.0271256396772,1.00000000074641,0.57807704331883
22199.9999999574,37.9633532813275,1.0000000007745,0.570926642934801
22299.999999956,37.902051137361,1.00000000079896,0.569991148177031
22399.9999999545,37.8420776778624,1.00000000083955,0.570162935443451
22499.9999999531,37.7822385424755,1.00000000087175,0.570982743051962
22599.9999999516,37.7213947295926,1.00000000090696,0.567768402560514
22699.9999999502,37.6585878320014,1.00000000090926,0.563772857523647
22799.9999999487,37.594462814274,1.00000000090965,0.566922099724622
22899.9999999473,37.5322895302214,1.00000000076602,0.563715330546835
22999.9999999458,37.4770435911444,1.00000000074203,0.561692150398128
23099.9999999443,37.4336995916813,1.000000000687,0.558348030383103
23199.9999999429,37.4057594619441,1.00000000071968,0.554183703895489
23299.9999999414,37.3930102177106,1.0000000007084,0.546884000269618
23399.99999994,37.3933084021718,1.00000000075889,0.544645007742448
23499.9999999385,37.4043796081093,1.00000000075289,0.540286522548396
23599.9999999371,37.4216083968165,1.00000000081935,0.536933714905903
23699.9999999356,37.4428977826064,1.00000000083316,0.532938965200381
23799.9999999342,37.4688410934914,1.0000000007666,0.529999393882083
23899.9999999327,37.5008734620388,1.00000000074819,0.527027416692386
23999.9999999312,37.5380436653689,1.00000000081395,0.529105656522868
24099.9999999298,37.5791467610221,1.00000000075291,0.531569994919791
24199.9999999283,37.6247724890253,1.00000000074825,0.530146562408578
24299.9999999269,37.6750969326034,1.00000000075856,0.527540061291984
24399.9999999254,37.7287351207073,1.0000000008083,0.530325031349842
24499.999999924,37.7838624077889,1.00000000084346,0.538550763250463
24599.9999999225,37.8375216131323,1.00000000085063,0.546996416500778
24699.9999999211,37.8869555393264,1.00000000084373,0.560098660263168
24799.9999999196,37.932508029058,1.00000000083404,0.570890702941629
24899.9999999181,37.9739299427824,1.00000000083255,0.576441886743377
24999.9999999167,38.0099949585264,1.00000000083248,0.580368168523522
25099.9999999152,38.0407138622216,1.00000000085584,0.586321393089652
25199.9999999138,38.0674380550106,1.00000000083114,0.590645631826352
25299.9999999123,38.0908827611069,1.00000000078371,0.588781130301784
25399.9999999109,38.1124069010843,1.00000000081743,0.593165606512574
25499.9999999094,38.1331068747527,1.00000000081117,0.594139038769843
25599.999999908,38.1520775442021,1.00000000082898,0.599888122181224
25699.9999999065,38.1688849448645,1.00000000086912,0.599011168677365
25799.9999999051,38.1839398223451,1.00000000079517,0.595249571046319
25899.9999999036,38.1956810645619,1.00000000079709,0.594082935214875
25999.9999999021,38.2016456930616,1.00000000087852,0.59413759218764
26099.9999999007,38.2029858732664,1.00000000082473,0.604338524322602
26199.9999998992,38.1998842529832,1.00000000084805,0.606856218359925
26299.9999998978,38.1941160824588,1.00000000077227,0.603484967298459
26399.9999998963,38.1866584278782,1.00000000080174,0.604356978224871
26499.9999998949,38.1766252461396,1.00000000076905,0.603816667543665
26599.9999998934,38.1641030197766,1.00000000082825,0.605187333354563
26699.999999892,38.1495585142906,1.00000000080574,0.597287665734751
26799.9999998905,38.132524098615,1.00000000081571,0.592917509134628
26899.999999889,38.1116688582189,1.00000000082388,0.589615624099561
26999.9999998876,38.0876098005118,1.00000000084685,0.587532568564126
27099.9999998861,38.0601499148247,1.00000000087221,0.595029349102123
27199.9999998847,38.0271839371668,1.0000000008533,0.596656267720707
27299.9999998832,37.9906677546119,1.00000000083803,0.600477904701258
27399.9999998818,37.953524787947,1.00000000082499,0.601646368803291
27499.9999998803,37.9169353400961,1.00000000078629,0.600784329883512
27599.9999998789,37.880643094206,1.00000000078963,0.602334972097517
27699.9999998774,37.8428111706405,1.00000000084783,0.610643811809328
27799.9999998759,37.801882624134,1.00000000084987,0.611656872380867
27899.9999998745,37.7585611545993,1.00000000082639,0.605623414713835
27999.999999873,37.7141516806256,1.00000000076932,0.60003105268739
28099.9999998716,37.6671268066846,1.00000000083716,0.602693609360858
28199.9999998701,37.6169675972705,1.00000000083016,0.60240674123057
28299.9999998687,37.5629346196278,1.00000000085819,0.605700423264378
28399.9999998672,37.5057169575758,1.00000000086111,0.608047218095292
28499.9999998658,37.4440697386963,1.00000000089612,0.609458677666561
28599.9999998643,37.3777467644331,1.00000000094324,0.611719728137639
28699.9999998629,37.3069448642109,1.00000000090258,0.615278579926985
28799.9999998614,37.2332472536436,1.0000000008561,0.619802544671498
28899.9999998599,37.1571295043087,1.00000000086822,0.624501345479433
28999.9999998585,37.0795227398825,1.00000000083021,0.62281046827688
