Time,AGPnorm,Energy,Entropy
0,0,1,-7.92848059694192e-18
99.9999999999986,0.00994618568825544,0.999999999995049,0.0263300895304235
199.999999999993,0.0249471142065202,1.00000000000037,0.0775995691996091
300,0.0491411377710328,0.999999999999169,0.157732130054557
400.000000000022,0.074406702838464,1.00000000027881,0.283841400422713
500.000000000045,0.161425574101655,1.00000000166183,0.429841426617733
600.000000000068,0.688661153203151,1.00000000306632,0.522096942797249
700.000000000091,2.01078290026592,1.00000000339196,0.569380550001579
800.000000000113,4.02659843462918,1.00000000361087,0.588592350281977
900.000000000136,6.5093092173332,1.00000000351134,0.59037587648035
1000.00000000016,8.9760190120325,1.00000000319301,0.586291717621682
1100.0000000001,11.1957428990624,1.0000000031032,0.577695946309265
1200,12.9466264289489,1.00000000257209,0.566095761749776
1299.99999999991,14.1709023679508,1.00000000237364,0.563485461660183
1399.99999999982,14.8837415295872,1.00000000241691,0.558435734930889
1499.99999999973,15.1542846427789,1.00000000170452,0.52700370244237
1599.99999999964,15.1421803431155,1.00000000214074,0.539929243334927
1699.99999999955,14.8534335932631,1.00000000273293,0.574293843353249
1799.99999999946,14.4788572186841,1.00000000139257,0.453132753167428
1899.99999999937,14.0008750042991,1.00000000322491,0.585636151108753
1999.99999999928,13.5278168553344,1.00000000135742,0.420400791134856
2099.99999999919,12.9934974986667,1.00000000289571,0.546246672685187
2199.99999999909,12.5261793323767,1.00000000217159,0.499968781354208
2299.999999999,12.0471767880666,1.00000000161187,0.423071604166799
2399.99999999891,11.5687529803541,1.00000000275822,0.544680174693749
2499.99999999882,11.1435014042561,1.00000000223805,0.523776833316289
2599.99999999873,10.7547291270624,1.00000000152121,0.407147917710164
2699.99999999864,10.3772752726805,1.00000000218854,0.506577792185479
2799.99999999855,10.0157045684506,1.00000000254818,0.529133772835711
2899.99999999846,9.67356300565725,1.0000000028808,0.553255152340352
2999.99999999837,9.39039389931194,1.00000000128115,0.416787072977629
3099.99999999828,9.15552887179541,1.00000000240271,0.471683599291496
3199.99999999819,8.91082147526891,1.00000000229346,0.531483461380704
3299.99999999809,8.67998946803412,1.00000000206643,0.540794025445031
3399.999999998,8.44357221033754,1.00000000298361,0.54620062215646
3499.99999999791,8.21493042484169,1.00000000214429,0.538657295426529
3599.99999999782,8.05880564880311,1.00000000144261,0.432630392418223
3699.99999999773,7.96736917403212,1.0000000020211,0.46906332452597
3799.99999999764,7.86017690958583,1.00000000227125,0.538421683344197
3899.99999999755,7.75614331993266,1.00000000216496,0.550571598577994
3999.99999999746,7.63795743366436,1.00000000242672,0.569770365315307
4099.99999999738,7.50704529953896,1.00000000201385,0.575581733943758
4199.99999999775,7.37488424117027,1.00000000253026,0.565462282533893
4299.99999999811,7.229461655805,1.0000000027812,0.57823570971424
4399.99999999848,7.09638587675539,1.00000000195201,0.541275435668096
4499.99999999884,7.04115198286707,1.00000000138173,0.458095518051012
4599.9999999992,7.06420275586563,1.00000000203356,0.479008350031589
4699.99999999957,7.07967457423558,1.00000000231143,0.521181507354711
4799.99999999993,7.08127216021406,1.00000000226346,0.563062152364058
4900.00000000029,7.06251230599971,1.00000000253636,0.577447132827746
5000.00000000066,7.03202710429607,1.00000000225451,0.593728972811695
5100.00000000102,7.00156088330526,1.00000000227235,0.59135185784631
5200.00000000139,6.9540645902646,1.00000000241456,0.589552262970518
5300.00000000175,6.887922744492,1.00000000250713,0.593980495144592
5400.00000000211,6.81560104829224,1.00000000217024,0.600825066085895
5500.00000000248,6.74200848372969,1.00000000216947,0.604534091786414
5600.00000000284,6.66015218177712,1.00000000254243,0.608776181345578
5700.00000000321,6.57024972675726,1.00000000279198,0.601468774327654
5800.00000000357,6.47615198097482,1.000000002665,0.590437479305272
5900.00000000393,6.40715155308007,1.00000000179443,0.536710613733979
6000.0000000043,6.41494690725832,1.00000000152823,0.482494925292827
6100.00000000466,6.50395760372127,1.00000000199258,0.491398814899859
6200.00000000502,6.61064317299401,1.00000000240797,0.529089537210492
6300.00000000539,6.69926462177848,1.00000000243125,0.55136925379545
6400.00000000575,6.77185762139186,1.0000000024395,0.571039153585259
6500.00000000612,6.83209452197193,1.00000000239073,0.599513139517705
6600.00000000648,6.86729149260039,1.00000000246861,0.621216780831704
6700.00000000684,6.88925144149505,1.00000000229078,0.627642936597491
6800.00000000721,6.8984823228678,1.00000000257272,0.627528003226968
6900.00000000757,6.8870892447974,1.00000000241873,0.637878412110638
7000.00000000793,6.86797178529256,1.00000000221711,0.622724875780105
7100.0000000083,6.85629974027303,1.00000000214881,0.618468632153463
7200.00000000866,6.84953297260634,1.00000000256298,0.609284346482203
7300.00000000903,6.82429692247364,1.00000000246032,0.6167323494461
7400.00000000939,6.79781653356864,1.0000000023432,0.618448326753119
7500.00000000975,6.77527455049655,1.00000000245907,0.626653494672876
7600.00000001012,6.74594350578679,1.00000000236311,0.637679940262684
7700.00000001048,6.71519841498561,1.0000000025031,0.631505065783157
7800.00000001084,6.68226287066837,1.00000000236737,0.609578832834464
7900.00000001121,6.64469724920282,1.00000000262382,0.62305132638214
8000.00000001157,6.59391328076351,1.00000000254079,0.641556281147702
8100.00000001194,6.5362936933434,1.00000000251444,0.63907364839828
8200.0000000123,6.47792568585048,1.00000000218297,0.641214020889796
8300.00000001266,6.41917056785299,1.00000000229456,0.644960699409356
8400.00000001303,6.35962422372319,1.00000000259217,0.653074392541124
8500.00000001339,6.30157888784394,1.00000000277974,0.670889736126478
8600.00000001376,6.24344466681513,1.00000000287603,0.657220456963538
8700.00000001412,6.17988531265988,1.00000000275028,0.630486097188948
8800.00000001448,6.12072828368191,1.00000000219674,0.589289089733897
8900.00000001485,6.0960509427411,1.00000000164644,0.541325167779748
9000.00000001521,6.13753701223078,1.00000000163692,0.508063748972689
9100.00000001557,6.25425755950705,1.00000000192765,0.506106051940787
9200.00000001594,6.41731216911211,1.00000000221398,0.518652122355718
9300.0000000163,6.58385138184192,1.00000000253173,0.542348668815636
9400.00000001667,6.74394117517418,1.0000000029012,0.550344532516683
9500.00000001703,6.88900522029053,1.00000000253172,0.562907912716833
9600.00000001739,7.02049346107505,1.00000000289121,0.581477748073989
9700.00000001776,7.13617652348474,1.00000000257773,0.58344266849864
9800.00000001812,7.24067053151357,1.00000000282809,0.615344043263852
9900.00000001848,7.32959901980392,1.00000000270452,0.630227000534556
10000.0000000188,7.40603599949413,1.00000000281099,0.622715204670347
10100.0000000192,7.46980925211679,1.00000000271125,0.629453863845511
10200.0000000196,7.51679266244832,1.00000000301352,0.648585208672802
10300.0000000199,7.5497840241891,1.00000000269479,0.658620220287975
10400.0000000203,7.57861665176327,1.0000000028629,0.657365681213482
10500.0000000207,7.60517597777466,1.00000000273431,0.646637574802562
10600.000000021,7.62657108623039,1.00000000290853,0.659355915462795
10700.0000000214,7.64020857900042,1.00000000279066,0.660685099945514
10800.0000000218,7.65171026560824,1.00000000284565,0.660069123139498
10900.0000000221,7.65206659550693,1.00000000306839,0.662469847966081
11000.0000000225,7.6516810592139,1.00000000280378,0.659849643143539
11100.0000000229,7.64597499967182,1.00000000297287,0.654666625924619
11200.0000000232,7.63795180871572,1.00000000281809,0.659997888549246
11300.0000000236,7.62449627568951,1.00000000296168,0.663228193410712
11400.0000000239,7.60647425501264,1.00000000291178,0.66466174599986
11500.0000000243,7.58822505580587,1.00000000298248,0.655700113896774
11600.0000000247,7.57417996639102,1.00000000253008,0.64380396884259
11700.000000025,7.56768404163108,1.000000002615,0.62869182993901
11800.0000000254,7.576441693774,1.00000000259986,0.612222383926151
11900.0000000258,7.59633661142577,1.00000000278108,0.625406750781811
12000.0000000261,7.61527356837823,1.00000000302253,0.635661590292451
12100.0000000265,7.63259388826227,1.00000000301802,0.62903634475552
12200.0000000269,7.63947064079414,1.00000000353545,0.636200058156791
12300.0000000272,7.64897572356969,1.00000000260696,0.627125338886836
12400.0000000276,7.66202213285481,1.00000000319019,0.635961777800445
12500.0000000279,7.67085302856112,1.00000000299614,0.634009513648289
12600.0000000283,7.68178530756547,1.00000000280526,0.650529207533543
12700.0000000287,7.69570421311946,1.00000000293421,0.663834351638886
12800.000000029,7.70481114920535,1.00000000319865,0.661681365792998
12900.0000000294,7.70847165843772,1.00000000304822,0.659231393727429
13000.0000000298,7.7188419035868,1.00000000283774,0.648435475664039
13100.0000000301,7.7295681793098,1.00000000305497,0.661662943613862
13200.0000000305,7.74705410358417,1.00000000294302,0.65305019214768
13300.0000000309,7.76402924912306,1.00000000319988,0.648037149257428
13400.0000000312,7.77158917241579,1.00000000297584,0.662900515284097
13500.0000000316,7.78043420893652,1.00000000275952,0.661297666453072
13600.0000000319,7.79229665968722,1.00000000291398,0.666519454500153
13700.0000000323,7.80330753582006,1.00000000280475,0.657958183902794
13800.0000000327,7.81747302698994,1.00000000303337,0.647842607678412
13900.000000033,7.83012008631247,1.00000000328067,0.675296231518428
14000.0000000334,7.83589343280317,1.00000000299976,0.675651193450267
14100.0000000338,7.8464988204277,1.00000000323852,0.671268000672308
14200.0000000341,7.85273194127005,1.00000000290197,0.667439558047664
14300.0000000345,7.85818892515464,1.00000000307967,0.685978834082959
14400.0000000349,7.86113305613546,1.00000000297093,0.66845639699128
14500.0000000352,7.8632023852062,1.00000000328042,0.682497548670276
14600.0000000356,7.85766011556134,1.00000000332708,0.6642167830284
14700.0000000359,7.85479665007497,1.00000000280862,0.655332178192171
14800.0000000363,7.85512330404022,1.00000000317855,0.671929809295503
14900.0000000367,7.85355078655782,1.00000000316232,0.665197908760992
15000.000000037,7.85440385894126,1.0000000035917,0.669314298067448
15100.0000000374,7.8487088912914,1.00000000346748,0.689172007694639
15200.0000000378,7.8391225106479,1.00000000314046,0.670654780567368
15300.0000000381,7.82924081219698,1.00000000305337,0.678413764922789
15400.0000000385,7.81879393645592,1.00000000314014,0.680856564817304
15500.0000000389,7.80978040756676,1.00000000324996,0.668891765914416
15600.0000000392,7.79334964329694,1.00000000367447,0.666615558752505
15700.0000000396,7.77099209631132,1.00000000317782,0.685329332202732
15800.0000000399,7.74899597820123,1.00000000327693,0.671500236032609
15900.0000000403,7.7253125288994,1.00000000332058,0.683781709598756
16000.0000000407,7.69473965320107,1.00000000350194,0.68012950580271
16100.000000041,7.66028405768117,1.0000000032183,0.674428562687206
16200.0000000414,7.62449222801316,1.00000000318007,0.673518117737008
16300.0000000418,7.58728158960161,1.00000000333943,0.681754029164847
16400.0000000418,7.54966831660507,1.00000000273081,0.681790468266193
16500.0000000404,7.51251792882125,1.00000000311376,0.674663034236444
16600.0000000389,7.47568593025504,1.00000000340756,0.665499197582576
16700.0000000375,7.44086022902846,1.00000000359198,0.663582383117361
16800.000000036,7.40686157839785,1.00000000363322,0.656019397424781
16900.0000000346,7.3755628371888,1.00000000366904,0.666582568991915
17000.0000000331,7.34697589891768,1.00000000393071,0.675109412553448
17100.0000000317,7.32147190793797,1.0000000036297,0.686398490184326
17200.0000000302,7.29772745814836,1.00000000384622,0.684940150402724
17300.0000000287,7.27137027413588,1.00000000346425,0.679499013162412
17400.0000000273,7.2417885206133,1.00000000386673,0.672236509583245
17500.0000000258,7.20650831552475,1.00000000354492,0.637201903408088
17600.0000000244,7.17188734110212,1.0000000031839,0.618912425494601
17700.0000000229,7.15179609997914,1.00000000300821,0.60788444057823
17800.0000000215,7.16031016563854,1.00000000282841,0.585008210810069
17900.00000002,7.21876781009896,1.0000000024093,0.56543828201796
18000.0000000186,7.34048046797683,1.00000000265307,0.54575063713773
18100.0000000171,7.54025365073409,1.0000000026879,0.546636938552652
18200.0000000156,7.80035713090336,1.00000000296469,0.545979262299707
18300.0000000142,8.13339789753405,1.0000000029861,0.553002362530331
18400.0000000127,8.48508625683144,1.00000000355479,0.55255403797349
18500.0000000113,8.87701167214038,1.00000000342683,0.558939666109218
18600.0000000098,9.25504815069157,1.00000000352662,0.570523848191384
18700.0000000084,9.64920389413201,1.00000000382944,0.575045687600144
18800.0000000069,10.0292531829314,1.00000000360279,0.574940529376132
18900.0000000055,10.4039956614989,1.00000000332275,0.582251363380283
19000.000000004,10.7763420896917,1.0000000034468,0.586860148430239
19100.0000000026,11.1346033602116,1.00000000349947,0.596123078162917
19200.0000000011,11.4954346049237,1.00000000360558,0.598989234885571
19299.9999999996,11.8388808970371,1.00000000362602,0.606084350822022
19399.9999999982,12.1848985804479,1.00000000424319,0.621170656990207
19499.9999999967,12.5083697803847,1.00000000347004,0.640085612542291
19599.9999999953,12.828403380035,1.00000000359333,0.638166703649472
19699.9999999938,13.1307335346435,1.00000000385758,0.658245955273375
19799.9999999924,13.4156429255873,1.00000000353701,0.654151722661276
19899.9999999909,13.7042866170173,1.00000000374886,0.665447194191885
19999.9999999895,13.959017741503,1.0000000038006,0.663454561133364
20099.999999988,14.2104669915168,1.0000000037972,0.674307233784153
20199.9999999865,14.4411250165829,1.0000000036589,0.663823718193843
20299.9999999851,14.6682539864507,1.00000000327025,0.669573659578087
20399.9999999836,14.8880491688185,1.0000000036044,0.686430497391628
20499.9999999822,15.0879526943171,1.0000000037946,0.681787101273192
20599.9999999807,15.281728430146,1.00000000360694,0.689524490680753
20699.9999999793,15.4647089149714,1.00000000346192,0.680076512571009
20799.9999999778,15.6503577256934,1.00000000369513,0.685260631775041
20899.9999999764,15.8114332443679,1.00000000374193,0.685632879384893
20999.9999999749,15.964616779961,1.0000000032861,0.686376481937666
21099.9999999734,16.1069060878751,1.00000000378033,0.696787424615995
21199.999999972,16.2419633549474,1.00000000403926,0.700225625679264
21299.9999999705,16.3776713979386,1.00000000406488,0.698139987512276
21399.9999999691,16.5119574643095,1.00000000384797,0.700262412008384
21499.9999999676,16.651290598218,1.00000000369211,0.696870267979921
21599.9999999662,16.7908714265615,1.00000000377964,0.689718064566668
21699.9999999647,16.9310018184019,1.0000000042654,0.666321477736869
21799.9999999633,17.0630296273013,1.00000000387401,0.692554645497534
21899.9999999618,17.1841649832977,1.00000000459898,0.68897150018192
21999.9999999603,17.3046482782732,1.00000000345038,0.68832243783473
22099.9999999589,17.4336495965434,1.00000000357263,0.666292224534109
22199.9999999574,17.5777472428573,1.00000000366442,0.689039228856101
22299.999999956,17.7074956784411,1.00000000406822,0.697085276972292
22399.9999999545,17.8201825521492,1.00000000424866,0.695834331906741
22499.9999999531,17.925357925015,1.00000000370991,0.686087795965908
22599.9999999516,18.0293057739485,1.00000000386415,0.693984509115004
22699.9999999502,18.1409362506876,1.00000000391586,0.682576240085419
22799.9999999487,18.2479629926802,1.00000000364063,0.693558584302125
22899.9999999473,18.3531937864964,1.00000000407188,0.689873257825719
22999.9999999458,18.4482532933158,1.00000000412203,0.706364267437488
23099.9999999443,18.5506579835507,1.00000000318417,0.687797904644118
23199.9999999429,18.6657744663984,1.00000000345391,0.67397829089057
23299.9999999414,18.7902314470283,1.00000000436483,0.688670474551439
23399.99999994,18.9027549298672,1.00000000390303,0.687290300271294
23499.9999999385,19.0126965281504,1.00000000436946,0.678145639720925
23599.9999999371,19.1187681115039,1.00000000413823,0.69675306751223
23699.9999999356,19.2243133965159,1.00000000396075,0.699586350209389
23799.9999999342,19.3293292940247,1.00000000423611,0.696967416058243
23899.9999999327,19.4345564254569,1.00000000389606,0.676478182200995
23999.9999999312,19.5433684704922,1.00000000413739,0.692459624391069
24099.9999999298,19.6461892624107,1.00000000420134,0.694395536883646
24199.9999999283,19.7422142441083,1.00000000382037,0.703189639666181
24299.9999999269,19.848540794089,1.00000000413448,0.690420963699242
24399.9999999254,19.9601106179589,1.00000000391969,0.694699087297808
24499.999999924,20.0724290689851,1.0000000040037,0.691610868210574
24599.9999999225,20.1754144233972,1.00000000431493,0.693271254761892
24699.9999999211,20.275177154938,1.00000000375138,0.70156575223467
24799.9999999196,20.3891159645236,1.0000000040394,0.681932237871475
24899.9999999181,20.5118877939233,1.00000000413078,0.684496669330436
24999.9999999167,20.6278329777429,1.00000000451091,0.703309554546019
25099.9999999152,20.7306695970472,1.00000000398425,0.697796872746521
25199.9999999138,20.8325029541592,1.00000000371249,0.694712808649327
25299.9999999123,20.933195211372,1.00000000420442,0.699081142131503
25399.9999999109,21.0350806808093,1.00000000398743,0.689026787208947
25499.9999999094,21.1415104206647,1.00000000390351,0.696038772600135
25599.999999908,21.2379911709383,1.00000000423334,0.701148944841157
25699.9999999065,21.3366876489606,1.00000000422546,0.693086062071497
25799.9999999051,21.4395998107798,1.00000000422115,0.70512823376864
25899.9999999036,21.5418960965276,1.00000000450487,0.701247254848884
25999.9999999021,21.646646099104,1.00000000417693,0.696600445671617
26099.9999999007,21.7677995697625,1.00000000386569,0.696325640360194
26199.9999998992,21.8970027802574,1.00000000405596,0.682485568421226
26299.9999998978,22.0269309238833,1.00000000438142,0.667105027916931
26399.9999998963,22.1746457470326,1.00000000401145,0.678002776168334
26499.9999998949,22.3393335292071,1.00000000394651,0.697169681515097
26599.9999998934,22.4997183123174,1.00000000460475,0.712709764181065
26699.999999892,22.651904651603,1.00000000432996,0.713040602096859
26799.9999998905,22.7898833118589,1.00000000441259,0.704479542127568
26899.999999889,22.9220150216587,1.00000000464259,0.700995435287919
26999.9999998876,23.0543479298318,1.00000000444107,0.695790761100537
27099.9999998861,23.1964051690892,1.00000000443936,0.696088467677353
27199.9999998847,23.3419646290623,1.00000000436867,0.702467594978772
27299.9999998832,23.4734722999264,1.00000000416439,0.70775842711636
27399.9999998818,23.6122151167321,1.00000000398538,0.689118462878982
27499.9999998803,23.7675117231681,1.00000000438536,0.695591494157705
27599.9999998789,23.9298677645507,1.00000000422699,0.687700029699484
27699.9999998774,24.1048038083956,1.0000000044359,0.684226076100244
27799.9999998759,24.2812182520776,1.00000000442244,0.683738823790486
27899.9999998745,24.4632584819106,1.00000000452778,0.689494728926381
27999.999999873,24.637300573428,1.00000000507762,0.700304096416377
28099.9999998716,24.8025040107869,1.00000000437123,0.700371320592584
28199.9999998701,24.9760672497432,1.00000000446593,0.695765039688169
28299.9999998687,25.1580387745084,1.00000000409409,0.692513773732329
28399.9999998672,25.3353380341156,1.00000000471802,0.693339348820002
28499.9999998658,25.5088542024737,1.00000000506651,0.705596352955678
28599.9999998643,25.680558490968,1.0000000046046,0.706905194980435
28699.9999998629,25.8552129038353,1.00000000505318,0.699449437125035
28799.9999998614,26.0313419181641,1.00000000482649,0.692580083505443
28899.9999998599,26.2071953952052,1.00000000435598,0.697456251631704
28999.9999998585,26.3891195506991,1.00000000452361,0.699744931126815
29099.999999857,26.5696360432811,1.00000000476602,0.70132637857083
