Time,AGPnorm,Energy,Entropy
0,0,1,-1.14722711667871e-17
99.9999999999986,8.77046156332225e-06,1.00000000000548,0.000423205225722258
199.999999999993,0.000721834479614402,1.00000000000005,0.000655193007617569
300,0.00186559036912838,1.00000000000292,0.00121597946606193
400.000000000022,0.00260028591536056,1.00000000000395,0.00203488495937128
500.000000000045,0.00321331397987813,0.999999999999473,0.00278924555316045
600.000000000068,0.00457933146459208,1.00000000000531,0.0039349431311579
700.000000000091,0.00574857743149659,1.00000000000084,0.00499455746562042
800.000000000113,0.0074487741097741,1.00000000000189,0.00627649609846368
900.000000000136,0.00921158420617032,1.00000000000474,0.00767539006686921
1000.00000000016,0.0108016960117183,0.999999999999277,0.00907626561690775
1100.0000000001,0.0130087950536807,1.00000000000481,0.010737495561942
1200,0.0153858511667524,1.00000000000182,0.0123101769649246
1299.99999999991,0.0179067821975216,1.00000000000091,0.0141115453778507
1399.99999999982,0.0204432725748953,1.00000000000525,0.0159609827816138
1499.99999999973,0.0230772754873824,0.999999999999455,0.0178147233551418
1599.99999999964,0.0261534215761213,1.00000000000404,0.0199171402360196
1699.99999999955,0.0293639342488864,1.00000000000285,0.0219032657518002
1799.99999999946,0.0326554067327178,1.00000000000008,0.0241230097866657
1899.99999999937,0.0360127613244035,1.00000000000544,0.0263725775897196
1999.99999999928,0.0396794959208299,0.999999999999986,0.0285957451480025
2099.99999999919,0.0435288470626955,1.0000000000031,0.0311029700025404
2199.99999999909,0.0473269725529629,1.00000000000379,0.0334671477337671
2299.999999999,0.0513028886233132,0.999999999999544,0.036045756354688
2399.99999999891,0.0554510845040186,1.0000000000053,0.0386884433849596
2499.99999999882,0.0599934013323892,1.00000000000078,0.0412563421129503
2599.99999999873,0.0645045960528063,1.00000000000205,0.0441480799744828
2699.99999999864,0.0688057164439976,1.00000000000455,0.0468877216856693
2799.99999999855,0.073429864134244,0.999999999999379,0.0498007644852394
2899.99999999846,0.0782311666158133,1.00000000000485,0.0528569885948992
2999.99999999837,0.0833424250563745,1.00000000000172,0.0557831297681549
3099.99999999828,0.0883797009575332,1.00000000000104,0.0590564141781239
3199.99999999819,0.0931979607347371,1.00000000000504,0.0621992821960172
3299.99999999809,0.0984691021853658,0.999999999999593,0.0654636736831613
3399.999999998,0.103749412700157,1.00000000000415,0.0689671705986459
3499.99999999791,0.109131468214239,1.00000000000267,0.072297092555912
3599.99999999782,0.114538823039203,1.00000000000023,0.0759729979667473
3699.99999999773,0.119868309149452,1.00000000000523,0.079586376646127
3799.99999999764,0.125687587657872,1.00000000000011,0.0832637188883693
3899.99999999755,0.131301343782691,1.00000000000323,0.0872686478975689
3999.99999999746,0.136783222442531,1.00000000000354,0.0910838759037861
4099.99999999738,0.1424536287917,0.999999999999778,0.0952244359695546
4199.99999999775,0.148184915276208,1.00000000000513,0.0994261554539178
4299.99999999811,0.154296234899664,1.00000000000084,0.103628321810104
4399.99999999848,0.160112006013175,1.0000000000022,0.108241509066847
4499.99999999884,0.165664641591901,1.00000000000426,0.112691203756624
4599.9999999992,0.171585290516582,0.999999999999718,0.117447563673211
4699.99999999957,0.177543509004783,1.0000000000048,0.122427774754117
4799.99999999993,0.183651850358536,1.00000000000169,0.127372610494404
4900.00000000029,0.189539720534555,1.00000000000125,0.13280899106144
5000.00000000066,0.195208356397275,1.00000000000482,0.13819529996244
5100.00000000102,0.201334771650244,1.00000000000009,0.143890086536105
5200.00000000139,0.207408799098272,1.00000000000444,0.150008468651469
5300.00000000175,0.213270476546648,1.00000000000295,0.156112263267487
5400.00000000211,0.219183140280058,1.00000000000128,0.162809017157611
5500.00000000248,0.225058821625559,1.00000000000617,0.169664407601707
5600.00000000284,0.231163836617516,1.00000000000252,0.176823811491814
5700.00000000321,0.237599765134381,1.00000000000647,0.184589875665957
5800.00000000357,0.243236261145993,1.00000000000791,0.192321551855484
5900.00000000393,0.249690507061554,1.00000000000706,0.200611580746468
6000.0000000043,0.256884534422265,1.00000000001393,0.209139258911458
6100.00000000466,0.263704992803896,1.00000000001336,0.217743722004409
6200.00000000502,0.273325931958445,1.00000000001809,0.226847681762126
6300.00000000539,0.282429912199543,1.00000000002494,0.235652835978382
6400.00000000575,0.295292020344586,1.00000000002582,0.244725429576414
6500.00000000612,0.313050433443606,1.00000000003645,0.253872853333644
6600.00000000648,0.332704729294928,1.00000000003809,0.262733254690325
6700.00000000684,0.36386769947583,1.00000000004587,0.271848837126582
6800.00000000721,0.40092216427753,1.000000000055,0.280528338060557
6900.00000000757,0.452629520401048,1.0000000000605,0.289162919293924
7000.00000000793,0.522806272098905,1.00000000007038,0.297878433172995
7100.0000000083,0.607835179359416,1.0000000000777,0.306019681303976
7200.00000000866,0.726103875686371,1.00000000008636,0.31434873431125
7300.00000000903,0.869135701917253,1.00000000009669,0.322347956655835
7400.00000000939,1.05233767767508,1.00000000009885,0.330138864731141
7500.00000000975,1.28256791011225,1.00000000010655,0.33807570060516
7600.00000001012,1.55542160073146,1.00000000012199,0.345275437028342
7700.00000001048,1.89985389234053,1.00000000012422,0.352736462911479
7800.00000001084,2.30159675422942,1.00000000014088,0.359918211697375
7900.00000001121,2.78371771368043,1.00000000013687,0.366797229243255
8000.00000001157,3.3567382912945,1.000000000148,0.373838064838754
8100.00000001194,4.01054087129512,1.0000000001599,0.380217854068849
8200.0000000123,4.78687070473943,1.00000000016537,0.386705705741989
8300.00000001266,5.66248303852052,1.00000000017378,0.393139682069134
8400.00000001303,6.66550402772673,1.000000000179,0.399017611467238
8500.00000001339,7.81285995223358,1.00000000018714,0.405128101716078
8600.00000001376,9.08078048078209,1.0000000002003,0.410742116389155
8700.00000001412,10.5252877262543,1.0000000001904,0.416329749403422
8800.00000001448,12.114457093367,1.00000000019719,0.422031903391101
8900.00000001485,13.872897654248,1.00000000021067,0.426945913631614
9000.00000001521,15.8300274581745,1.00000000021252,0.432193797151922
9100.00000001557,17.941400060566,1.00000000022789,0.437116438548901
9200.00000001594,20.2758469717997,1.00000000022075,0.441797737797807
9300.0000000163,22.7978855993386,1.00000000023049,0.446658555030449
9400.00000001667,25.5166482741505,1.00000000024052,0.450893811418523
9500.00000001703,28.4804815261052,1.00000000023148,0.455290974502895
9600.00000001739,31.6225857326609,1.00000000023877,0.459651992096747
9700.00000001776,35.0171277295859,1.00000000024563,0.4633892043845
9800.00000001812,38.635372866831,1.00000000024464,0.467534817006694
9900.00000001848,42.4590842694793,1.00000000026023,0.471175452838445
10000.0000000188,46.5594673681505,1.00000000025511,0.474745058281563
10100.0000000192,50.8521543245094,1.00000000026285,0.478567999444482
10200.0000000196,55.404625712799,1.00000000025542,0.481691672288263
10300.0000000199,60.2062734033732,1.00000000026982,0.485005196995529
10400.0000000203,65.2055049427877,1.00000000028306,0.488164518898476
10500.0000000207,70.49345145144,1.00000000027159,0.49103257402391
10600.000000021,75.9788968083362,1.0000000002794,0.494251883221551
10700.0000000214,81.7089745273341,1.00000000026942,0.496882501158837
10800.0000000218,87.7004905076447,1.00000000027142,0.499511399377043
10900.0000000221,93.8699228499549,1.0000000002874,0.502315097481728
11000.0000000225,100.318884452569,1.00000000028488,0.5045101165044
11100.0000000229,106.964617955569,1.00000000028404,0.507062224577457
11200.0000000232,113.820910833179,1.00000000026969,0.509427558973976
11300.0000000236,120.936650676109,1.0000000002843,0.51137640415798
11400.0000000239,128.204297778127,1.00000000028885,0.513692805534428
11500.0000000243,135.722379318117,1.00000000030133,0.515378186736523
11600.0000000247,143.430537525356,1.0000000002913,0.517385842149164
11700.000000025,151.303129158722,1.00000000028544,0.519366904179071
11800.0000000254,159.417839198515,1.0000000002907,0.520917260105516
11900.0000000258,167.658053749578,1.00000000028553,0.522857175115532
12000.0000000261,176.102762639522,1.0000000002849,0.5242539286747
12100.0000000265,184.724763834526,1.00000000028298,0.525730338629345
12200.0000000269,193.461197336235,1.00000000028931,0.527317275255253
12300.0000000272,202.408841774394,1.00000000029169,0.528330926862657
12400.0000000276,211.45540742519,1.00000000027935,0.529989041250182
12500.0000000279,220.651715614729,1.00000000028386,0.531023105729879
12600.0000000283,230.005748388614,1.00000000028997,0.532008756868514
12700.0000000287,239.426432536333,1.00000000027519,0.533525690060049
12800.000000029,249.015282787863,1.00000000027601,0.534209020974064
12900.0000000294,258.679897695088,1.00000000028514,0.535238894630652
13000.0000000298,268.435518305962,1.00000000027398,0.536286741599483
13100.0000000301,278.323325719888,1.00000000028426,0.536818428556946
13200.0000000305,288.234635131512,1.00000000027693,0.537840082078544
13300.0000000309,298.264798659129,1.0000000002799,0.538370139832413
13400.0000000312,308.348877784981,1.00000000029063,0.539052418794477
13500.0000000316,318.466726662987,1.00000000027121,0.53979303547639
13600.0000000319,328.683948940798,1.00000000026936,0.54029870539419
13700.0000000323,338.892456338399,1.00000000027543,0.541034292943371
13800.0000000327,349.165339567026,1.00000000027381,0.541487566299695
13900.000000033,359.471026468085,1.00000000028297,0.541729940592618
14000.0000000334,369.759462994113,1.00000000027557,0.542272235473024
14100.0000000338,380.110251588777,1.00000000027747,0.542335759940039
14200.0000000341,390.424901711918,1.00000000026422,0.54315508913804
14300.0000000345,400.752445862305,1.00000000026596,0.543462327770165
14400.0000000349,411.091158628428,1.00000000026203,0.54328070570469
14500.0000000352,421.370566765144,1.00000000026264,0.543821833587326
14600.0000000356,431.673125835105,1.00000000026206,0.543803115785711
14700.0000000359,441.919552134105,1.00000000025671,0.544089878282257
14800.0000000363,452.128568574976,1.00000000025302,0.544660184504292
14900.0000000367,462.327627001203,1.00000000025057,0.544423050431859
15000.000000037,472.435352349941,1.00000000025383,0.544374063092728
15100.0000000374,482.525760643101,1.00000000025443,0.54424427906931
15200.0000000378,492.545293289781,1.00000000025746,0.54457046789655
15300.0000000381,502.486069331561,1.00000000025372,0.544835368825323
15400.0000000385,512.393771695368,1.0000000002517,0.5445712851926
15500.0000000389,522.186763282188,1.00000000024572,0.544633882842459
15600.0000000392,531.926557581288,1.000000000252,0.544311194966142
15700.0000000396,541.581701148272,1.00000000024494,0.544236746731069
15800.0000000399,551.124718353519,1.00000000024756,0.544642004438837
15900.0000000403,560.611879963276,1.00000000023482,0.544322282749092
16000.0000000407,569.968487312902,1.00000000024002,0.544375498728932
16100.000000041,579.239212145601,1.00000000023275,0.544293870862087
16200.0000000414,588.41460062904,1.00000000024181,0.543756479527556
16300.0000000418,597.453949255508,1.00000000023496,0.544066731619583
16400.0000000418,606.414295260453,1.00000000022949,0.543484776685159
16500.0000000404,615.236611603345,1.00000000023429,0.544009690055533
16600.0000000389,623.945896044037,1.00000000023469,0.543507508644926
16700.0000000375,632.550957166569,1.00000000023063,0.543602776081172
16800.000000036,641.004514553048,1.00000000022832,0.543100500787392
16900.0000000346,649.35876742874,1.00000000023081,0.542989623168615
17000.0000000331,657.572133701359,1.00000000022735,0.542356755758122
17100.0000000317,665.648882069927,1.00000000023062,0.542674817623085
17200.0000000302,673.615756771999,1.00000000022376,0.542059047515802
17300.0000000287,681.418797897997,1.00000000022382,0.542343123831554
17400.0000000273,689.106234918345,1.00000000022187,0.541596829292686
17500.0000000258,696.648641467159,1.00000000022072,0.541424602892304
17600.0000000244,704.040090121472,1.00000000021412,0.541150594088934
17700.0000000229,711.312825997327,1.00000000021677,0.540680906413876
17800.0000000215,718.417317482322,1.0000000002107,0.540529887345758
17900.00000002,725.391743809897,1.00000000021203,0.540526094880416
18000.0000000186,732.221613137781,1.00000000020998,0.54001396387449
18100.0000000171,738.889468158473,1.000000000207,0.540121447230287
18200.0000000156,745.431269814256,1.00000000020772,0.539207870114423
18300.0000000142,751.80505096523,1.00000000020486,0.539136814847395
18400.0000000127,758.038102026713,1.00000000020918,0.538613607451506
18500.0000000113,764.12766895111,1.00000000020121,0.538261897720808
18600.0000000098,770.050036419127,1.00000000020302,0.538342615117855
18700.0000000084,775.840871265357,1.00000000019706,0.537986248391071
18800.0000000069,781.467989153933,1.00000000019908,0.53797636869
18900.0000000055,786.945936958903,1.00000000019763,0.537399850486344
19000.000000004,792.283454696615,1.00000000019845,0.536779697300878
19100.0000000026,797.452586351759,1.00000000018933,0.536407051942047
19200.0000000011,802.487454376863,1.00000000019402,0.536129679252241
19299.9999999996,807.364181302871,1.00000000018726,0.535864875311358
19399.9999999982,812.087797589529,1.00000000018939,0.536150421899983
19499.9999999967,816.675355320507,1.00000000018638,0.53584920767964
19599.9999999953,821.097499374304,1.00000000018773,0.535703009106472
19699.9999999938,825.384240480731,1.00000000018753,0.534978984620496
19799.9999999924,829.519180912801,1.00000000018566,0.533873491629204
19899.9999999909,833.500604112261,1.00000000017804,0.533748150843436
19999.9999999895,837.349219447581,1.00000000018172,0.533041093418831
20099.999999988,841.037895020553,1.00000000017573,0.533712795310209
20199.9999999865,844.591913021245,1.00000000018048,0.534340022957034
20299.9999999851,848.003649642604,1.00000000017979,0.534417551818718
20399.9999999836,851.267251187256,1.00000000017909,0.534630774468962
20499.9999999822,854.40369396206,1.0000000001766,0.533046920873069
20599.9999999807,857.388849239087,1.00000000017811,0.531777764077455
20699.9999999793,860.23973268613,1.00000000016626,0.530243437650873
20799.9999999778,862.953869092139,1.0000000001746,0.529131566905646
20899.9999999764,865.520931581263,1.00000000017085,0.530219782571509
20999.9999999749,867.963702771287,1.0000000001675,0.531652026165915
21099.9999999734,870.266200237523,1.00000000017073,0.533967133990993
21199.999999972,872.444173614881,1.00000000016284,0.535351919499918
21299.9999999705,874.502502138014,1.00000000016882,0.53480940455065
21399.9999999691,876.428475492722,1.0000000001666,0.532830378726271
21499.9999999676,878.239162563435,1.00000000016101,0.529080718852454
21599.9999999662,879.915995823984,1.00000000016433,0.525714213986365
21699.9999999647,881.462839947687,1.00000000015461,0.523875566025894
21799.9999999633,882.885859082032,1.00000000015295,0.524697921049211
21899.9999999618,884.174605866913,1.0000000001557,0.528602417528777
21999.9999999603,885.353129532309,1.00000000016151,0.533327693500856
22099.9999999589,886.420593835451,1.00000000016777,0.537368673813942
22199.9999999574,887.385243148505,1.00000000016913,0.53907187389933
22299.999999956,888.261213013196,1.00000000017207,0.537170794858807
22399.9999999545,889.030425500054,1.00000000016098,0.532202249220187
22499.9999999531,889.701065572447,1.0000000001526,0.524921457544206
22599.9999999516,890.256880091288,1.00000000014877,0.518328226676481
22699.9999999502,890.689602840465,1.00000000013802,0.515526044786252
22799.9999999487,891.008825423696,1.00000000013832,0.517567686130077
22899.9999999473,891.208787508986,1.00000000014293,0.524569303800568
22999.9999999458,891.314378186117,1.00000000014988,0.533234240952449
23099.9999999443,891.338385064767,1.00000000016416,0.540499620985619
23199.9999999429,891.290310929019,1.00000000017494,0.544495686739096
23299.9999999414,891.187006900027,1.00000000017529,0.543076416162984
23399.99999994,891.014674269189,1.00000000016877,0.536689621580755
23499.9999999385,890.770970996638,1.0000000001507,0.526030022241968
23599.9999999371,890.439989960482,1.00000000014143,0.513688505002955
23699.9999999356,890.001817084383,1.00000000012314,0.504920128744645
23799.9999999342,889.459167330707,1.00000000012336,0.502542901404437
23899.9999999327,888.805891917467,1.00000000012185,0.508905478223629
23999.9999999312,888.062165912694,1.00000000013526,0.521160682094386
24099.9999999298,887.250402178533,1.00000000015923,0.534258016759005
24199.9999999283,886.385770360443,1.00000000018112,0.544755735286476
24299.9999999269,885.49365644889,1.00000000018455,0.549882258689835
24399.9999999254,884.574210120929,1.00000000018854,0.548669316035243
24499.999999924,883.626308433177,1.00000000018181,0.540483650622078
24599.9999999225,882.639720426448,1.00000000016422,0.526258898689472
24699.9999999211,881.587631559555,1.00000000014137,0.508767173495211
24799.9999999196,880.457959464612,1.00000000011326,0.492914165912593
24899.9999999181,879.231389662986,1.00000000010198,0.484536043499397
24999.9999999167,877.908316718317,1.00000000010477,0.488043819431237
25099.9999999152,876.50375506768,1.00000000011941,0.502115696452241
25199.9999999138,875.032849281935,1.00000000014466,0.521220277804264
25299.9999999123,873.527819568701,1.00000000017154,0.538495327701996
25399.9999999109,872.007516698092,1.00000000018935,0.549908431799723
25499.9999999094,870.486568117033,1.00000000020009,0.5555664239684
25599.999999908,868.974940307135,1.00000000020256,0.552996780928644
25699.9999999065,867.460557593589,1.00000000019301,0.543441272283504
25799.9999999051,865.933689156393,1.00000000017335,0.526983363169532
25899.9999999036,864.370640088903,1.00000000013858,0.504570525650204
25999.9999999021,862.745994187071,1.00000000011143,0.482422532485326
26099.9999999007,861.047778696924,1.00000000009498,0.466870779268838
26199.9999998992,859.263658427272,1.00000000008791,0.464624708004224
26299.9999998978,857.405612759398,1.00000000010199,0.477815114619282
26399.9999998963,855.491483801906,1.00000000012891,0.501150848645366
26499.9999998949,853.542736527027,1.0000000001556,0.524769950080277
26599.9999998934,851.588997507132,1.00000000019185,0.543626431560145
26699.999999892,849.64483100081,1.00000000020683,0.554832995840387
26799.9999998905,847.724700731058,1.0000000002257,0.559329350632466
26899.999999889,845.833296795351,1.00000000021989,0.556928666198832
26999.9999998876,843.959573879432,1.00000000020989,0.547176217598401
27099.9999998861,842.095024111248,1.00000000018843,0.53059046464151
27199.9999998847,840.214460100777,1.00000000015329,0.505595923688051
27299.9999998832,838.29704217874,1.0000000001208,0.478508970647018
27399.9999998818,836.325389261481,1.00000000008905,0.454701256743691
27499.9999998803,834.284744190173,1.00000000008035,0.443440059366683
27599.9999998789,832.181598175528,1.00000000008116,0.449525907792502
27699.9999998774,830.024616072883,1.00000000010502,0.471322339558115
27799.9999998759,827.834391513722,1.00000000013386,0.499663447305309
27899.9999998745,825.635049952544,1.00000000018293,0.526683557300001
27999.999999873,823.443443889154,1.00000000020263,0.544110885144442
28099.9999998716,821.277645870141,1.00000000023416,0.556439646011518
28199.9999998701,819.14697090599,1.0000000002332,0.559403247871923
28299.9999998687,817.050874878679,1.00000000023373,0.558697305519184
28399.9999998672,814.990099973644,1.00000000023286,0.552031435914464
28499.9999998658,812.94853106025,1.00000000019545,0.536757732893394
28599.9999998643,810.913568902115,1.00000000017874,0.516070824579328
28699.9999998629,808.865860416723,1.00000000013826,0.486181525007373
28799.9999998614,806.784870894626,1.0000000001071,0.456490860299721
