Time,AGPnorm,Energy,Entropy
0,0,1,3.47037871246614e-18
99.9999999999986,0.00189396144352988,0.99999999999934,0.00701159806674892
199.999999999993,0.00550994250426606,0.999999999999656,0.0203591811635535
300,0.0118532908432581,0.999999999999751,0.0400028279508482
400.000000000022,0.0190599814420827,0.99999999999947,0.0636046236433146
500.000000000045,0.0277691027112358,1.00000000000004,0.0924168170236782
600.000000000068,0.0374015546124021,1.00000000000001,0.126282094736575
700.000000000091,0.0468190626971458,1.00000000000402,0.167404860564794
800.000000000113,0.0600797432441866,1.00000000001986,0.217415624269783
900.000000000136,0.0757751259567767,1.00000000007512,0.276928338919198
1000.00000000016,0.142338741273705,1.00000000017979,0.340557851275761
1100.0000000001,0.325461992628225,1.00000000030615,0.399526003292312
1200,0.830113643435787,1.00000000048386,0.44787468115046
1299.99999999991,1.83051994295188,1.00000000059655,0.48443499570734
1399.99999999982,3.55178602009862,1.00000000072294,0.509779304877072
1499.99999999973,6.08242159498114,1.00000000075588,0.526838034497531
1599.99999999964,9.4687543913793,1.00000000081732,0.536462485458922
1699.99999999955,13.6252740115362,1.00000000079284,0.541095139335045
1799.99999999946,18.43810781182,1.00000000080504,0.542415053825405
1899.99999999937,23.7167572251839,1.00000000079514,0.540649157822655
1999.99999999928,29.2859438227271,1.00000000079089,0.536340714787055
2099.99999999919,34.942875782662,1.00000000074015,0.531867179192207
2199.99999999909,40.5264695922341,1.00000000074929,0.524747899891584
2299.999999999,45.879299370371,1.00000000071654,0.517724800318302
2399.99999999891,50.8908921906967,1.000000000658,0.514883695789825
2499.99999999882,55.4632801876819,1.00000000063642,0.500981839123188
2599.99999999873,59.5320340000846,1.00000000059153,0.497040120673355
2699.99999999864,63.0778340307823,1.00000000057166,0.503502723132834
2799.99999999855,66.0729392250395,1.00000000054466,0.486341080051224
2899.99999999846,68.480109651567,1.00000000052499,0.462493568102318
2999.99999999837,70.3315851326849,1.00000000049917,0.4844113024923
3099.99999999828,71.7516403456464,1.00000000050303,0.508877594787008
3199.99999999819,72.7524829467533,1.00000000049369,0.472669738189798
3299.99999999809,73.228506527567,1.00000000034059,0.416779554201557
3399.999999998,73.2155544557203,1.00000000036495,0.448481854981927
3499.99999999791,72.9753327578017,1.00000000053829,0.519270628603951
3599.99999999782,72.6749628334096,1.0000000005942,0.531537005496801
3699.99999999773,72.2182203844813,1.00000000040966,0.451171756939624
3799.99999999764,71.4092987970818,1.00000000020909,0.34953498515441
3899.99999999755,70.277073358367,1.00000000026868,0.384789332276358
3999.99999999746,69.0598626989318,1.00000000053868,0.488845530887097
4099.99999999738,67.9432368740826,1.00000000066182,0.546629097802222
4199.99999999775,66.9768859787695,1.00000000065387,0.545676278653356
4299.99999999811,66.0490165600201,1.00000000048442,0.467850937387464
4399.99999999848,64.9840088136832,1.00000000024784,0.333306981147474
4499.99999999884,63.7444091810071,1.00000000013464,0.26862665629263
4599.9999999992,62.4395550263747,1.00000000030257,0.360397155148476
4699.99999999957,61.1576071439439,1.00000000054399,0.468014344966732
4799.99999999993,59.9426148307545,1.00000000069578,0.50965158223407
4900.00000000029,58.8389119735131,1.00000000072763,0.528432738837736
5000.00000000066,57.8588654367046,1.0000000006649,0.543772904062851
5100.00000000102,56.9507533814819,1.00000000052455,0.509424250248772
5200.00000000139,56.0253727298364,1.00000000033752,0.408451141949714
5300.00000000175,55.0458038634843,1.00000000019928,0.290851812721313
5400.00000000211,54.0691832400335,1.0000000001526,0.242982148899394
5500.00000000248,53.1666717688325,1.00000000025117,0.297683538441641
5600.00000000284,52.332392126996,1.00000000041091,0.401980509867361
5700.00000000321,51.5061587066167,1.0000000005702,0.496025286889696
5800.00000000357,50.6689431483862,1.00000000056124,0.518649441005552
5900.00000000393,49.8377102322971,1.00000000048136,0.476134914343371
6000.0000000043,49.0220661938689,1.00000000052092,0.451327864837457
6100.00000000466,48.2246855795513,1.00000000063226,0.498362851436302
6200.00000000502,47.4631690394227,1.00000000067201,0.549141488576058
6300.00000000539,46.7485171264483,1.00000000064719,0.553653806025064
6400.00000000575,46.062397298271,1.00000000049052,0.505653493914696
6500.00000000612,45.3802918425525,1.00000000030119,0.412336896278402
6600.00000000648,44.726628086289,1.00000000015253,0.304113506607575
6700.00000000684,44.1802921205845,1.00000000012793,0.238318653806076
6800.00000000721,43.802278958457,1.00000000021125,0.24796512830373
6900.00000000757,43.588916057876,1.00000000029617,0.311379915347216
7000.00000000793,43.4764274584437,1.00000000042351,0.39262803416052
7100.0000000083,43.3580653947966,1.00000000052768,0.461113156566892
7200.00000000866,43.1443159920432,1.00000000062871,0.497688879623135
7300.00000000903,42.8138882734478,1.00000000063857,0.519108528614938
7400.00000000939,42.399208634045,1.00000000058039,0.538560376878767
7500.00000000975,41.9534322694926,1.00000000046516,0.522988442730782
7600.00000001012,41.5232527217261,1.00000000033503,0.464784926114517
7700.00000001048,41.1312163131925,1.00000000030752,0.42710175681734
7800.00000001084,40.7571895000279,1.00000000038527,0.442464066187937
7900.00000001121,40.3610510469965,1.00000000051865,0.475893047373506
8000.00000001157,39.9285042164603,1.00000000056429,0.493375320002577
8100.00000001194,39.4667849979333,1.00000000065247,0.501321965655815
8200.0000000123,38.9934301026965,1.00000000069796,0.527089481065002
8300.00000001266,38.5295265453514,1.00000000070295,0.554893770508972
8400.00000001303,38.0854360012052,1.00000000063554,0.557808305601875
8500.00000001339,37.6544301806612,1.00000000050838,0.528152234519838
8600.00000001376,37.2268425802788,1.00000000035772,0.46764933705556
8700.00000001412,36.819335514607,1.00000000021878,0.386754937010265
8800.00000001448,36.4891859064694,1.00000000013809,0.311450119463364
8900.00000001485,36.3129831453714,1.00000000012965,0.256290408823957
9000.00000001521,36.3499878518531,1.00000000015467,0.23743548099414
9100.00000001557,36.6248321309827,1.00000000019158,0.258170618823504
9200.00000001594,37.1044571254074,1.00000000027728,0.30513642187559
9300.0000000163,37.7009097105336,1.00000000039849,0.367118978120856
9400.00000001667,38.2992389346243,1.00000000048832,0.427120020645133
9500.00000001703,38.8184254483295,1.00000000055481,0.473658805625654
9600.00000001739,39.2121252522162,1.00000000058156,0.507114511156832
9700.00000001776,39.4626978648522,1.00000000060397,0.532668663018829
9800.00000001812,39.5884259799802,1.00000000056545,0.546742618385079
9900.00000001848,39.6228689762131,1.00000000047407,0.538199253388087
10000.0000000188,39.6048334971981,1.00000000041505,0.505175910293835
10100.0000000192,39.5524315103902,1.00000000045219,0.476926931370225
10200.0000000196,39.4517072225877,1.00000000053193,0.482512277634565
10300.0000000199,39.2893059002186,1.00000000055703,0.508852967107985
10400.0000000203,39.0798959369059,1.00000000055092,0.52963904459416
10500.0000000207,38.8538407355136,1.00000000044551,0.518465933748225
10600.000000021,38.6357709885642,1.0000000004095,0.491424939761927
10700.0000000214,38.4363747736091,1.00000000040032,0.467915089576587
10800.0000000218,38.2560586517058,1.0000000004088,0.45814760842626
10900.0000000221,38.093416474856,1.0000000003904,0.463018793445745
11000.0000000225,37.9410021938041,1.00000000044139,0.471040744406591
11100.0000000229,37.7888638284652,1.00000000045745,0.487191541338884
11200.0000000232,37.6260096542371,1.00000000047085,0.509353758539145
11300.0000000236,37.4437330453477,1.00000000045503,0.528515735723057
11400.0000000239,37.2468270409613,1.0000000004258,0.528029324453093
11500.0000000243,37.046558704266,1.0000000003783,0.518056144958084
11600.0000000247,36.8471888874502,1.00000000037373,0.515240386266509
11700.000000025,36.6393490602637,1.00000000043883,0.519579714020085
11800.0000000254,36.412938054885,1.00000000050799,0.523071456906528
11900.0000000258,36.1656465356413,1.00000000050588,0.523285169344406
12000.0000000261,35.8989968379151,1.00000000053319,0.524480999783065
12100.0000000265,35.6183599814743,1.00000000059983,0.532393557377569
12200.0000000269,35.3332761226448,1.00000000065384,0.539588600607297
12300.0000000272,35.0571165907399,1.0000000007071,0.547323934375318
12400.0000000276,34.8030416376575,1.00000000072504,0.557455786758966
12500.0000000279,34.5774220557947,1.0000000006782,0.565362219841115
12600.0000000283,34.3749935926484,1.00000000063561,0.563773218672927
12700.0000000287,34.1779216179634,1.00000000055429,0.549410790274584
12800.000000029,33.9663395531041,1.00000000044132,0.518906642459777
12900.0000000294,33.7302987533119,1.00000000033601,0.475988604851656
13000.0000000298,33.4785687591795,1.0000000002501,0.421794306952347
13100.0000000301,33.2436311666094,1.00000000017189,0.364870183123295
13200.0000000305,33.076819545954,1.00000000014305,0.318776983343577
13300.0000000309,33.0359654509542,1.00000000012428,0.281598400845837
13400.0000000312,33.1798522294007,1.00000000010618,0.255127884937353
13500.0000000316,33.5554842231068,1.00000000012275,0.242349766466952
13600.0000000319,34.1816770982292,1.00000000016658,0.251832189845078
13700.0000000323,35.0443233780276,1.00000000024164,0.279492174989193
13800.0000000327,36.1098947863778,1.00000000027402,0.314406999127732
13900.000000033,37.3142913343787,1.00000000040733,0.354885788773759
14000.0000000334,38.56739702603,1.00000000046296,0.393801726972246
14100.0000000338,39.7964061027263,1.00000000054236,0.431810593734817
14200.0000000341,40.9485141648446,1.00000000054299,0.461684795208042
14300.0000000345,41.9885648117046,1.00000000058056,0.489008655583491
14400.0000000349,42.8940668641083,1.00000000058551,0.51396400257342
14500.0000000352,43.6586374400135,1.00000000055769,0.535033058957363
14600.0000000356,44.2927568706198,1.00000000056487,0.543684927493812
14700.0000000359,44.8148358164534,1.00000000051265,0.539155381894069
14800.0000000363,45.2473180728749,1.00000000048573,0.531903435540256
14900.0000000367,45.5991801773718,1.00000000047805,0.537738417832878
15000.000000037,45.872649855528,1.00000000049059,0.552525902422419
15100.0000000374,46.0715104937347,1.00000000046869,0.561071341418396
15200.0000000378,46.2043303826998,1.00000000050065,0.561505859076663
15300.0000000381,46.2812972612999,1.00000000047326,0.544077986801858
15400.0000000385,46.3145656728966,1.00000000045442,0.525902142513998
15500.0000000389,46.3202542536768,1.00000000041947,0.512583524581119
15600.0000000392,46.3037596154106,1.00000000045182,0.513604432199203
15700.0000000396,46.2574542881141,1.0000000005077,0.527820977282305
15800.0000000399,46.1774200946742,1.00000000050233,0.53286540442841
15900.0000000403,46.0744853636743,1.00000000047829,0.536179640220133
16000.0000000407,45.9586150568958,1.00000000044929,0.538733526301426
16100.000000041,45.8294322301126,1.000000000494,0.539343147589895
16200.0000000414,45.6844778521463,1.00000000047481,0.539202475975211
16300.0000000418,45.5267387309451,1.00000000048418,0.535806771640696
16400.0000000418,45.3644121570306,1.00000000041099,0.529439126161191
16500.0000000404,45.2051215635254,1.00000000035872,0.515137472580297
16600.0000000389,45.0540197718752,1.00000000035114,0.509226424870414
16700.0000000375,44.9083816584522,1.0000000003907,0.510964016340708
16800.000000036,44.7593001909409,1.00000000045825,0.513799950961202
16900.0000000346,44.5995553476445,1.00000000046765,0.515853124333008
17000.0000000331,44.4273434751085,1.00000000051237,0.521274929413051
17100.0000000317,44.2417921924222,1.00000000055311,0.53042998788149
17200.0000000302,44.0410445922426,1.00000000056608,0.542948449253089
17300.0000000287,43.8280444943685,1.00000000053718,0.550905837513651
17400.0000000273,43.6087526889852,1.0000000005089,0.550145493514903
17500.0000000258,43.3894285380133,1.00000000046325,0.551327008395909
17600.0000000244,43.1779399986774,1.00000000040108,0.540221374923262
17700.0000000229,42.9848455778216,1.00000000033021,0.516725763563959
17800.0000000215,42.8200217265647,1.00000000031237,0.498582820629427
17900.00000002,42.6851615026817,1.00000000036295,0.478547089387519
18000.0000000186,42.5737819411929,1.00000000041828,0.466902258049338
18100.0000000171,42.4789533047755,1.00000000044606,0.467774071319396
18200.0000000156,42.3990384285305,1.00000000041889,0.476553688245971
18300.0000000142,42.3321422241131,1.00000000040001,0.480834892248595
18400.0000000127,42.2758684515035,1.00000000041208,0.486907060647954
18500.0000000113,42.2241008071108,1.00000000043491,0.501495834034731
18600.0000000098,42.1713270212843,1.00000000044731,0.514009762551452
18700.0000000084,42.1135239639484,1.00000000043375,0.520706084672272
18800.0000000069,42.0463651275824,1.00000000047396,0.523531560409859
18900.0000000055,41.9694906326399,1.00000000046071,0.520411939722511
19000.000000004,41.8853319103539,1.00000000047751,0.519663956808717
19100.0000000026,41.7970097652959,1.00000000045899,0.524605600717148
19200.0000000011,41.7028286918511,1.00000000045533,0.5339300110504
19299.9999999996,41.6011103861664,1.00000000047573,0.54948069482687
19399.9999999982,41.4927624164496,1.00000000044858,0.56321521364315
19499.9999999967,41.3810162421113,1.00000000042298,0.567241928496785
19599.9999999953,41.2671098465043,1.00000000043772,0.567417155939939
19699.9999999938,41.1472584682701,1.00000000046906,0.567353363657212
19799.9999999924,41.0179845577313,1.00000000051858,0.579401863610569
19899.9999999909,40.8764603938885,1.00000000052189,0.58233704375767
19999.9999999895,40.7263465590376,1.00000000046726,0.575268860910303
20099.999999988,40.5759419668202,1.00000000040042,0.574717250621993
20199.9999999865,40.4319465547032,1.00000000035079,0.569038437940827
20299.9999999851,40.2939476917198,1.0000000004252,0.561322095428453
20399.9999999836,40.1544467874484,1.00000000047067,0.560854988154732
20499.9999999822,40.0090960745724,1.00000000048682,0.551417545135059
20599.9999999807,39.8606021076433,1.00000000044293,0.534528149131749
20699.9999999793,39.7146571591245,1.00000000038459,0.530949232306484
20799.9999999778,39.5733592718015,1.00000000042149,0.533373868751815
20899.9999999764,39.4353414571209,1.00000000041155,0.5357356763751
20999.9999999749,39.2977207321539,1.0000000004729,0.540694331223056
21099.9999999734,39.1610752688292,1.00000000040694,0.545005686027987
21199.999999972,39.0267325951791,1.00000000041305,0.553584721661882
21299.9999999705,38.8930710612099,1.00000000043435,0.55162313155484
21399.9999999691,38.7565429985372,1.00000000047428,0.550729774638174
21499.9999999676,38.6133764892839,1.00000000052863,0.55734952751228
21599.9999999662,38.4639629613384,1.00000000050247,0.557031823125768
21699.9999999647,38.310389511757,1.00000000047101,0.549993061100912
21799.9999999633,38.1534653614958,1.00000000047432,0.549201209092672
21899.9999999618,37.9931558401585,1.00000000049552,0.559179261510362
21999.9999999603,37.8304110610633,1.00000000048731,0.57329726173752
22099.9999999589,37.6677789664483,1.0000000004533,0.57526318492415
22199.9999999574,37.506544651672,1.00000000040139,0.566198679859443
22299.999999956,37.3472334066893,1.00000000041619,0.561636922520841
22399.9999999545,37.189424931699,1.00000000046913,0.570901960191864
22499.9999999531,37.0304932979787,1.00000000049886,0.574479808427415
22599.9999999516,36.8699689016958,1.0000000004812,0.577818489689964
22699.9999999502,36.7099199768764,1.00000000043001,0.579994494466108
22799.9999999487,36.5509731002729,1.00000000038535,0.568993321597767
22899.9999999473,36.3934779067681,1.00000000034557,0.559259459964454
22999.9999999458,36.2375493282161,1.00000000037521,0.560884010000621
23099.9999999443,36.0825136098672,1.00000000040277,0.56836217681536
23199.9999999429,35.9283807680177,1.00000000040651,0.570193509966016
23299.9999999414,35.7755655411227,1.00000000040546,0.567501351227358
23399.99999994,35.6242202573792,1.00000000043512,0.5667972190086
23499.9999999385,35.4754583313789,1.00000000046389,0.57741774440657
23599.9999999371,35.3304818871759,1.0000000004752,0.579652352700803
23699.9999999356,35.1915097562605,1.00000000047954,0.566093580604602
23799.9999999342,35.0617362787905,1.00000000053001,0.569181170546457
23899.9999999327,34.9446115022728,1.00000000054724,0.586045060689913
23999.9999999312,34.8466635791923,1.0000000005646,0.587436697114964
24099.9999999298,34.7713868836915,1.00000000058497,0.580577715640595
24199.9999999283,34.7260737087065,1.00000000062085,0.585130845830901
24299.9999999269,34.7156281435834,1.00000000060782,0.593505506791374
24399.9999999254,34.7476125627343,1.00000000065656,0.600450837842649
24499.999999924,34.8314732122062,1.00000000066671,0.604396850073755
24599.9999999225,34.9663512773281,1.00000000070073,0.60682601657065
24699.9999999211,35.1627399917615,1.0000000006781,0.605410577333927
24799.9999999196,35.408687992041,1.00000000070159,0.603043950580989
24899.9999999181,35.7232103123652,1.00000000068733,0.598845463620273
24999.9999999167,36.0826710283317,1.00000000070626,0.59250856524554
25099.9999999152,36.5006911696692,1.00000000071133,0.58457303854893
25199.9999999138,36.9353138899853,1.00000000067838,0.578157534610393
25299.9999999123,37.3877645587351,1.0000000005954,0.57143927998211
25399.9999999109,37.8135224866736,1.00000000053077,0.563041867977921
25499.9999999094,38.2054573126381,1.00000000048654,0.549234026165344
25599.999999908,38.5315685349259,1.00000000043742,0.5296034672185
25699.9999999065,38.7820471362152,1.00000000037744,0.507809033209487
25799.9999999051,38.9473746416741,1.00000000032681,0.483725982907913
25899.9999999036,39.0259752070328,1.00000000027581,0.456559692281957
25999.9999999021,39.0254552671202,1.00000000024159,0.42711508484335
26099.9999999007,38.9587663138432,1.00000000020106,0.399018696798681
26199.9999998992,38.8447764540381,1.00000000018745,0.372989808509931
26299.9999998978,38.7142209698325,1.00000000015713,0.346061147810167
26399.9999998963,38.5897115074404,1.00000000012994,0.32154712726831
26499.9999998949,38.5124811320315,1.00000000011378,0.299405702527506
26599.9999998934,38.5111939165734,1.00000000011598,0.282620326602519
26699.999999892,38.6234614644513,1.00000000009326,0.266150313503824
26799.9999998905,38.8872377615807,1.00000000010115,0.253499419782866
26899.999999889,39.3225259687137,1.00000000010385,0.246544495948542
26999.9999998876,39.9719301844122,1.00000000010126,0.247132506326737
27099.9999998861,40.8368837571128,1.00000000013469,0.250705744503809
27199.9999998847,41.9427273497709,1.00000000015542,0.256494098595273
27299.9999998832,43.2816332994176,1.00000000017649,0.267940452287606
27399.9999998818,44.8455251447688,1.00000000022509,0.28138779720919
27499.9999998803,46.6252792157117,1.00000000026122,0.301575936346587
27599.9999998789,48.5657453337829,1.00000000033058,0.321571651792991
27699.9999998774,50.678813515657,1.00000000033676,0.340345154378389
27799.9999998759,52.8688485338411,1.00000000044527,0.359131063893874
27899.9999998745,55.14824210659,1.00000000044853,0.37514612521034
27999.999999873,57.4291338310136,1.00000000050907,0.391260507948263
28099.9999998716,59.7187111840704,1.00000000054335,0.408526890020242
28199.9999998701,61.9495644031148,1.00000000058536,0.425470202288085
28299.9999998687,64.1148352400118,1.00000000057014,0.440988793776717
28399.9999998672,66.1994339349121,1.00000000059424,0.458603922826782
28499.9999998658,68.1782809940563,1.00000000054425,0.467978190606015
28599.9999998643,70.0593499811083,1.00000000057324,0.477546370094562
28699.9999998629,71.8102695499307,1.00000000056232,0.489752060632028
28799.9999998614,73.4521349808655,1.00000000054164,0.503254998314215
28899.9999998599,74.9688608539808,1.00000000057002,0.519337370781223
28999.9999998585,76.3777354071422,1.00000000052251,0.524386000039521
