Time,AGPnorm,Energy,Entropy
0,0,1,-6.67380521628132e-19
99.9999999999986,0.00653833343926621,1.00000000000471,0.0198725205020321
199.999999999993,0.0181634551203517,1.0000000000003,0.0573834229201457
300,0.0364379861261825,1.00000000000451,0.113463800819015
400.000000000022,0.0548834767708485,1.0000000000187,0.192224082481649
500.000000000045,0.0709929920786135,1.00000000031414,0.307136031287825
600.000000000068,0.204672789824672,1.00000000123452,0.425920736036971
700.000000000091,0.701455411319514,1.00000000206986,0.505546505414507
800.000000000113,1.96633604131137,1.0000000024675,0.550808243595836
900.000000000136,4.03516643626165,1.00000000248158,0.572219544410985
1000.00000000016,6.70770888981825,1.00000000263614,0.579959534762656
1100.0000000001,9.71360250295466,1.00000000275036,0.578306415659887
1200,12.6629240202657,1.0000000023103,0.571649529813239
1299.99999999991,15.3655398996097,1.00000000229577,0.565757862651956
1399.99999999982,17.6029445954884,1.00000000200763,0.558874122002979
1499.99999999973,19.3226944487188,1.0000000018352,0.548904671496903
1599.99999999964,20.5043470238202,1.00000000169238,0.530737068525284
1699.99999999955,21.2041908307963,1.00000000163018,0.55245282379382
1799.99999999946,21.4588763405919,1.0000000013265,0.512994908106199
1899.99999999937,21.4491992239677,1.00000000163708,0.546912396810827
1999.99999999928,21.1185802560115,1.00000000127081,0.488888849677443
2099.99999999919,20.7197761406377,1.00000000200538,0.570903755352816
2199.99999999909,20.1786192420224,1.00000000083472,0.410219049245034
2299.999999999,19.5556302168329,1.00000000201746,0.572811071572963
2399.99999999891,19.0158464298861,1.00000000161026,0.499926414920743
2499.99999999882,18.3925997055455,1.00000000086991,0.381802251842433
2599.99999999873,17.7522486160387,1.00000000223162,0.550790612812971
2699.99999999864,17.2021391708902,1.00000000192779,0.552613121140088
2799.99999999855,16.6670892303776,1.00000000088186,0.376383891446823
2899.99999999846,16.1294220228474,1.00000000131149,0.433725956138127
2999.99999999837,15.6007667201414,1.00000000181371,0.534619408035621
3099.99999999828,15.110097234258,1.00000000212036,0.562602639821102
3199.99999999819,14.6632389136111,1.0000000014307,0.49224909864164
3299.99999999809,14.2653741162098,1.00000000090135,0.359740327431463
3399.999999998,13.9113639557708,1.00000000159818,0.461338916455623
3499.99999999791,13.5515766071098,1.00000000173397,0.534658820366913
3599.99999999782,13.2059276471368,1.00000000152448,0.509503895856461
3699.99999999773,12.8578958270437,1.00000000233801,0.551546396552664
3799.99999999764,12.5236924328733,1.00000000182521,0.551054858374827
3899.99999999755,12.2425829359934,1.00000000089404,0.404134767756397
3999.99999999746,12.063915107732,1.00000000106728,0.37579476861986
4099.99999999738,11.9188663784816,1.00000000168874,0.485236562701977
4199.99999999775,11.7493321932864,1.00000000181374,0.529061709365389
4299.99999999811,11.5597063663564,1.00000000166037,0.547074799207764
4399.99999999848,11.3705028732123,1.00000000136808,0.539213595444589
4499.99999999884,11.1784285230419,1.00000000160727,0.536707892063588
4599.9999999992,10.9691152618648,1.00000000202171,0.547452159015278
4699.99999999957,10.7471054916439,1.00000000210273,0.585951655923734
4799.99999999993,10.5442009351013,1.00000000131212,0.51045335222738
4900.00000000029,10.4237823638922,1.00000000086996,0.400816157024734
5000.00000000066,10.4230689004063,1.00000000119789,0.398584472565906
5100.00000000102,10.4680677896424,1.00000000162718,0.461033891830606
5200.00000000139,10.4799422863339,1.00000000189352,0.531863380728317
5300.00000000175,10.4567033878502,1.00000000158187,0.553127376749834
5400.00000000211,10.4203490342962,1.0000000016501,0.560247693771504
5500.00000000248,10.3631267960707,1.0000000016837,0.569640282079129
5600.00000000284,10.2849798961619,1.00000000167423,0.55437699852639
5700.00000000321,10.192806951972,1.00000000177981,0.570667549418192
5800.00000000357,10.0911855281055,1.00000000146758,0.57126170977297
5900.00000000393,9.99462595281131,1.00000000138711,0.574961020815704
6000.0000000043,9.8865858466058,1.0000000017959,0.579778722009746
6100.00000000466,9.76216711881773,1.00000000185942,0.588444653619858
6200.00000000502,9.62511595702035,1.00000000216571,0.592339379138989
6300.00000000539,9.48162267948306,1.00000000192208,0.591004686105171
6400.00000000575,9.35251570550645,1.00000000132333,0.528402759754372
6500.00000000612,9.28656687612015,1.000000000848,0.444860295046729
6600.00000000648,9.33544694011924,1.00000000097306,0.40743422176535
6700.00000000684,9.48457082048294,1.00000000126298,0.436321426798302
6800.00000000721,9.66090757393076,1.00000000173196,0.479912132043882
6900.00000000757,9.80508198608867,1.00000000173124,0.51791747610632
7000.00000000793,9.92041773197064,1.00000000175528,0.552945250377206
7100.0000000083,10.0070660706284,1.00000000175184,0.573551386595496
7200.00000000866,10.0667093959727,1.00000000158778,0.583010333875427
7300.00000000903,10.1015285287893,1.00000000184436,0.601825004823982
7400.00000000939,10.1023837591784,1.00000000174918,0.600948348299765
7500.00000000975,10.0782397458006,1.00000000172626,0.597590237938523
7600.00000001012,10.0484880581268,1.00000000170455,0.583611251189164
7700.00000001048,10.0173922086174,1.00000000158315,0.577457313564208
7800.00000001084,9.98524187047772,1.00000000166872,0.559112604092028
7900.00000001121,9.94639892441855,1.00000000169844,0.567557341286059
8000.00000001157,9.90210792896473,1.00000000160862,0.582307222780258
8100.00000001194,9.86224276604065,1.00000000154335,0.577786360044752
8200.0000000123,9.82059409670688,1.00000000166434,0.587831861654147
8300.00000001266,9.7791441898589,1.00000000171708,0.5891203833407
8400.00000001303,9.73276017218737,1.00000000171954,0.580546186461781
8500.00000001339,9.68055454574887,1.00000000168365,0.573305052347025
8600.00000001376,9.6167281361968,1.00000000180043,0.592953826531272
8700.00000001412,9.54210202008552,1.0000000017642,0.61715663494175
8800.00000001448,9.46517817626653,1.00000000141312,0.599577950166173
8900.00000001485,9.38871460468459,1.00000000155045,0.611494250867822
9000.00000001521,9.30774284960152,1.00000000171708,0.607679523118672
9100.00000001557,9.22159935924959,1.00000000194929,0.611906186579379
9200.00000001594,9.1334735179043,1.00000000217231,0.625088587967751
9300.0000000163,9.04724533845563,1.0000000020469,0.606493113503641
9400.00000001667,8.96082516783224,1.00000000224744,0.601211279695124
9500.00000001703,8.8703851484996,1.00000000181218,0.583911425202453
9600.00000001739,8.78187008932681,1.00000000138267,0.539000762306275
9700.00000001776,8.72205388712422,1.00000000103262,0.481484076531696
9800.00000001812,8.73167161612052,1.00000000099611,0.442713938086746
9900.00000001848,8.84137812290808,1.00000000094527,0.421836110374084
10000.0000000188,9.0466449089316,1.00000000135523,0.439630767610938
10100.0000000192,9.31217140225154,1.00000000150676,0.458046706348234
10200.0000000196,9.58387218447043,1.00000000182226,0.486631192948336
10300.0000000199,9.84253816338142,1.00000000183334,0.515658577916197
10400.0000000203,10.071038908273,1.00000000193502,0.540324116846946
10500.0000000207,10.2757401802512,1.0000000017017,0.547328439303921
10600.000000021,10.4565264533874,1.00000000182628,0.57478746412821
10700.0000000214,10.6157889437014,1.00000000189661,0.591013541855417
10800.0000000218,10.7470579363518,1.00000000187936,0.601040832113874
10900.0000000221,10.8466941654329,1.00000000177606,0.605539731777384
11000.0000000225,10.9245082547995,1.0000000018833,0.620882279433244
11100.0000000229,10.9789772361339,1.00000000180249,0.635294860414047
11200.0000000232,11.0151358139368,1.00000000189728,0.631288497448783
11300.0000000236,11.0346339616576,1.00000000164877,0.631666518496356
11400.0000000239,11.0444938617399,1.00000000179056,0.621367271882363
11500.0000000243,11.0435453716315,1.00000000173767,0.624887491586074
11600.0000000247,11.0383067734802,1.00000000177638,0.620292587793787
11700.000000025,11.0236729926977,1.00000000183987,0.621067879036018
11800.0000000254,10.9988401909256,1.00000000166874,0.611865280975306
11900.0000000258,10.9720545995817,1.00000000177823,0.621617997788703
12000.0000000261,10.9357145151528,1.00000000175391,0.622953549767105
12100.0000000265,10.8957311827216,1.00000000171013,0.622718570267352
12200.0000000269,10.8503718753312,1.00000000182201,0.632952238824245
12300.0000000272,10.7982877685382,1.00000000186325,0.644191936000159
12400.0000000276,10.7422442642139,1.00000000181972,0.642674164686807
12500.0000000279,10.6881975547132,1.00000000160198,0.629897221023202
12600.0000000283,10.6405122405546,1.00000000175708,0.611848881028233
12700.0000000287,10.5995238805266,1.00000000160951,0.602575370256325
12800.000000029,10.5634069549626,1.00000000174887,0.598891318220356
12900.0000000294,10.5316625654358,1.00000000163514,0.599967187097966
13000.0000000298,10.5040462608986,1.00000000162148,0.59257222177405
13100.0000000301,10.4786340731828,1.00000000187124,0.60795067410674
13200.0000000305,10.4520184136706,1.00000000183834,0.619263225427488
13300.0000000309,10.4255205627251,1.00000000184501,0.611126983446276
13400.0000000312,10.3971596900623,1.00000000179299,0.595338953683736
13500.0000000316,10.3720428809418,1.00000000162759,0.608424772525607
13600.0000000319,10.3514875110411,1.00000000172617,0.602112314813744
13700.0000000323,10.3307591544745,1.00000000175519,0.594247918312026
13800.0000000327,10.3054785263998,1.00000000193117,0.599054090936031
13900.000000033,10.2788546414212,1.00000000176385,0.599716834369491
14000.0000000334,10.2544811055324,1.00000000167896,0.609489147463913
14100.0000000338,10.2272474201974,1.00000000187777,0.635300890113997
14200.0000000341,10.1999011664675,1.00000000170756,0.624370549777391
14300.0000000345,10.1755846622303,1.00000000180036,0.611537767199892
14400.0000000349,10.1490200738183,1.00000000185864,0.6077364462761
14500.0000000352,10.1227332650157,1.00000000168876,0.617216203739702
14600.0000000356,10.0987331906616,1.00000000187665,0.621853234668478
14700.0000000359,10.0730079140077,1.00000000184008,0.638711738981285
14800.0000000363,10.0426338668722,1.00000000185494,0.632455150753153
14900.0000000367,10.0156862010639,1.00000000165224,0.62553510749783
15000.000000037,9.98743992626166,1.00000000195189,0.641654497097193
15100.0000000374,9.9530101404022,1.00000000193034,0.635494884641863
15200.0000000378,9.91610987416775,1.00000000199881,0.635407832023352
15300.0000000381,9.87793187128969,1.00000000177431,0.636229266605923
15400.0000000385,9.84396121746239,1.0000000016847,0.645462200508439
15500.0000000389,9.81270989158441,1.00000000179112,0.644082352124031
15600.0000000392,9.7803107946385,1.00000000201314,0.637209098249329
15700.0000000396,9.74271082621252,1.00000000195557,0.637401472562841
15800.0000000399,9.70554333341591,1.00000000164731,0.631182346407829
15900.0000000403,9.669706785992,1.0000000018825,0.644485835667685
16000.0000000407,9.62911282264575,1.00000000187517,0.638951964977765
16100.000000041,9.58975108853732,1.00000000177958,0.627025534832646
16200.0000000414,9.55136759826815,1.00000000176991,0.627339310932635
16300.0000000418,9.51265501872651,1.00000000175759,0.609981407455912
16400.0000000418,9.47207073711726,1.00000000181784,0.642452411922049
16500.0000000404,9.42908562589292,1.00000000192633,0.649329756703387
16600.0000000389,9.38445300117234,1.00000000182175,0.650638418184706
16700.0000000375,9.33862252128706,1.00000000174755,0.638208046250615
16800.000000036,9.29183005595989,1.0000000018632,0.645529619944986
16900.0000000346,9.24364608997688,1.00000000180061,0.642786707907254
17000.0000000331,9.19534676934809,1.00000000169665,0.645199562378907
17100.0000000317,9.14562760874879,1.00000000202184,0.654931491754765
17200.0000000302,9.09466472224848,1.00000000209384,0.646703707724351
17300.0000000287,9.04360324234845,1.00000000192837,0.649721364980677
17400.0000000273,8.99302289865978,1.00000000176501,0.626683800955184
17500.0000000258,8.94258143796286,1.00000000190464,0.645792939000268
17600.0000000244,8.89335466038198,1.00000000185092,0.64566695320676
17700.0000000229,8.84412391774823,1.00000000159781,0.634332718317133
17800.0000000215,8.79539440186037,1.00000000170709,0.641897403702011
17900.00000002,8.74793792756199,1.00000000181967,0.644519138351258
18000.0000000186,8.70344974216556,1.00000000194094,0.643619812816811
18100.0000000171,8.66380718818458,1.00000000197262,0.647152848932661
18200.0000000156,8.63250395646148,1.0000000019643,0.661403104939992
18300.0000000142,8.60921039744674,1.00000000218029,0.663515085122561
18400.0000000127,8.60230760108693,1.00000000226045,0.674356690797451
18500.0000000113,8.60138258176386,1.00000000222717,0.665485466636955
18600.0000000098,8.62063511734496,1.00000000219771,0.661587184091858
18700.0000000084,8.63982210778789,1.00000000233107,0.64427281062477
18800.0000000069,8.67507067566779,1.00000000229183,0.625995766160546
18900.0000000055,8.69936219697704,1.00000000226038,0.606515850912488
19000.000000004,8.72024070433358,1.0000000020471,0.594448348029148
19100.0000000026,8.71714934962183,1.0000000017288,0.583698785268269
19200.0000000011,8.69437233236874,1.00000000146111,0.557295339202169
19299.9999999996,8.6593348162399,1.00000000138596,0.524101982811165
19399.9999999982,8.62463602916515,1.00000000130391,0.500423855440925
19499.9999999967,8.6145271064036,1.00000000109562,0.47599632888577
19599.9999999953,8.6482640661452,1.00000000114596,0.457456188182933
19699.9999999938,8.75273414467688,1.00000000112614,0.445463085382927
19799.9999999924,8.93598143276654,1.00000000116144,0.442177970442632
19899.9999999909,9.218702193108,1.00000000126008,0.445981806437494
19999.9999999895,9.56424489954722,1.00000000149508,0.455577822030542
20099.999999988,9.99197488469943,1.00000000178763,0.468549149559049
20199.9999999865,10.4272670583693,1.00000000181888,0.48136054287894
20299.9999999851,10.9034417487302,1.00000000204093,0.491207910198593
20399.9999999836,11.3582636838321,1.00000000190004,0.499718666538775
20499.9999999822,11.8195546425586,1.00000000202168,0.510230927044018
20599.9999999807,12.2554574156282,1.00000000205549,0.52026881995639
20699.9999999793,12.6667185960589,1.00000000205499,0.530704477811484
20799.9999999778,13.0620744126557,1.0000000021007,0.540983687230979
20899.9999999764,13.4247219565296,1.00000000216553,0.551388117105732
20999.9999999749,13.7834103825227,1.00000000199086,0.562725775046561
21099.9999999734,14.1243608504207,1.00000000207153,0.569080488814321
21199.999999972,14.4574049211681,1.00000000212412,0.576212349673889
21299.9999999705,14.7755092051332,1.00000000202132,0.59017947326247
21399.9999999691,15.0796140389423,1.00000000214248,0.59543567667126
21499.9999999676,15.3651953811257,1.00000000225362,0.614142157053412
21599.9999999662,15.6185611901845,1.00000000209374,0.614630563195996
21699.9999999647,15.8661620798823,1.00000000208308,0.627382028912406
21799.9999999633,16.080209844045,1.00000000223621,0.62849602483426
21899.9999999618,16.2787687255535,1.00000000176706,0.629434959900091
21999.9999999603,16.4534798792479,1.00000000224411,0.652476203193386
22099.9999999589,16.6100523986292,1.00000000185397,0.651394754133737
22199.9999999574,16.7589613448815,1.00000000203098,0.652495483287752
22299.999999956,16.8910765064724,1.00000000220013,0.646119920393118
22399.9999999545,17.0154218735261,1.00000000206537,0.651960661836459
22499.9999999531,17.1226530007946,1.00000000191683,0.648286611328431
22599.9999999516,17.2221652612878,1.00000000219606,0.652971000166062
22699.9999999502,17.3077203333282,1.00000000196893,0.654450406364857
22799.9999999487,17.390200142909,1.00000000186894,0.651140761065031
22899.9999999473,17.4640852122839,1.00000000211368,0.659803328696407
22999.9999999458,17.5271583541924,1.00000000193917,0.653460129973185
23099.9999999443,17.5868232709237,1.00000000196954,0.652974158557864
23199.9999999429,17.6396473750899,1.00000000205215,0.644589755883099
23299.9999999414,17.6885749627039,1.00000000228843,0.638670697357306
23399.99999994,17.7255754080244,1.00000000201224,0.659132477877899
23499.9999999385,17.7557407022108,1.00000000199965,0.670823864950653
23599.9999999371,17.7856528963318,1.00000000191172,0.662928550486738
23699.9999999356,17.8143868055067,1.00000000237431,0.655000025076815
23799.9999999342,17.8408045898079,1.00000000214425,0.650751158648945
23899.9999999327,17.8600785606007,1.0000000025344,0.652520256937576
23999.9999999312,17.8784152660178,1.00000000213928,0.654523775083285
24099.9999999298,17.8884980232676,1.00000000205679,0.660465044816006
24199.9999999283,17.89549458172,1.00000000184982,0.660688505202433
24299.9999999269,17.9033423858194,1.00000000202841,0.659783895334907
24399.9999999254,17.9158752805112,1.00000000198406,0.636745913547415
24499.999999924,17.9289084657101,1.00000000201398,0.641478952202435
24599.9999999225,17.9351002811226,1.00000000230083,0.638444139065511
24699.9999999211,17.9347671377472,1.00000000212461,0.638938920112311
24799.9999999196,17.9319024640893,1.00000000184327,0.636267303249407
24899.9999999181,17.9362748414491,1.0000000019602,0.628121344961682
24999.9999999167,17.9442444230301,1.00000000217941,0.653351888246185
25099.9999999152,17.9460881994871,1.00000000221345,0.665172047082301
25199.9999999138,17.9409880181869,1.00000000220856,0.665616488577582
25299.9999999123,17.9325532167141,1.00000000202352,0.673192554996299
25399.9999999109,17.9277120053338,1.00000000217768,0.654605761448867
25499.9999999094,17.927056596279,1.0000000019915,0.656243499169622
25599.999999908,17.9300466819513,1.00000000222541,0.651377602644177
25699.9999999065,17.9336465125296,1.00000000191732,0.63974473284817
25799.9999999051,17.9446788014797,1.00000000212914,0.621540863065193
25899.9999999036,17.955057795662,1.00000000230766,0.643348055469376
25999.9999999021,17.9530262978503,1.0000000024373,0.641231736421903
26099.9999999007,17.9481272213844,1.0000000020185,0.636621910078899
26199.9999998992,17.9460061571492,1.00000000214303,0.631887452683944
26299.9999998978,17.9518531714067,1.00000000212213,0.64580864430811
26399.9999998963,17.959738285097,1.00000000226048,0.660925118690702
26499.9999998949,17.9648854687106,1.00000000233931,0.656570448067437
26599.9999998934,17.9677602533215,1.00000000215833,0.651634788901887
26699.999999892,17.9758575092431,1.00000000175555,0.632591737485426
26799.9999998905,17.9905269243628,1.00000000233441,0.627658692801402
26899.999999889,18.0044921536363,1.0000000025677,0.637192613141983
26999.9999998876,18.0084868063022,1.00000000210546,0.641198426404005
27099.9999998861,18.0084636387036,1.00000000233558,0.634367929447713
27199.9999998847,18.0095405520387,1.00000000272814,0.644081031045702
27299.9999998832,18.0099253694169,1.00000000233751,0.644709775707544
27399.9999998818,18.0112801761806,1.00000000236577,0.656704211180907
27499.9999998803,18.0103693158448,1.00000000211781,0.640448472304586
27599.9999998789,18.0067635955858,1.00000000271111,0.647978501782884
27699.9999998774,17.9962990416465,1.00000000241733,0.661077908052005
27799.9999998759,17.9838933501797,1.00000000238059,0.649469819836718
27899.9999998745,17.973431277297,1.00000000216357,0.639423087818494
27999.999999873,17.9692780101593,1.00000000192035,0.626913606613089
28099.9999998716,17.9655032618423,1.00000000211309,0.645438713833929
28199.9999998701,17.9634154290329,1.00000000217547,0.639072841249325
28299.9999998687,17.9653846408351,1.00000000221569,0.635005013647874
28399.9999998672,17.972229452688,1.00000000208645,0.648768348132745
28499.9999998658,17.9856259660585,1.00000000216043,0.670025629180223
28599.9999998643,17.9957420891862,1.00000000217112,0.657328639991078
28699.9999998629,18.0044753903777,1.00000000234202,0.647732373833311
28799.9999998614,18.0109656728228,1.00000000234525,0.655948657381644
28899.9999998599,18.021574697323,1.00000000248772,0.657036952367524
28999.9999998585,18.0352984774034,1.00000000231976,0.659785117217206
