Time,AGPnorm,Energy,Entropy
0,0,1,-1.29338345091527e-17
99.9999999999986,1.25069657709449e-05,1.00000000000352,0.000599029713904811
199.999999999993,0.00107634392917086,1.0000000000006,0.000925320338714622
300,0.00281575506104856,1.00000000000159,0.00168963562828037
400.000000000022,0.00388392739318059,1.000000000003,0.00285840786868212
500.000000000045,0.00469004477115369,0.999999999999809,0.00387731314109155
600.000000000068,0.00674038552104234,1.0000000000033,0.00545657274241056
700.000000000091,0.00844575117544442,1.00000000000114,0.00692965857962989
800.000000000113,0.0108868954105473,1.000000000001,0.00864451887965478
900.000000000136,0.0134848594717767,1.00000000000336,0.0106138438393069
1000.00000000016,0.0158378457255403,0.999999999999824,0.0124936633445409
1100.0000000001,0.0191794223051847,1.00000000000292,0.014741906682328
1200,0.0224743360113105,1.00000000000175,0.0169353538116156
1299.99999999991,0.02585690873068,1.00000000000045,0.0193299776160847
1399.99999999982,0.0295694676976902,1.00000000000354,0.0219034758994931
1499.99999999973,0.0335567858677027,1.00000000000007,0.0244082840131434
1599.99999999964,0.0381704151650316,1.00000000000241,0.0272304801107635
1699.99999999955,0.0425919780000599,1.00000000000231,0.0300128291815985
1799.99999999946,0.0469147596461172,1.00000000000004,0.0329666841486826
1899.99999999937,0.0517195579022487,1.00000000000357,0.0360810970848119
1999.99999999928,0.0570310135205242,1.00000000000052,0.039138218468176
2099.99999999919,0.0625594895410982,1.00000000000179,0.0425095570855546
2199.99999999909,0.0678447110978811,1.00000000000276,0.0458381037357944
2299.999999999,0.0732324225904108,0.999999999999837,0.0493074391149111
2399.99999999891,0.0790864933443292,1.00000000000345,0.0529759690928746
2499.99999999882,0.0852610889799459,1.00000000000106,0.0565914866679009
2599.99999999873,0.0912838523686208,1.00000000000112,0.0605221243566536
2699.99999999864,0.0972473124227841,1.0000000000031,0.0644203596561518
2799.99999999855,0.10372213673577,0.999999999999896,0.0684437981534717
2899.99999999846,0.1104356539164,1.00000000000313,0.0727350044251985
2999.99999999837,0.117060729627521,1.0000000000016,0.0769702373560906
3099.99999999828,0.123346354636106,1.00000000000056,0.0815131319977567
3199.99999999819,0.12987294046636,1.00000000000336,0.0860901521669127
3299.99999999809,0.137160974041525,1.00000000000019,0.090792483807759
3399.999999998,0.14436234440272,1.00000000000258,0.0958468022915689
3499.99999999791,0.151158723417229,1.00000000000202,0.100849964750336
3599.99999999782,0.157769934484776,1.00000000000018,0.106166571078605
3699.99999999773,0.164803840336014,1.00000000000354,0.111660056105406
3799.99999999764,0.172454430194217,1.00000000000063,0.117295614716478
3899.99999999755,0.179692173604534,1.00000000000188,0.123387812619018
3999.99999999746,0.186478520039103,1.0000000000024,0.129501028347296
4099.99999999738,0.193510414751987,1.00000000000011,0.136002699934752
4199.99999999775,0.200936598102772,1.0000000000037,0.142913963227079
4299.99999999811,0.208419182944636,1.00000000000145,0.150059524859406
4399.99999999848,0.215418619666608,1.0000000000019,0.157823614132192
4499.99999999884,0.222125306367976,1.00000000000397,0.165850833419724
4599.9999999992,0.229378765245077,1.00000000000245,0.17443551331497
4699.99999999957,0.237329290601023,1.00000000000719,0.183719501365461
4799.99999999993,0.244032255923707,1.00000000000801,0.193271324192686
4900.00000000029,0.251526704948142,1.00000000001092,0.203437150457152
5000.00000000066,0.259301784681749,1.00000000001823,0.213879196380405
5100.00000000102,0.267289563053235,1.00000000002224,0.224612059831971
5200.00000000139,0.279618670363274,1.00000000003134,0.235791231874004
5300.00000000175,0.289638007884959,1.00000000003838,0.246725207407766
5400.00000000211,0.30643983263509,1.00000000004792,0.257750626600193
5500.00000000248,0.329852962031014,1.0000000000635,0.268674969708743
5600.00000000284,0.357447581914121,1.00000000006788,0.279464151527108
5700.00000000321,0.404076222566922,1.00000000008747,0.290242404040348
5800.00000000357,0.458938564133661,1.00000000010349,0.300500175058598
5900.00000000393,0.539664187597291,1.00000000011269,0.310701926989619
6000.0000000043,0.650504302225756,1.00000000012685,0.320780354701197
6100.00000000466,0.787529753236237,1.00000000014783,0.330395384364775
6200.00000000502,0.977966598904861,1.00000000015258,0.340070039790871
6300.00000000539,1.21026954045558,1.00000000017115,0.349181689695023
6400.00000000575,1.50775795864622,1.00000000018389,0.358175206881902
6500.00000000612,1.87982436030047,1.00000000020663,0.367117953369155
6600.00000000648,2.3230292825206,1.00000000022052,0.375464403680997
6700.00000000684,2.8723692461769,1.00000000023071,0.383788072459266
6800.00000000721,3.51513481772977,1.00000000023116,0.39175683827853
6900.00000000757,4.27786400055256,1.00000000025669,0.399455016525396
7000.00000000793,5.17204259147094,1.00000000026846,0.407154741718535
7100.0000000083,6.19357202683418,1.00000000027431,0.414235403854172
7200.00000000866,7.38008679391101,1.00000000029619,0.42122403498665
7300.00000000903,8.7136349030757,1.00000000030503,0.428087242113746
7400.00000000939,10.2238551888245,1.00000000029428,0.434605327638913
7500.00000000975,11.9201724766712,1.00000000032085,0.440938138062547
7600.00000001012,13.792886526312,1.00000000033353,0.446806026922507
7700.00000001048,15.8821183489712,1.00000000033996,0.452719271180731
7800.00000001084,18.1600749518314,1.00000000034861,0.45850600210206
7900.00000001121,20.6580362369756,1.00000000035792,0.463676453871195
8000.00000001157,23.3830793312758,1.0000000003631,0.468992462828623
8100.00000001194,26.3130037682229,1.00000000035676,0.47394472737979
8200.0000000123,29.4932192893688,1.00000000037528,0.478627425542606
8300.00000001266,32.8863581390531,1.00000000038397,0.483335731901943
8400.00000001303,36.5186321798087,1.00000000039334,0.487476020661081
8500.00000001339,40.3993743865448,1.0000000003751,0.491841448284197
8600.00000001376,44.4893285551776,1.00000000038502,0.495945304312648
8700.00000001412,48.8410028025955,1.00000000039782,0.499533500031431
8800.00000001448,53.4108253384893,1.00000000040421,0.503304587245633
8900.00000001485,58.2116270467409,1.00000000040456,0.506633655048038
9000.00000001521,63.2622518486219,1.00000000040491,0.509995220022173
9100.00000001557,68.5056198300161,1.00000000041,0.513383754492869
9200.00000001594,73.998542413318,1.00000000041335,0.516071677831405
9300.0000000163,79.6986648483615,1.00000000041765,0.51912743869354
9400.00000001667,85.5990648475861,1.00000000040685,0.521777469170686
9500.00000001703,91.7322858808702,1.00000000041409,0.524235939596337
9600.00000001739,98.0280880878386,1.00000000041775,0.52694855342279
9700.00000001776,104.540017969422,1.00000000039609,0.529058515349303
9800.00000001812,111.235541994535,1.00000000041126,0.531248418990546
9900.00000001848,118.08488717782,1.00000000040601,0.533479142828743
10000.0000000188,125.13566604244,1.00000000039576,0.535251892406478
10100.0000000192,132.312117943102,1.000000000406,0.537249463704455
10200.0000000196,139.655272675199,1.0000000004182,0.538756144478741
10300.0000000199,147.150572264252,1.0000000004197,0.540352867796582
10400.0000000203,154.746076150804,1.0000000004011,0.542271509867956
10500.0000000207,162.500566412619,1.00000000042079,0.543322103521815
10600.000000021,170.341914224927,1.00000000039199,0.544947662637353
10700.0000000214,178.292317061384,1.00000000041341,0.546014911045336
10800.0000000218,186.357350963214,1.00000000040658,0.547112717168323
10900.0000000221,194.470244714837,1.00000000039832,0.548491384653528
11000.0000000225,202.692009853534,1.00000000039708,0.549373270334067
11100.0000000229,210.963645826467,1.00000000039553,0.550206825063772
11200.0000000232,219.283655355599,1.00000000039164,0.55127321590872
11300.0000000236,227.678685510503,1.00000000038213,0.552104138714829
11400.0000000239,236.074643878207,1.00000000040518,0.552592795085552
11500.0000000243,244.524984843677,1.0000000003715,0.5535198980957
11600.0000000247,252.991647200883,1.00000000039307,0.553930462615016
11700.000000025,261.451265345327,1.0000000003935,0.554275349722014
11800.0000000254,269.942688547674,1.00000000037884,0.555096268695405
11900.0000000258,278.397538696295,1.00000000038425,0.555576275445847
12000.0000000261,286.853727891794,1.00000000038773,0.555468446282306
12100.0000000265,295.293837594693,1.00000000037963,0.55623825766944
12200.0000000269,303.680793832824,1.000000000379,0.556400044304191
12300.0000000272,312.058121809902,1.00000000036618,0.556549470677519
12400.0000000276,320.366935057797,1.00000000036869,0.557087572737931
12500.0000000279,328.630969368157,1.0000000003675,0.556686121047272
12600.0000000283,336.849198820637,1.00000000034823,0.557191358118884
12700.0000000287,344.976469832697,1.00000000035954,0.557626103707385
12800.000000029,353.058281650175,1.00000000036993,0.556976969657871
12900.0000000294,361.04528711007,1.00000000035209,0.557441857951424
13000.0000000298,368.949601538411,1.00000000035747,0.557249309242551
13100.0000000301,376.782036358329,1.00000000035081,0.557121130997985
13200.0000000305,384.494518861095,1.00000000035641,0.557621596923111
13300.0000000309,392.129253694984,1.00000000034934,0.55713168205569
13400.0000000312,399.651564032438,1.00000000034432,0.556838744012382
13500.0000000316,407.05832678247,1.00000000034623,0.557208830460718
13600.0000000319,414.37315132767,1.00000000033792,0.556654942207788
13700.0000000323,421.547209939295,1.00000000033472,0.556823591110699
13800.0000000327,428.616980151594,1.00000000033868,0.556521375243642
13900.000000033,435.563954001844,1.0000000003264,0.555881346576135
14000.0000000334,442.370657890523,1.00000000032848,0.556023971600859
14100.0000000338,449.068725333931,1.0000000003148,0.556154878373375
14200.0000000341,455.61573459169,1.00000000032768,0.555762049076076
14300.0000000345,462.035901744551,1.00000000031162,0.555212959554868
14400.0000000349,468.325087044285,1.00000000031842,0.555212060399981
14500.0000000352,474.461144656284,1.00000000031238,0.555070442909363
14600.0000000356,480.473854184161,1.00000000031171,0.554409538835053
14700.0000000359,486.328462707337,1.00000000031139,0.554448362120209
14800.0000000363,492.044459675485,1.00000000029856,0.55453942862562
14900.0000000367,497.624051789604,1.00000000031169,0.553500841500358
15000.000000037,503.041378496405,1.00000000030153,0.55338698208154
15100.0000000374,508.326086031929,1.00000000029405,0.55327539796133
15200.0000000378,513.453698290501,1.00000000030645,0.55299048374937
15300.0000000381,518.433540837974,1.00000000028532,0.552548489289412
15400.0000000385,523.273220296571,1.0000000002929,0.552314546847019
15500.0000000389,527.950062019271,1.00000000028497,0.552314139860091
15600.0000000392,532.489070449049,1.00000000029095,0.55140096329476
15700.0000000396,536.873663611488,1.00000000028561,0.551323243236029
15800.0000000399,541.105483323142,1.00000000027605,0.550893714892475
15900.0000000403,545.200187997468,1.00000000028855,0.551612566198377
16000.0000000407,549.13482389036,1.00000000027341,0.550307566340774
16100.000000041,552.930411255289,1.00000000028164,0.550896947231236
16200.0000000414,556.578887712218,1.00000000026905,0.548863992624822
16300.0000000418,560.076898884148,1.00000000027375,0.549900170667747
16400.0000000418,563.440547466709,1.00000000025869,0.548384744101681
16500.0000000404,566.649740560666,1.00000000027176,0.549883258289012
16600.0000000389,569.722545004405,1.00000000025701,0.549229889973625
16700.0000000375,572.656965522051,1.0000000002679,0.549149585572664
16800.000000036,575.444175656482,1.00000000024912,0.547492934104346
16900.0000000346,578.100895938393,1.0000000002628,0.546465840820748
17000.0000000331,580.610093244023,1.00000000025403,0.546236450921414
17100.0000000317,582.986047964681,1.0000000002579,0.547679480379583
17200.0000000302,585.231468740109,1.00000000024979,0.548542105971953
17300.0000000287,587.338445027521,1.00000000025113,0.549143072223959
17400.0000000273,589.323786403205,1.00000000025237,0.546785107206898
17500.0000000258,591.173140666606,1.00000000023956,0.544483727615872
17600.0000000244,592.892346964965,1.0000000002341,0.542378998211708
17700.0000000229,594.485264794802,1.00000000023343,0.543412700137184
17800.0000000215,595.945073357159,1.00000000023839,0.546669059380841
17900.00000002,597.29143223631,1.00000000024183,0.549813389362621
18000.0000000186,598.521076190048,1.00000000024522,0.550017181227736
18100.0000000171,599.637666016903,1.00000000023148,0.546857254884551
18200.0000000156,600.644981593509,1.00000000022898,0.541347128835518
18300.0000000142,601.525200045454,1.00000000021418,0.537457295769705
18400.0000000127,602.287923625952,1.00000000021878,0.538099068675183
18500.0000000113,602.932299229,1.00000000021949,0.543366366199108
18600.0000000098,603.470269429968,1.00000000022552,0.550511506944582
18700.0000000084,603.922141119258,1.00000000023956,0.553666097602119
18800.0000000069,604.283020144144,1.00000000023368,0.551299217981912
18900.0000000055,604.558535459594,1.00000000022987,0.543029682024746
19000.000000004,604.732851649186,1.00000000020925,0.5335916277176
19100.0000000026,604.793930989227,1.00000000019458,0.529372206430981
19200.0000000011,604.747882013095,1.00000000019587,0.532772322527611
19299.9999999996,604.599150130478,1.00000000021521,0.543607131407526
19399.9999999982,604.375853914317,1.00000000023106,0.553714489861035
19499.9999999967,604.093755113825,1.00000000025407,0.55800177670427
19599.9999999953,603.755858117408,1.00000000023971,0.553827517612454
19699.9999999938,603.360355146596,1.00000000022881,0.541659652910889
19799.9999999924,602.881947592209,1.00000000019422,0.527535029533665
19899.9999999909,602.308851577399,1.00000000016468,0.51801460096957
19999.9999999895,601.636033581293,1.00000000018082,0.520707777028581
20099.999999988,600.874511977569,1.00000000020098,0.534862510086017
20199.9999999865,600.055141698322,1.00000000023125,0.551081094741487
20299.9999999851,599.19799965857,1.00000000026685,0.561080260183033
20399.9999999836,598.319471233991,1.00000000026491,0.560890489190461
20499.9999999822,597.417792088983,1.00000000024751,0.549980485753167
20599.9999999807,596.469428421119,1.00000000022123,0.530770422098042
20699.9999999793,595.455455174559,1.0000000001719,0.511091124956246
20799.9999999778,594.353181357478,1.00000000014507,0.501349134434962
20899.9999999764,593.166465752514,1.00000000016722,0.509010622794258
20999.9999999749,591.915187260188,1.0000000001994,0.530127255504951
21099.9999999734,590.625453780533,1.00000000024469,0.551795032142572
21199.999999972,589.32870703852,1.00000000028174,0.564407937267466
21299.9999999705,588.036041275608,1.00000000030196,0.565172964239278
21399.9999999691,586.745185095414,1.00000000027616,0.55358844750248
21499.9999999676,585.43866574795,1.00000000023571,0.531482708393458
21599.9999999662,584.085829738831,1.00000000018674,0.504663131663216
21699.9999999647,582.668293916134,1.00000000014823,0.485696468094112
21799.9999999633,581.174815812841,1.00000000013746,0.48490286193436
21899.9999999618,579.618854761189,1.00000000017207,0.506295561280133
21999.9999999603,578.028591109402,1.0000000002317,0.535831555393453
22099.9999999589,576.430212933545,1.00000000028241,0.559077289073752
22199.9999999574,574.849532969255,1.00000000031,0.569458820117353
22299.999999956,573.293005687085,1.00000000031597,0.567255186235539
22399.9999999545,571.752536612585,1.000000000281,0.553496075876563
22499.9999999531,570.210765177351,1.0000000002372,0.52789002545725
22599.9999999516,568.637449212395,1.00000000017797,0.495919197665049
22699.9999999502,567.013640302267,1.00000000013476,0.470976628358802
22799.9999999487,565.327620252264,1.00000000012268,0.465679942525573
22899.9999999473,563.587078590191,1.0000000001518,0.485056714524254
22999.9999999458,561.81665326094,1.00000000021699,0.519389193766912
23099.9999999443,560.040487072066,1.00000000027387,0.549571376798089
23199.9999999429,558.283340061273,1.00000000031675,0.567126970422027
23299.9999999414,556.557998080161,1.00000000033074,0.571881499810991
23399.99999994,554.863391404851,1.00000000032065,0.566110393431327
23499.9999999385,553.191714396692,1.00000000028866,0.548754941644761
23599.9999999371,551.520957598753,1.00000000023777,0.520235020872707
23699.9999999356,549.829867297826,1.00000000017414,0.48506997242814
23799.9999999342,548.099483169088,1.00000000012943,0.457420152840131
23899.9999999327,546.320115604114,1.00000000011642,0.450550677795494
23999.9999999312,544.500754605124,1.00000000014384,0.467323688353481
24099.9999999298,542.655340423656,1.00000000019986,0.501927550738699
24199.9999999283,540.807075912812,1.00000000025417,0.537041758295575
24299.9999999269,538.975760088594,1.00000000030849,0.559645782636886
24399.9999999254,537.17240065573,1.00000000032213,0.569606085647745
24499.999999924,535.404190731738,1.00000000034029,0.568752941008298
24599.9999999225,533.667036737755,1.00000000033372,0.559305065463197
24699.9999999211,531.949349492841,1.00000000027933,0.539999539647829
24799.9999999196,530.236963405147,1.00000000023491,0.511526136313776
24899.9999999181,528.51040292903,1.00000000018346,0.476665778394657
24999.9999999167,526.758616701911,1.00000000013537,0.449097855328902
25099.9999999152,524.973899243593,1.00000000011972,0.439916167134762
25199.9999999138,523.160367970556,1.00000000012975,0.452234699459462
25299.9999999123,521.329431730707,1.00000000017417,0.480598196973114
25399.9999999109,519.493678542583,1.00000000023324,0.516211391486114
25499.9999999094,517.669594351652,1.00000000029322,0.54468625130856
25599.999999908,515.86754768954,1.000000000315,0.559703699238798
25699.9999999065,514.093111452897,1.00000000033197,0.564768484140988
25799.9999999051,512.349282818909,1.00000000033392,0.559968672598547
25899.9999999036,510.631031804481,1.00000000031673,0.549939112374762
25999.9999999021,508.931025671338,1.00000000028365,0.532049942077001
26099.9999999007,507.238833731093,1.00000000023672,0.508739339317906
26199.9999998992,505.542530255288,1.00000000019292,0.479245189656926
26299.9999998978,503.834743063807,1.00000000015393,0.453254782932297
26399.9999998963,502.109011269815,1.00000000013657,0.438633207398532
26499.9999998949,500.367672635494,1.00000000013748,0.440323006228665
26599.9999998934,498.614528436288,1.00000000015619,0.456605975010967
26699.999999892,496.856732382761,1.00000000019876,0.483664555726241
26799.9999998905,495.103980134779,1.00000000023272,0.512635676329964
26899.999999889,493.363200562683,1.00000000027685,0.536872339490924
26999.9999998876,491.640885368334,1.00000000030801,0.549341699559023
27099.9999998861,489.940860112115,1.000000000328,0.55195887234795
27199.9999998847,488.263024098988,1.0000000003207,0.549079230375925
27299.9999998832,486.606466412411,1.00000000031817,0.540039334022581
27399.9999998818,484.966759973941,1.00000000027749,0.528611995046856
27499.9999998803,483.338192805126,1.00000000025903,0.513273444389286
27599.9999998789,481.715401417732,1.00000000022537,0.494461388500426
27699.9999998774,480.092196764362,1.00000000020717,0.474736381776412
27799.9999998759,478.466319959149,1.00000000016546,0.456396537125237
27899.9999998745,476.83522887727,1.00000000016223,0.445982805925368
27999.999999873,475.200346018459,1.00000000015383,0.443272801741284
28099.9999998716,473.563865848951,1.000000000174,0.453638340007531
28199.9999998701,471.928259802906,1.00000000018968,0.46989411919709
28299.9999998687,470.298445268569,1.00000000023011,0.492605372764284
28399.9999998672,468.677454765517,1.00000000025161,0.512058356130639
28499.9999998658,467.068185032404,1.00000000028436,0.528507897861528
28599.9999998643,465.473726278384,1.00000000030028,0.535057863529207
28699.9999998629,463.894288395225,1.00000000030474,0.535712438189548
28799.9999998614,462.330209442416,1.00000000030312,0.532939134357324
28899.9999998599,460.780795984399,1.00000000027957,0.52500884451431
