Time,AGPnorm,Energy,Entropy
0,0,1,-2.66952208651261e-19
99.9999999999986,0.00181290558714675,1.0000000000013,0.00655944271938482
199.999999999993,0.00543593258852574,1.00000000000084,0.0195590242287024
300,0.011496974364667,1.00000000000056,0.038134165960487
400.000000000022,0.0186756141700303,1.00000000000181,0.0610797721503908
500.000000000045,0.0273497045754922,0.999999999999948,0.088359952369479
600.000000000068,0.0364170756749904,1.00000000000295,0.120852853546963
700.000000000091,0.0462015087093584,1.00000000000226,0.159482796149474
800.000000000113,0.0574077141230909,1.00000000001707,0.206660111787161
900.000000000136,0.0721224962394454,1.00000000005247,0.262846502996428
1000.00000000016,0.119537414099599,1.00000000014792,0.324545860019468
1100.0000000001,0.264987019984764,1.00000000026135,0.383982285986686
1200,0.661226129047273,1.00000000040383,0.434181278410698
1299.99999999991,1.51001142081799,1.00000000054408,0.473442778824525
1399.99999999982,3.00291183935725,1.00000000068544,0.501142273205492
1499.99999999973,5.29155230204666,1.00000000071937,0.520728954058429
1599.99999999964,8.42863182506058,1.00000000082958,0.531845403332453
1699.99999999955,12.3726749995916,1.00000000080376,0.538576084057194
1799.99999999946,17.0452069799798,1.00000000083467,0.540908453473326
1899.99999999937,22.2451010166522,1.00000000077457,0.540094162234583
1999.99999999928,27.8530523661896,1.00000000078545,0.537159571609448
2099.99999999919,33.6076586966809,1.00000000070935,0.53235331493142
2199.99999999909,39.4080519794728,1.00000000073734,0.526961662608586
2299.999999999,45.0216557301123,1.00000000066001,0.51902764763661
2399.99999999891,50.3812516974848,1.00000000068463,0.516322940091837
2499.99999999882,55.3327000306121,1.00000000061316,0.505290289770004
2599.99999999873,59.8279147438276,1.00000000058266,0.496910627024774
2699.99999999864,63.8078653081519,1.00000000059902,0.502529729584121
2799.99999999855,67.2518568349183,1.00000000052103,0.492754548933033
2899.99999999846,70.1207286570935,1.00000000050983,0.467787413623008
2999.99999999837,72.4005082748055,1.00000000050365,0.473779808980848
3099.99999999828,74.2066443245091,1.00000000048924,0.50292625251824
3199.99999999819,75.5743523946049,1.00000000048913,0.488852977937411
3299.99999999809,76.440886532101,1.00000000039113,0.432860356180735
3399.999999998,76.7548962011479,1.00000000032763,0.427032485396529
3499.99999999791,76.7185118134633,1.00000000045025,0.493003155311192
3599.99999999782,76.5530502517513,1.00000000056386,0.532975291553908
3699.99999999773,76.2716833437065,1.00000000046256,0.490408971033372
3799.99999999764,75.6884373051693,1.00000000027952,0.387123324642554
3899.99999999755,74.7083223207344,1.00000000019329,0.353189642002962
3999.99999999746,73.5173689593472,1.000000000369,0.444091795819297
4099.99999999738,72.3430073997315,1.00000000060189,0.525764892984536
4199.99999999775,71.3118769762297,1.00000000061557,0.552615172010066
4299.99999999811,70.3843352551022,1.00000000052222,0.515126010120487
4399.99999999848,69.3943981354237,1.00000000034218,0.402051842478551
4499.99999999884,68.2089907385397,1.00000000014482,0.284404487511688
4599.9999999992,66.8776880099825,1.00000000018699,0.298989030970093
4699.99999999957,65.5256918394603,1.00000000041053,0.4155071059054
4799.99999999993,64.218385319201,1.00000000060871,0.492620376986857
4900.00000000029,63.0053998937694,1.00000000071015,0.518973420154616
5000.00000000066,61.9214852325935,1.00000000067608,0.538456130646825
5100.00000000102,60.9523870212151,1.00000000060815,0.535789785263725
5200.00000000139,60.0181999480863,1.00000000043806,0.473458523965121
5300.00000000175,59.0366964469728,1.00000000027631,0.358207960555215
5400.00000000211,58.0057149761161,1.00000000016301,0.258456864131331
5500.00000000248,56.998533375424,1.0000000001658,0.25019855298646
5600.00000000284,56.0713784525122,1.00000000027529,0.327501373933902
5700.00000000321,55.1935149183777,1.00000000048532,0.436182205735466
5800.00000000357,54.3146948840364,1.00000000055343,0.510084030619143
5900.00000000393,53.4320846702787,1.00000000053337,0.506946288574875
6000.0000000043,52.5613153955341,1.00000000047733,0.463105190811796
6100.00000000466,51.7087260529083,1.00000000054719,0.461367021736536
6200.00000000502,50.8841465960685,1.00000000060829,0.516457055504734
6300.00000000539,50.1049816234585,1.00000000063746,0.555161847477708
6400.00000000575,49.3729561060842,1.00000000056912,0.54337711596548
6500.00000000612,48.6608214239278,1.00000000040764,0.482469820450685
6600.00000000648,47.9488605082095,1.0000000002429,0.383007364402577
6700.00000000684,47.2769316467805,1.00000000012836,0.280036090385673
6800.00000000721,46.7269183262198,1.00000000014023,0.230964427530765
6900.00000000757,46.3486210007916,1.00000000020718,0.25351638168614
7000.00000000793,46.1338654439159,1.00000000028805,0.320657172681139
7100.0000000083,46.007493824016,1.00000000039861,0.401607412391706
7200.00000000866,45.8577022330884,1.00000000054534,0.465631530567857
7300.00000000903,45.6042965106795,1.00000000061186,0.499805947380229
7400.00000000939,45.2334373413181,1.00000000064004,0.524281956673475
7500.00000000975,44.7858034765551,1.00000000051854,0.539601466079501
7600.00000001012,44.3141728654373,1.00000000042266,0.513960763969889
7700.00000001048,43.8628507869206,1.00000000030978,0.453814600082416
7800.00000001084,43.448649541644,1.00000000028129,0.421769934389417
7900.00000001121,43.0479644425734,1.00000000041451,0.43970921348948
8000.00000001157,42.6233682517268,1.00000000049658,0.474924456851441
8100.00000001194,42.1617183126622,1.0000000005936,0.493570062128128
8200.0000000123,41.6733633075241,1.0000000006027,0.503239779445428
8300.00000001266,41.1772447404806,1.00000000069007,0.529390142871305
8400.00000001303,40.6941911997378,1.00000000066899,0.555015677243941
8500.00000001339,40.2331031785086,1.00000000058334,0.555528435053771
8600.00000001376,39.7848102514552,1.00000000049851,0.524777482492535
8700.00000001412,39.3387463096361,1.000000000326,0.463355502613531
8800.00000001448,38.9113355987841,1.00000000021611,0.383915654335789
8900.00000001485,38.5586508460807,1.00000000012722,0.308539334092439
9000.00000001521,38.3578018056237,1.00000000012121,0.252961894641394
9100.00000001557,38.3705077679536,1.0000000001376,0.232135416059263
9200.00000001594,38.6245871361667,1.00000000017875,0.249661249720915
9300.0000000163,39.0972604475649,1.00000000026356,0.294815411442785
9400.00000001667,39.7012966542417,1.00000000038011,0.355786028149874
9500.00000001703,40.3245334119795,1.00000000047536,0.415973102527889
9600.00000001739,40.8792567926429,1.00000000051022,0.465406178030135
9700.00000001776,41.3086152449023,1.00000000056071,0.502030398900458
9800.00000001812,41.5895636048497,1.0000000005398,0.529098339966441
9900.00000001848,41.7344304470418,1.00000000053984,0.545120554311951
10000.0000000188,41.7797241640466,1.00000000046695,0.538929265214281
10100.0000000192,41.7642323152239,1.00000000041673,0.506663264171203
10200.0000000196,41.7116707457292,1.00000000039576,0.475137714431683
10300.0000000199,41.6120457021871,1.00000000050322,0.475775230159366
10400.0000000203,41.4488084950322,1.00000000055944,0.500877049703271
10500.0000000207,41.233690844172,1.00000000052173,0.526360618981109
10600.000000021,40.9948233901733,1.00000000046421,0.522105866408351
10700.0000000214,40.7587133752891,1.00000000039551,0.496388608985087
10800.0000000218,40.5388990098163,1.00000000039619,0.469723942754584
10900.0000000221,40.339875435087,1.00000000039515,0.454960279463751
11000.0000000225,40.1616829910105,1.00000000039058,0.455049073588669
11100.0000000229,40.0001603701806,1.00000000038739,0.462342142517388
11200.0000000232,39.8433724597723,1.00000000041759,0.478781371258925
11300.0000000236,39.677305748612,1.00000000047394,0.501210554016398
11400.0000000239,39.4919805567253,1.00000000046689,0.523685678534189
11500.0000000243,39.2884288018016,1.0000000004096,0.528017996748466
11600.0000000247,39.0787235701195,1.00000000036701,0.516878764718827
11700.000000025,38.869793274743,1.00000000035961,0.511131755796373
11800.0000000254,38.6556077602544,1.00000000039408,0.514312512127726
11900.0000000258,38.4239822455502,1.0000000004665,0.519398442163511
12000.0000000261,38.1702189736986,1.00000000046982,0.520783390205838
12100.0000000265,37.8960738303695,1.0000000005065,0.520559019660267
12200.0000000269,37.6056709560834,1.00000000057475,0.526740049676664
12300.0000000272,37.3079716469366,1.00000000060418,0.534745124978838
12400.0000000276,37.0153654796631,1.00000000065449,0.543206537799367
12500.0000000279,36.741801122461,1.00000000069103,0.552847364915393
12600.0000000283,36.497542137739,1.00000000068184,0.562405793894692
12700.0000000287,36.2812489576719,1.00000000060711,0.564638551503841
12800.000000029,36.0793242413404,1.00000000054388,0.556036610475396
12900.0000000294,35.8704824130339,1.00000000043933,0.532638855250342
13000.0000000298,35.6387691579573,1.00000000035421,0.495668243382003
13100.0000000301,35.3828741231739,1.00000000025675,0.445577915155903
13200.0000000305,35.1233469472016,1.0000000001852,0.389125475272119
13300.0000000309,34.9035481288254,1.00000000014584,0.337759104050763
13400.0000000312,34.7796327093277,1.00000000012825,0.295688837904368
13500.0000000316,34.8106201194523,1.00000000010218,0.262647044465867
13600.0000000319,35.054180058499,1.00000000010067,0.240210914609108
13700.0000000323,35.5460484492326,1.00000000013515,0.237078916068039
13800.0000000327,36.2933657203701,1.00000000017816,0.255344120229298
13900.000000033,37.2787491884907,1.00000000022677,0.285678065432799
14000.0000000334,38.4569169245073,1.00000000030363,0.323158109522369
14100.0000000338,39.7507903817361,1.00000000037376,0.362704781479969
14200.0000000341,41.0708753532999,1.00000000046856,0.40237610205162
14300.0000000345,42.351761126056,1.00000000049819,0.437756238227775
14400.0000000349,43.5408838721482,1.00000000054748,0.467070762876722
14500.0000000352,44.6032548855039,1.00000000057345,0.494991616223946
14600.0000000356,45.5196020796877,1.00000000057612,0.519551432413583
14700.0000000359,46.2893195308871,1.00000000054962,0.536388167544407
14800.0000000363,46.9287146399973,1.0000000004978,0.540806988885212
14900.0000000367,47.4580688552685,1.00000000046909,0.533766819431113
15000.000000037,47.8958604462031,1.00000000044939,0.530667997948483
15100.0000000374,48.2468105575693,1.00000000048348,0.540074825742898
15200.0000000378,48.5137693213019,1.00000000047166,0.552170093608289
15300.0000000381,48.7039386304264,1.00000000047969,0.561025604034439
15400.0000000385,48.8273778731771,1.00000000046293,0.555310156441069
15500.0000000389,48.8967327544356,1.00000000044092,0.533965148086397
15600.0000000392,48.9278605980912,1.00000000041835,0.515880059950442
15700.0000000396,48.9348201059188,1.00000000043753,0.505653830714329
15800.0000000399,48.9152263008455,1.00000000045944,0.513555410516622
15900.0000000403,48.8599131619224,1.00000000049185,0.527282780062799
16000.0000000407,48.7705594579962,1.0000000004615,0.531295963431509
16100.000000041,48.6597576186217,1.00000000042431,0.535398831012475
16200.0000000414,48.5353605674061,1.00000000045952,0.536462211161547
16300.0000000418,48.3960620235915,1.00000000046298,0.535910521601152
16400.0000000418,48.241313945232,1.00000000045683,0.534640157688325
16500.0000000404,48.0757735176447,1.00000000043284,0.530765216203375
16600.0000000389,47.9084408850159,1.00000000041871,0.521285141938012
16700.0000000375,47.7461806068934,1.00000000035659,0.508116190511764
16800.000000036,47.5925390773804,1.0000000003502,0.50486259786865
16900.0000000346,47.4421266817507,1.00000000039976,0.507458102205908
17000.0000000331,47.2860838239131,1.00000000041351,0.509795385742134
17100.0000000317,47.1180815874887,1.0000000004587,0.511567541907939
17200.0000000302,46.9362794410031,1.00000000049869,0.517969113270203
17300.0000000287,46.7391191801957,1.00000000053119,0.528955190609544
17400.0000000273,46.5256055087593,1.0000000005605,0.540690880992397
17500.0000000258,46.2998214167866,1.00000000055713,0.549291202980038
17600.0000000244,46.0679221614007,1.00000000049473,0.549792263861341
17700.0000000229,45.8362222138903,1.00000000041861,0.551134229131202
17800.0000000215,45.6124318994374,1.00000000035241,0.53722309658657
17900.00000002,45.4080854875496,1.00000000029564,0.512725158744436
18000.0000000186,45.2328019313592,1.00000000028573,0.493427967649169
18100.0000000171,45.0877413060494,1.00000000032219,0.473557678052215
18200.0000000156,44.9673172296774,1.00000000036974,0.461734521831278
18300.0000000142,44.8662252055682,1.00000000041284,0.462460183331142
18400.0000000127,44.7836502012853,1.00000000038201,0.470373497956037
18500.0000000113,44.7172898463254,1.00000000037297,0.475342010540699
18600.0000000098,44.6624850686874,1.00000000040528,0.482568336335518
18700.0000000084,44.6108389137551,1.00000000042065,0.496539100403356
18800.0000000069,44.5577797872577,1.00000000043537,0.508371115547744
18900.0000000055,44.4986990400895,1.00000000047435,0.514316330620197
19000.000000004,44.4297774025354,1.00000000047092,0.517480197696332
19100.0000000026,44.3521901871083,1.00000000045876,0.516747320831386
19200.0000000011,44.2669590761425,1.00000000039684,0.516808188490399
19299.9999999996,44.1768300409304,1.00000000045613,0.521382143289029
19399.9999999982,44.0806785736701,1.00000000042933,0.53094698482057
19499.9999999967,43.9764188143204,1.00000000042296,0.546518998955673
19599.9999999953,43.8649506859841,1.00000000043524,0.559718577120092
19699.9999999938,43.7495238961859,1.00000000042835,0.564018384437268
19799.9999999924,43.6312426765655,1.00000000043983,0.564264875539557
19899.9999999909,43.5067217520506,1.00000000048196,0.564108663937521
19999.9999999895,43.3724707824033,1.00000000046012,0.575994665762491
20099.999999988,43.2251411299656,1.00000000048608,0.582115416032339
20199.9999999865,43.0681244497649,1.00000000046306,0.574436129577839
20299.9999999851,42.9101245296877,1.00000000042246,0.571665568576511
20399.9999999836,42.7587618550442,1.00000000035435,0.567834264266778
20499.9999999822,42.6143461668753,1.00000000038091,0.559880715915657
20599.9999999807,42.4695536961505,1.00000000044342,0.558282236051482
20699.9999999793,42.3187724212674,1.00000000047767,0.550977463145965
20799.9999999778,42.1636809377563,1.00000000044206,0.534088284799216
20899.9999999764,42.0101408920116,1.00000000041844,0.526302107182349
20999.9999999749,41.8609229191104,1.0000000003873,0.527567968798359
21099.9999999734,41.7158652469634,1.00000000040943,0.529440933675655
21199.999999972,41.5722049538422,1.00000000041546,0.53482379233541
21299.9999999705,41.4294698456362,1.00000000044574,0.539816425133071
21399.9999999691,41.2888714339127,1.0000000004315,0.547440568927541
21499.9999999676,41.1493629223847,1.00000000045629,0.550218669023672
21599.9999999662,41.0077867880025,1.00000000048663,0.548741602586024
21699.9999999647,40.859946791379,1.00000000048203,0.552405749231099
21799.9999999633,40.7055076483552,1.00000000046709,0.555144299779078
21899.9999999618,40.5458680672072,1.00000000047033,0.550480463474779
21999.9999999603,40.3823839762205,1.00000000045991,0.548192761122095
22099.9999999589,40.2153496385555,1.00000000047059,0.553437862742526
22199.9999999574,40.0453479049664,1.00000000049899,0.563984463145106
22299.999999956,39.8751306919952,1.00000000045461,0.570909829082737
22399.9999999545,39.7065038555822,1.0000000004099,0.565868680857373
22499.9999999531,39.5397410457094,1.00000000038726,0.559092809596061
22599.9999999516,39.3746759076115,1.00000000042265,0.565498199708044
22699.9999999502,39.2094554179278,1.00000000048059,0.573672406452186
22799.9999999487,39.0421951857395,1.00000000044404,0.573507546425459
22899.9999999473,38.874621751532,1.0000000004189,0.57472364315724
22999.9999999458,38.7081426760365,1.00000000038709,0.570538456030662
23099.9999999443,38.5430103209922,1.00000000034221,0.560375338968162
23199.9999999429,38.379582195894,1.00000000033745,0.558005226597721
23299.9999999414,38.2173447112256,1.00000000037541,0.56193382823491
23399.99999994,38.0559383591534,1.00000000040435,0.56791482496621
23499.9999999385,37.8955931144576,1.00000000037466,0.566287226119086
23599.9999999371,37.7365174022964,1.00000000041428,0.564364422804762
23699.9999999356,37.5795420257381,1.00000000042343,0.567782166532733
23799.9999999342,37.4255605787911,1.00000000045115,0.577700861017863
23899.9999999327,37.2765750342707,1.00000000045186,0.572412098932501
23999.9999999312,37.135305348653,1.00000000048266,0.562965177606085
24099.9999999298,37.0047817059274,1.00000000051625,0.573990877901019
24199.9999999283,36.8908445624031,1.00000000054848,0.586305972895975
24299.9999999269,36.7975781682372,1.00000000057727,0.582818043305046
24399.9999999254,36.7317061172326,1.00000000056705,0.579418995122701
24499.999999924,36.6979224726716,1.00000000058673,0.585355732473582
24599.9999999225,36.7027818808417,1.00000000062038,0.59458530419764
24699.9999999211,36.7572686499681,1.00000000064984,0.600154444685468
24799.9999999196,36.8615901217964,1.00000000066732,0.603525332357016
24899.9999999181,37.0291451191893,1.00000000066296,0.603479257369381
24999.9999999167,37.246584286184,1.00000000066417,0.601775558947333
25099.9999999152,37.5342746793111,1.00000000066259,0.598718057675792
25199.9999999138,37.8712975521232,1.00000000068453,0.594560491525256
25299.9999999123,38.2782128850026,1.00000000068883,0.587482038913451
25399.9999999109,38.7166360884372,1.00000000065062,0.580606230185249
25499.9999999094,39.1927187684316,1.00000000059155,0.57421036007305
25599.999999908,39.6620233498413,1.00000000058725,0.567960594540261
25699.9999999065,40.1164775409032,1.00000000051269,0.558511375944516
25799.9999999051,40.5221685551821,1.00000000044157,0.543550095761685
25899.9999999036,40.8620823409395,1.00000000038863,0.524871689707659
25999.9999999021,41.1236671987413,1.00000000036732,0.502706310145866
26099.9999999007,41.2937797055774,1.00000000031585,0.478717568873273
26199.9999998992,41.37804089885,1.00000000026318,0.450432055484307
26299.9999998978,41.3767306423358,1.00000000021055,0.422274178373435
26399.9999998963,41.306962406022,1.00000000020718,0.395234082614583
26499.9999998949,41.1912044725987,1.00000000017163,0.368283344671728
26599.9999998934,41.0492766894766,1.00000000014593,0.34199779136608
26699.999999892,40.9201027351742,1.00000000012024,0.317071524374845
26799.9999998905,40.8274602770775,1.00000000011215,0.296025605519989
26899.999999889,40.8145497698768,1.00000000009371,0.277807785423886
26999.9999998876,40.9132670146453,1.00000000008316,0.261087868793203
27099.9999998861,41.1569264896334,1.00000000009295,0.248234922398562
27199.9999998847,41.5841065371876,1.00000000008698,0.239120422762182
27299.9999998832,42.2119167455511,1.00000000008971,0.239768238668579
27399.9999998818,43.0741685870325,1.00000000011106,0.239974449937572
27499.9999998803,44.1749056058118,1.00000000013369,0.248297394821693
27599.9999998789,45.5187275355537,1.00000000014633,0.255677722000352
27699.9999998774,47.1154722452038,1.0000000001977,0.271080611560535
27799.9999998759,48.9157784171657,1.00000000022883,0.289972371615659
27899.9999998745,50.9413459381671,1.0000000002705,0.30957534830693
27999.999999873,53.1048678651231,1.00000000031269,0.329477275820454
28099.9999998716,55.4297386704385,1.00000000038079,0.347352715201711
28199.9999998701,57.8052018989427,1.0000000004101,0.364824978616204
28299.9999998687,60.2512721949168,1.00000000044226,0.380026280136984
28399.9999998672,62.6845062959446,1.0000000004848,0.399483411936274
28499.9999998658,65.0918290203667,1.00000000049285,0.416296949475506
28599.9999998643,67.4401517283673,1.00000000052761,0.432779332989303
28699.9999998629,69.6993451328343,1.00000000047783,0.447945184040575
28799.9999998614,71.8805898810943,1.00000000055763,0.460920548311945
28899.9999998599,73.9317937732773,1.00000000050386,0.469679248989621
28999.9999998585,75.8791308101836,1.00000000060436,0.481958647050867
