Time,AGPnorm,Energy,Entropy
0,0,1,-7.45940743031199e-17
99.9999999999986,0.00153010775050152,1.00000000000143,0.00480954170752139
199.999999999993,0.0102022732304905,1.00000000000327,0.0142112778284278
300,0.0207934848347325,1.00000000000266,0.0263910839404522
400.000000000022,0.0317425692949024,1.00000000000072,0.0414672276599324
500.000000000045,0.0446204343497398,1.00000000000018,0.0596879432037667
600.000000000068,0.0611110003499031,1.0000000000023,0.0811782050746116
700.000000000091,0.0770825336879296,1.00000000000327,0.106019436439357
800.000000000113,0.0931117657645137,1.00000000000235,0.13487423253152
900.000000000136,0.109940702612864,1.00000000000454,0.170153490210059
1000.00000000016,0.125831592102961,1.00000000004117,0.215055890670386
1100.0000000001,0.144011747456247,1.00000000018671,0.269350682948246
1200,0.185405543043843,1.0000000004789,0.324753900882756
1299.99999999991,0.271566501447248,1.00000000079116,0.375033802267546
1399.99999999982,0.461842030115125,1.00000000115139,0.418450947443169
1499.99999999973,0.872640919864148,1.00000000149505,0.455082770770684
1599.99999999964,1.60966780572135,1.00000000176248,0.48588744405887
1699.99999999955,2.7289623816936,1.00000000186433,0.511405244316273
1799.99999999946,4.26720152164594,1.00000000192531,0.531781458440941
1899.99999999937,6.22767506453767,1.00000000213616,0.547426492881108
1999.99999999928,8.57782729667039,1.00000000219403,0.560563413956425
2099.99999999919,11.2842457089488,1.00000000219822,0.570684588549657
2199.99999999909,14.2927453465943,1.00000000210689,0.577811011591387
2299.999999999,17.5049520418898,1.00000000212849,0.582189100068437
2399.99999999891,20.815728634071,1.00000000206493,0.586025210374046
2499.99999999882,24.1608111964415,1.0000000019558,0.58868387622657
2599.99999999873,27.4973017918832,1.00000000196566,0.588635902394493
2699.99999999864,30.7547960816158,1.00000000188725,0.588023941608534
2799.99999999855,33.8538213315748,1.00000000178101,0.587564460056501
2899.99999999846,36.7454586518503,1.00000000177734,0.586814235993122
2999.99999999837,39.417027502747,1.00000000168723,0.584065775759561
3099.99999999828,41.8574881632495,1.00000000166965,0.58021570078029
3199.99999999819,44.0374124529271,1.00000000152403,0.578825616827884
3299.99999999809,45.9322310170245,1.00000000157629,0.578429124998569
3399.999999998,47.5430190563068,1.00000000144244,0.576191731311172
3499.99999999791,48.8897390106627,1.00000000141421,0.572335368647051
3599.99999999782,49.9793845380608,1.00000000134638,0.574573710690689
3699.99999999773,50.811847432932,1.00000000127006,0.566929636696368
3799.99999999764,51.4066222616312,1.00000000131406,0.572617071368769
3899.99999999755,51.7696810005833,1.00000000116833,0.565422996312429
3999.99999999746,51.9493126182196,1.00000000123213,0.570810185786735
4099.99999999738,51.9488756691285,1.0000000011312,0.55528952462981
4199.99999999775,51.800549937444,1.00000000129147,0.575937421649068
4299.99999999811,51.5302348379091,1.00000000099714,0.546380616904211
4399.99999999848,51.1315139881495,1.00000000133575,0.573402535097443
4499.99999999884,50.6883531880756,1.00000000132077,0.554730110402798
4599.9999999992,50.1405427296019,1.00000000099292,0.528378708356365
4699.99999999957,49.5588959924106,1.00000000151681,0.579339346999745
4799.99999999993,48.9549743468838,1.00000000094379,0.523292483179093
4900.00000000029,48.2761167933068,1.00000000113151,0.530807339847293
5000.00000000066,47.6092702708236,1.00000000157007,0.57671223187052
5100.00000000102,46.9456191244143,1.00000000100107,0.510389102654676
5200.00000000139,46.2329081438501,1.00000000104311,0.505958403809204
5300.00000000175,45.5278065087771,1.00000000165821,0.577603574342148
5400.00000000211,44.852983238137,1.00000000132529,0.517733948195339
5500.00000000248,44.1603849307311,1.0000000009774,0.483636058377249
5600.00000000284,43.4560883961388,1.00000000124822,0.523594894476272
5700.00000000321,42.780058326946,1.00000000162578,0.562280723998892
5800.00000000357,42.1258486347869,1.0000000012063,0.493266806669235
5900.00000000393,41.4683361872907,1.00000000102416,0.484822761861554
6000.0000000043,40.8121616282209,1.00000000127451,0.509324430649575
6100.00000000466,40.176160999577,1.0000000017054,0.547024034254502
6200.00000000502,39.56335637126,1.00000000141335,0.517670958938502
6300.00000000539,38.9628636615356,1.00000000109931,0.482301621758059
6400.00000000575,38.3718992387598,1.00000000114831,0.506657241533779
6500.00000000612,37.7929012604138,1.00000000125145,0.510701837241176
6600.00000000648,37.2302430402195,1.0000000014448,0.532484837906973
6700.00000000684,36.6842160952955,1.00000000134106,0.52290491807429
6800.00000000721,36.1553114998509,1.0000000009804,0.486638217155852
6900.00000000757,35.6441441840991,1.00000000115185,0.509485094461867
7000.00000000793,35.1472507463175,1.00000000133986,0.528631379795515
7100.0000000083,34.6663343665514,1.00000000114608,0.504473908011495
7200.00000000866,34.200418555864,1.00000000140177,0.527676696816032
7300.00000000903,33.7454342290317,1.00000000150249,0.523458341715999
7400.00000000939,33.3069579607727,1.0000000010536,0.497818693037876
7500.00000000975,32.8903225787517,1.00000000106854,0.501120283182056
7600.00000001012,32.4872014101016,1.00000000144641,0.526581649941591
7700.00000001048,32.094353604204,1.00000000123292,0.526002100167271
7800.00000001084,31.7211661637344,1.00000000105448,0.487871507934519
7900.00000001121,31.3622633455797,1.00000000142168,0.517509240923827
8000.00000001157,31.0080668373905,1.000000001471,0.52976324907336
8100.00000001194,30.6627335588123,1.00000000121802,0.51179336412861
8200.0000000123,30.3383327343864,1.00000000113423,0.497979333900701
8300.00000001266,30.0319810990265,1.00000000121031,0.515207649379241
8400.00000001303,29.7300768562943,1.00000000145564,0.524173505827733
8500.00000001339,29.4333212819197,1.00000000128102,0.524995655196536
8600.00000001376,29.1550682552753,1.00000000108794,0.505132361495532
8700.00000001412,28.8921900500291,1.00000000119478,0.505330748629644
8800.00000001448,28.6354826977873,1.00000000146967,0.53526461504738
8900.00000001485,28.3801227788751,1.00000000147396,0.533523707092642
9000.00000001521,28.1320413536427,1.00000000121175,0.514939412512038
9100.00000001557,27.9030646706187,1.00000000114441,0.511505343365926
9200.00000001594,27.6867975421365,1.00000000119097,0.527409331739775
9300.0000000163,27.4786315632292,1.00000000132476,0.529789565193323
9400.00000001667,27.274937965989,1.00000000130016,0.522493475528715
9500.00000001703,27.0760392319258,1.000000001351,0.522992517465034
9600.00000001739,26.8837811203158,1.00000000132957,0.537415453284711
9700.00000001776,26.7004207639699,1.00000000124196,0.529462931141137
9800.00000001812,26.5253853900284,1.00000000120629,0.527987109264531
9900.00000001848,26.356733841484,1.00000000135989,0.541496771301573
10000.0000000188,26.1911615136286,1.00000000141824,0.537973234075969
10100.0000000192,26.0302774243849,1.00000000125236,0.5322117759892
10200.0000000196,25.8827036328599,1.00000000110983,0.52303941973926
10300.0000000199,25.74996809008,1.00000000132241,0.52387987589683
10400.0000000203,25.6182895361057,1.00000000150894,0.542768862959369
10500.0000000207,25.4871646158337,1.00000000129734,0.534473049021361
10600.000000021,25.3702261144331,1.00000000111201,0.518614929020641
10700.0000000214,25.2630267934619,1.00000000123689,0.527108902841447
10800.0000000218,25.1548678156208,1.0000000014168,0.535110715716954
10900.0000000221,25.0394606910218,1.00000000144088,0.556096764190978
11000.0000000225,24.9198411526019,1.00000000132301,0.561559143184518
11100.0000000229,24.8042985401113,1.00000000124134,0.548392992744795
11200.0000000232,24.695379643702,1.00000000124892,0.548069981060923
11300.0000000236,24.5927684386223,1.00000000141248,0.551345473008522
11400.0000000239,24.4934743512536,1.00000000142684,0.546113403424569
11500.0000000243,24.3974994046723,1.0000000013333,0.540302187554113
11600.0000000247,24.3097704785138,1.00000000120019,0.539177590374909
11700.000000025,24.2341227502764,1.00000000117913,0.538161724089342
11800.0000000254,24.1654601746252,1.00000000122289,0.543557621794976
11900.0000000258,24.0992289762502,1.00000000136674,0.546537528893489
12000.0000000261,24.030479814343,1.00000000142034,0.547662628712077
12100.0000000265,23.9656619539785,1.00000000120907,0.540520718589565
12200.0000000269,23.9115510612384,1.00000000119704,0.530482788856767
12300.0000000272,23.8663879520002,1.00000000129768,0.544467771190045
12400.0000000276,23.8216503889838,1.00000000137405,0.56125158210786
12500.0000000279,23.7735938126273,1.00000000131377,0.551842697044565
12600.0000000283,23.7193867470383,1.00000000140743,0.564869049976136
12700.0000000287,23.6572324123833,1.00000000140946,0.564268429015041
12800.000000029,23.5879396972829,1.00000000140553,0.578179950218296
12900.0000000294,23.5143741962956,1.00000000133972,0.581753590368372
13000.0000000298,23.4414331563673,1.00000000120529,0.575062183607906
13100.0000000301,23.3751782759828,1.0000000012065,0.561709640012781
13200.0000000305,23.3163855742118,1.00000000142241,0.560211399005724
13300.0000000309,23.2635597751325,1.00000000128281,0.550333305915041
13400.0000000312,23.214488055142,1.00000000132042,0.546247392709021
13500.0000000316,23.1716319348288,1.00000000133819,0.551846947016102
13600.0000000319,23.1371936358785,1.00000000127917,0.55607109721961
13700.0000000323,23.1111232035747,1.00000000125729,0.555858101041139
13800.0000000327,23.0880113035875,1.00000000139183,0.55912875681975
13900.000000033,23.0614871628709,1.00000000137833,0.559692563935834
14000.0000000334,23.0385385619646,1.00000000128202,0.555836109028443
14100.0000000338,23.0213815630168,1.00000000125326,0.542849543542131
14200.0000000341,23.0079812363473,1.0000000012962,0.542353573621495
14300.0000000345,22.9967306117894,1.0000000012927,0.55436593181512
14400.0000000349,22.9887961073298,1.00000000126617,0.565170466707997
14500.0000000352,22.982934724514,1.00000000130176,0.574936925501615
14600.0000000356,22.9751524736817,1.00000000148996,0.584527136620664
14700.0000000359,22.9623417168317,1.00000000137404,0.593679456201165
14800.0000000363,22.9449217924316,1.0000000012842,0.597073069937359
14900.0000000367,22.9252017549164,1.00000000128651,0.592143341534521
15000.000000037,22.9033378918887,1.00000000137033,0.593335453040295
15100.0000000374,22.8778685531018,1.00000000144522,0.58936806046793
15200.0000000378,22.8435109504152,1.00000000148374,0.595971325069933
15300.0000000381,22.8005968380426,1.00000000153909,0.596549055790976
15400.0000000385,22.7492426135154,1.00000000144741,0.601273054943598
15500.0000000389,22.695068515307,1.00000000140575,0.605388350029307
15600.0000000392,22.6426084136533,1.00000000133765,0.601725692185162
15700.0000000396,22.5951671797263,1.00000000128409,0.591495412709801
15800.0000000399,22.5553690929165,1.00000000140391,0.58645546668502
15900.0000000403,22.5212709850633,1.00000000136308,0.582728986135079
16000.0000000407,22.4928895590803,1.00000000135766,0.577108817530955
16100.000000041,22.47071559076,1.00000000131312,0.573575941248813
16200.0000000414,22.4534692363948,1.00000000132431,0.571160775597767
16300.0000000418,22.4441398349059,1.00000000135494,0.57510208379458
16400.0000000418,22.4421622607018,1.00000000130475,0.581105785678301
16500.0000000404,22.4441799634721,1.00000000137626,0.578211655025644
16600.0000000389,22.4460375189569,1.00000000140548,0.575370048694266
16700.0000000375,22.4476684442477,1.00000000132242,0.573702429215246
16800.000000036,22.4508628212918,1.00000000140879,0.563805806886478
16900.0000000346,22.4580522907914,1.00000000130649,0.563102515502736
17000.0000000331,22.4694846753853,1.00000000121819,0.56815478675215
17100.0000000317,22.4854082131894,1.00000000131727,0.576664133098833
17200.0000000302,22.5033584408015,1.00000000137577,0.578056164831892
17300.0000000287,22.519495436815,1.00000000145085,0.583362347497732
17400.0000000273,22.5346525150686,1.00000000141848,0.578107812628439
17500.0000000258,22.5478787912908,1.00000000145191,0.575458911078579
17600.0000000244,22.5618681340536,1.00000000140132,0.588510337982875
17700.0000000229,22.5748638930072,1.00000000137851,0.603120009162425
17800.0000000215,22.5861703003176,1.0000000014814,0.605661835608863
17900.00000002,22.5941074176351,1.00000000145039,0.612836495280365
18000.0000000186,22.5978915677784,1.00000000142681,0.613104542991018
18100.0000000171,22.5961948473239,1.00000000151544,0.613721522386059
18200.0000000156,22.5889825322409,1.00000000147072,0.61306066123541
18300.0000000142,22.5815495115499,1.00000000138824,0.623148633075609
18400.0000000127,22.5719508729149,1.00000000140045,0.629127216265798
18500.0000000113,22.5579515827912,1.00000000139447,0.632975018316377
18600.0000000098,22.5407027880713,1.00000000142446,0.629201565242428
18700.0000000084,22.5196563776361,1.00000000137201,0.625613337229747
18800.0000000069,22.4957398520326,1.00000000138676,0.623944204687994
18900.0000000055,22.4671890338521,1.00000000144821,0.625108443301389
19000.000000004,22.4321671172984,1.00000000155638,0.620798097965918
19100.0000000026,22.3911193470999,1.00000000152212,0.626328586995927
19200.0000000011,22.3442872702625,1.0000000015398,0.621706036895102
19299.9999999996,22.2951178387621,1.00000000144588,0.622815589886519
19399.9999999982,22.2469776004666,1.00000000140294,0.623272778209114
19499.9999999967,22.2013951678362,1.00000000135206,0.617255119092384
19599.9999999953,22.1606317055415,1.00000000136289,0.614049678245824
19699.9999999938,22.1260777540722,1.00000000135025,0.609965703401795
19799.9999999924,22.0964876162212,1.00000000140308,0.606469672896761
19899.9999999909,22.0713230566793,1.00000000146455,0.609027396449745
19999.9999999895,22.051085501599,1.00000000138258,0.604486817398535
20099.999999988,22.0358477493453,1.00000000141423,0.587998656713622
20199.9999999865,22.026968356698,1.00000000143292,0.579036988328979
20299.9999999851,22.0250378570988,1.00000000147948,0.580668828268103
20399.9999999836,22.0288959346329,1.00000000144644,0.579741481520239
20499.9999999822,22.038823293452,1.00000000142319,0.588197764221134
20599.9999999807,22.0517751059201,1.00000000151099,0.599384231242011
20699.9999999793,22.0668130382982,1.00000000143723,0.59481977122784
20799.9999999778,22.08331248103,1.00000000142096,0.590688837249243
20899.9999999764,22.1001635601916,1.00000000145843,0.589983585206695
20999.9999999749,22.1178827171369,1.00000000144009,0.582450130696932
21099.9999999734,22.1380244006193,1.0000000014176,0.575951852506973
21199.999999972,22.163754552569,1.0000000013804,0.573571807305389
21299.9999999705,22.1938174955997,1.00000000146025,0.577945362553259
21399.9999999691,22.2245261012164,1.00000000152864,0.58235607827385
21499.9999999676,22.2538985599991,1.00000000147391,0.587390624044684
21599.9999999662,22.285001848953,1.0000000013846,0.588495683886372
21699.9999999647,22.3171767815107,1.00000000149021,0.589899625717892
21799.9999999633,22.348103247918,1.00000000161146,0.592216339324233
21899.9999999618,22.3745355802469,1.00000000156627,0.599169605027521
21999.9999999603,22.3968635855597,1.00000000149408,0.605714901745935
22099.9999999589,22.4172560605769,1.00000000150757,0.613093081880016
22199.9999999574,22.4364945354151,1.00000000151422,0.629825416929084
22299.999999956,22.4534752833974,1.00000000161546,0.633825452546492
22399.9999999545,22.4671602220984,1.00000000162407,0.630966995250505
22499.9999999531,22.4770180905106,1.00000000160517,0.633241325729824
22599.9999999516,22.485729564362,1.00000000154253,0.63165035072136
22699.9999999502,22.4960265212214,1.0000000014884,0.633956904014712
22799.9999999487,22.5079514822692,1.00000000145547,0.635638219463116
22899.9999999473,22.5211567944622,1.00000000146424,0.636707626602202
22999.9999999458,22.5339197724616,1.00000000156846,0.636919096615103
23099.9999999443,22.5428118925306,1.00000000158733,0.635291423927452
23199.9999999429,22.5461493539842,1.0000000015622,0.637630526081572
23299.9999999414,22.5472917461573,1.00000000159129,0.642206710648304
23399.99999994,22.5454745413198,1.00000000151205,0.64209384717038
23499.9999999385,22.5410529719062,1.00000000159053,0.642480662465771
23599.9999999371,22.5352051925745,1.00000000156704,0.642281731662762
23699.9999999356,22.5288733791255,1.00000000144907,0.644007429735978
23799.9999999342,22.523580864225,1.00000000152786,0.636330898475489
23899.9999999327,22.5189766801855,1.00000000154508,0.638903058622552
23999.9999999312,22.5132478677126,1.00000000158382,0.64211266635015
24099.9999999298,22.5050231473451,1.00000000156984,0.637924183949514
24199.9999999283,22.49215834943,1.00000000161495,0.637316756833559
24299.9999999269,22.4761293906649,1.00000000155432,0.637732645192721
24399.9999999254,22.4599854003789,1.00000000152611,0.641668353636341
24499.999999924,22.4408353229103,1.00000000160397,0.645075508898569
24599.9999999225,22.4197731402591,1.00000000149233,0.643294664534015
24699.9999999211,22.3982532094958,1.00000000153597,0.648498027521679
24799.9999999196,22.3747856007627,1.00000000156188,0.649526928940218
24899.9999999181,22.3493376313989,1.00000000146062,0.637950876345533
24999.9999999167,22.3230363190917,1.00000000148516,0.639339028940155
25099.9999999152,22.2943152242048,1.00000000159982,0.640866768976101
25199.9999999138,22.2628844152489,1.00000000163063,0.638176246569501
25299.9999999123,22.2288741682125,1.00000000164873,0.63903506895132
25399.9999999109,22.192875965566,1.00000000159639,0.650091443688939
25499.9999999094,22.1541077419082,1.00000000161679,0.647778316580773
25599.999999908,22.1130722914489,1.00000000155997,0.644889433269554
25699.9999999065,22.0704186591243,1.00000000160478,0.644506387710068
25799.9999999051,22.0271935334903,1.00000000157817,0.646347176565223
25899.9999999036,21.9841704749163,1.00000000148042,0.646272392512141
25999.9999999021,21.9430133755327,1.00000000148928,0.636072907068016
26099.9999999007,21.9051379869047,1.00000000157702,0.63110582775258
26199.9999998992,21.871349416203,1.00000000153068,0.620563200814178
26299.9999998978,21.8415210728568,1.00000000151388,0.615969737254371
26399.9999998963,21.8161266287389,1.00000000152853,0.616401016336849
26499.9999998949,21.7941186747395,1.00000000155231,0.618374683725963
26599.9999998934,21.775232653263,1.0000000016021,0.625276421469521
26699.999999892,21.7608329820466,1.00000000149692,0.622966486230625
26799.9999998905,21.7517796370885,1.00000000151498,0.619126887139528
26899.999999889,21.7473092295307,1.00000000153077,0.617618609729328
26999.9999998876,21.7491890849573,1.00000000148862,0.611109956305011
27099.9999998861,21.7572121861614,1.00000000151244,0.605248752639474
27199.9999998847,21.7693887662135,1.00000000161309,0.608319140171573
27299.9999998832,21.7868318283419,1.0000000015274,0.605760596829326
27399.9999998818,21.8076478008819,1.00000000177011,0.60946926046421
27499.9999998803,21.8297511782414,1.0000000015111,0.60260025935445
27599.9999998789,21.855432715006,1.00000000156586,0.599928137825396
27699.9999998774,21.88201093643,1.00000000159087,0.595763574817348
27799.9999998759,21.9089443643184,1.00000000158395,0.598186862205534
27899.9999998745,21.9381673003401,1.00000000157965,0.591842242554658
27999.999999873,21.9691988927129,1.00000000166051,0.601156866450121
28099.9999998716,22.0013217139639,1.0000000016333,0.59889333575299
28199.9999998701,22.0354926200183,1.00000000152959,0.590020314942163
28299.9999998687,22.0738840854296,1.00000000155788,0.592173522640969
28399.9999998672,22.1163332880976,1.00000000153061,0.591464806166004
28499.9999998658,22.1590401190144,1.00000000155303,0.595617829974577
28599.9999998643,22.2032655842667,1.00000000160889,0.598075789675453
28699.9999998629,22.2504119388318,1.00000000165638,0.603446818206419
28799.9999998614,22.2960574749948,1.0000000016555,0.60715331317488
28899.9999998599,22.3415885910452,1.000000001649,0.614999920099042
28999.9999998585,22.3855379381415,1.00000000163422,0.609425731316823
29099.999999857,22.4301194520476,1.00000000159111,0.61291314375805
