Time,AGPnorm,Energy,Entropy
0,0,1,-7.35872831162066e-17
99.9999999999986,0.000803069982253026,1.00000000000036,0.00270767229566798
199.999999999993,0.00526880100151713,0.999999999999695,0.00800769342371779
300,0.0106473089064503,0.999999999999307,0.0148484414453321
400.000000000022,0.0163825738674216,0.999999999999816,0.023331717217744
500.000000000045,0.0230609632418518,1.00000000000007,0.0337068307008069
600.000000000068,0.0324307925759823,0.999999999999944,0.0456019529175414
700.000000000091,0.0414515678894817,0.999999999999386,0.0586698566774092
800.000000000113,0.0521626057060003,0.999999999999922,0.0730193498170312
900.000000000136,0.0624116299486679,0.999999999999825,0.089137341779933
1000.00000000016,0.0744566117766017,1.00000000000008,0.107124502626297
1100.0000000001,0.0861924456600918,0.999999999999579,0.127354153225771
1200,0.0983148890212878,1.00000000000068,0.150029848926315
1299.99999999991,0.11010270993143,1.0000000000043,0.176698482060453
1399.99999999982,0.121052958473183,1.00000000001741,0.208012632436115
1499.99999999973,0.13294334493782,1.00000000005478,0.244500982988846
1599.99999999964,0.155056972826981,1.00000000013176,0.28311184743981
1699.99999999955,0.198074643956747,1.00000000023193,0.321512290068999
1799.99999999946,0.273153682279349,1.00000000040028,0.357147133206137
1899.99999999937,0.436591162037691,1.0000000004974,0.389569780386932
1999.99999999928,0.772851477913243,1.00000000061841,0.417716381568413
2099.99999999919,1.33938555750262,1.00000000078109,0.442392854373428
2199.99999999909,2.18100634591196,1.00000000080574,0.464316483747745
2299.999999999,3.36945856427646,1.00000000094806,0.483005349591475
2399.99999999891,4.9780438373825,1.00000000103707,0.498688703309074
2499.99999999882,7.02579002016402,1.00000000101504,0.512586526164615
2599.99999999873,9.50627752433324,1.00000000105917,0.524094215820349
2699.99999999864,12.4242585279619,1.00000000113569,0.533827294896897
2799.99999999855,15.7664790528892,1.00000000115189,0.54148959555365
2899.99999999846,19.4891810607603,1.00000000114925,0.548103165388095
2999.99999999837,23.5360958338159,1.00000000116075,0.553385196033698
3099.99999999828,27.8677288134674,1.00000000109364,0.557423925762758
3199.99999999819,32.4299684759634,1.0000000011267,0.560492786717862
3299.99999999809,37.1513312306169,1.00000000111206,0.562641335919969
3399.999999998,41.9654226437497,1.00000000109198,0.564061284785127
3499.99999999791,46.8279661363551,1.00000000110555,0.564728743198426
3599.99999999782,51.6921760854501,1.0000000010063,0.565473210254187
3699.99999999773,56.4950206206691,1.00000000100173,0.564914681115186
3799.99999999764,61.1864531650402,1.00000000098134,0.564124459617051
3899.99999999755,65.7296205531393,1.00000000099774,0.564352716490202
3999.99999999746,70.0978877828409,1.00000000096179,0.562550870759716
4099.99999999738,74.263269723493,1.00000000090914,0.560218138105122
4199.99999999775,78.1882100568752,1.00000000091005,0.559904082271209
4299.99999999811,81.8512987327269,1.00000000089578,0.558105069164724
4399.99999999848,85.2542715307252,1.00000000082767,0.555811871238203
4499.99999999884,88.3856648531059,1.00000000086021,0.554395916702668
4599.9999999992,91.2349962909743,1.00000000078894,0.552532972822505
4699.99999999957,93.793913297076,1.00000000079793,0.550514985905951
4799.99999999993,96.0654221976411,1.00000000071529,0.54909729383164
4900.00000000029,98.0641490801384,1.00000000073569,0.549884745388568
5000.00000000066,99.7916570875246,1.00000000071051,0.542653447395844
5100.00000000102,101.246620261413,1.00000000066912,0.544980139307615
5200.00000000139,102.450794046157,1.00000000067664,0.549217950316372
5300.00000000175,103.414360661148,1.00000000064495,0.537334156584549
5400.00000000211,104.130742019427,1.00000000063518,0.537172740382918
5500.00000000248,104.640805268699,1.00000000068653,0.554884164274323
5600.00000000284,104.97105923155,1.00000000061261,0.540378423573834
5700.00000000321,105.082485207075,1.00000000053343,0.51944455654211
5800.00000000357,105.001637962802,1.00000000065761,0.546819366644919
5900.00000000393,104.820922590159,1.00000000072159,0.561590198016271
6000.0000000043,104.526687089524,1.00000000055284,0.520821114533005
6100.00000000466,104.04682595392,1.00000000044062,0.501553400461468
6200.00000000502,103.437959571898,1.00000000068019,0.550612666501074
6300.00000000539,102.812260403327,1.0000000007725,0.568610794358042
6400.00000000575,102.149123628388,1.00000000056775,0.519315754637957
6500.00000000612,101.35292250378,1.00000000038523,0.471510688473338
6600.00000000648,100.44169130253,1.00000000057944,0.522214001374874
6700.00000000684,99.5331845665712,1.00000000090926,0.572455300650481
6800.00000000721,98.6686438544745,1.00000000082433,0.556129074486068
6900.00000000757,97.7738354579902,1.00000000048246,0.477357563534456
7000.00000000793,96.7763166837624,1.00000000034437,0.442283239756545
7100.0000000083,95.7186191950608,1.00000000065597,0.516327320358765
7200.00000000866,94.693209729166,1.00000000089422,0.56920904457439
7300.00000000903,93.7320849757731,1.00000000087742,0.561977215267934
7400.00000000939,92.786428946862,1.00000000058024,0.491716975744012
7500.00000000975,91.7883927147922,1.00000000033373,0.415317378123014
7600.00000001012,90.7334108722587,1.0000000004313,0.443583023448144
7700.00000001048,89.6764611925837,1.00000000073409,0.525218287422815
7800.00000001084,88.6653216213941,1.00000000092978,0.561755445223131
7900.00000001121,87.7085822232075,1.00000000087259,0.551412818587224
8000.00000001157,86.7756330106664,1.00000000063141,0.493589459557484
8100.00000001194,85.8252818583513,1.00000000042556,0.418942037575169
8200.0000000123,84.8494737791805,1.00000000035415,0.407956429425764
8300.00000001266,83.868127469987,1.00000000056177,0.464263581845438
8400.00000001303,82.9046114900311,1.00000000079359,0.524923944658328
8500.00000001339,81.9755956853855,1.00000000093714,0.547042781110847
8600.00000001376,81.0836694250746,1.00000000083231,0.538460584397893
8700.00000001412,80.2140872145025,1.0000000006741,0.500364628916412
8800.00000001448,79.3496906805508,1.0000000005129,0.448501526042209
8900.00000001485,78.4871422591422,1.00000000042853,0.414962305856076
9000.00000001521,77.6321906624181,1.00000000047135,0.432770097275908
9100.00000001557,76.7900765984086,1.00000000061719,0.470335895794863
9200.00000001594,75.9641949027868,1.00000000069855,0.508918969686508
9300.0000000163,75.1557056583988,1.00000000078546,0.525120636173978
9400.00000001667,74.3661832583278,1.00000000083294,0.535633788360652
9500.00000001703,73.5955139126288,1.00000000074235,0.527558341339837
9600.00000001739,72.8404525903005,1.0000000005612,0.485175103541332
9700.00000001776,72.1007941652638,1.00000000046697,0.447797479849672
9800.00000001812,71.3809798920296,1.00000000051814,0.438684316448334
9900.00000001848,70.6832382973808,1.00000000058244,0.450056177276307
10000.0000000188,70.0037115428864,1.0000000006436,0.476757966493952
10100.0000000192,69.3408464152322,1.00000000064893,0.4877393245757
10200.0000000196,68.6926255266976,1.00000000061941,0.498576404502995
10300.0000000199,68.0566467981213,1.00000000072366,0.509946994969894
10400.0000000203,67.4273291852671,1.00000000083079,0.526665887452278
10500.0000000207,66.8026240471059,1.00000000079897,0.537130562249209
10600.000000021,66.1870821637346,1.00000000065744,0.51810868224869
10700.0000000214,65.5898055839231,1.00000000049978,0.476453808997243
10800.0000000218,65.0206458283711,1.00000000043726,0.44199193686416
10900.0000000221,64.479638414569,1.00000000054666,0.444000325638019
11000.0000000225,63.95963086431,1.00000000067346,0.458493495455618
11100.0000000229,63.4525201888292,1.00000000068008,0.481931628388403
11200.0000000232,62.9554306754165,1.00000000063099,0.495003386178382
11300.0000000236,62.4712181465394,1.00000000060918,0.49049964783848
11400.0000000239,62.004018673894,1.00000000053712,0.487007598560102
11500.0000000243,61.551207490293,1.00000000058504,0.497095712696825
11600.0000000247,61.1026681604484,1.00000000074166,0.513209900381464
11700.000000025,60.6480350441225,1.00000000085856,0.529967701129465
11800.0000000254,60.1860847999482,1.00000000085649,0.539795810098697
11900.0000000258,59.7259498783077,1.00000000071892,0.528697512373532
12000.0000000261,59.2794018983324,1.00000000056724,0.498232588488069
12100.0000000265,58.8592453606573,1.00000000044648,0.464726505587253
12200.0000000269,58.4725743519336,1.00000000047945,0.449620283839135
12300.0000000272,58.1149643501237,1.00000000052809,0.452842122268206
12400.0000000276,57.7744763529919,1.00000000066956,0.469199289194614
12500.0000000279,57.4404166310049,1.00000000072302,0.48215562089662
12600.0000000283,57.1097799618695,1.00000000069077,0.492850700256489
12700.0000000287,56.7842554309291,1.00000000064885,0.503093932248017
12800.000000029,56.4667033274057,1.00000000064733,0.508759346215711
12900.0000000294,56.1582976189901,1.00000000062247,0.51074265527258
13000.0000000298,55.8578487753996,1.0000000005739,0.519099253575804
13100.0000000301,55.5629529138895,1.00000000059544,0.522509987614246
13200.0000000305,55.2687009811706,1.00000000062787,0.519219244618822
13300.0000000309,54.9714484459626,1.00000000071602,0.520547309058187
13400.0000000312,54.6670606678592,1.00000000074531,0.528712931146523
13500.0000000316,54.3545408594297,1.00000000078845,0.542842283214178
13600.0000000319,54.0413123082565,1.00000000069616,0.539257530013285
13700.0000000323,53.7406441815947,1.00000000057638,0.515939442541229
13800.0000000327,53.4647757222153,1.00000000051309,0.488755772338687
13900.000000033,53.218198335893,1.00000000048683,0.46916421773492
14000.0000000334,52.9986089082481,1.00000000054314,0.475050131229807
14100.0000000338,52.7982414509956,1.00000000062095,0.477137021899725
14200.0000000341,52.6101475824615,1.00000000060889,0.477826109994956
14300.0000000345,52.4285004746412,1.00000000064698,0.488259931950279
14400.0000000349,52.2520186303931,1.00000000062822,0.498138341635202
14500.0000000352,52.0859817255735,1.00000000058012,0.494190082637
14600.0000000356,51.933277518506,1.0000000005779,0.498683144944561
14700.0000000359,51.7851930061083,1.00000000069353,0.512618831372422
14800.0000000363,51.6294129414405,1.00000000075152,0.529940434511117
14900.0000000367,51.4591520452096,1.00000000072389,0.541834702605236
15000.000000037,51.2761490336909,1.00000000068167,0.544886408369824
15100.0000000374,51.0875836352733,1.00000000063301,0.546803275812692
15200.0000000378,50.9006682209635,1.000000000582,0.535330971316936
15300.0000000381,50.7210882984106,1.00000000053805,0.524289281411022
15400.0000000385,50.5483217226481,1.00000000064518,0.51796193247766
15500.0000000389,50.3759219863994,1.000000000716,0.517134084576539
15600.0000000392,50.1969282278897,1.00000000074533,0.531956054309376
15700.0000000396,50.0077953863929,1.00000000081326,0.544570010536582
15800.0000000399,49.8099509163713,1.00000000071577,0.549028677059336
15900.0000000403,49.6124398720133,1.00000000064025,0.543224797562638
16000.0000000407,49.4280202301892,1.00000000059395,0.527518502360132
16100.000000041,49.2669992629349,1.00000000053431,0.508013850106872
16200.0000000414,49.1334093953688,1.00000000051336,0.49067636023862
16300.0000000418,49.0252339003333,1.00000000056162,0.483747582832173
16400.0000000418,48.9373132525162,1.00000000060047,0.483647121280602
16500.0000000404,48.8593498143098,1.00000000067725,0.488609927990681
16600.0000000389,48.7850267108465,1.00000000068868,0.492110408157756
16700.0000000375,48.7145817830195,1.00000000065616,0.491093406720015
16800.000000036,48.6505949616899,1.00000000061264,0.494697374742232
16900.0000000346,48.5916675135897,1.00000000064375,0.507045801179419
17000.0000000331,48.5353871897677,1.00000000066437,0.522468641651548
17100.0000000317,48.4831981289558,1.00000000061666,0.52959839593138
17200.0000000302,48.4375496832177,1.00000000061525,0.533303821871847
17300.0000000287,48.3993980548358,1.00000000060805,0.538324650068633
17400.0000000273,48.3627626095352,1.00000000062924,0.540844583560919
17500.0000000258,48.3203286401429,1.00000000070514,0.544126593403534
17600.0000000244,48.2638925228132,1.00000000073355,0.546876431127654
17700.0000000229,48.1889835775426,1.00000000071591,0.549694364224868
17800.0000000215,48.0955622684778,1.00000000075439,0.546494806444992
17900.00000002,47.9883173089952,1.00000000069027,0.553159743071452
18000.0000000186,47.8726702502018,1.00000000065906,0.562973548633624
18100.0000000171,47.7533627652562,1.00000000064284,0.565120186110292
18200.0000000156,47.6359362126241,1.00000000059916,0.558749765470365
18300.0000000142,47.5241546497382,1.00000000054945,0.554258553506271
18400.0000000127,47.4182094735573,1.00000000059554,0.550924466357206
18500.0000000113,47.3166743731756,1.00000000064658,0.543384295494808
18600.0000000098,47.215724915006,1.00000000069609,0.54154126572659
18700.0000000084,47.1114999181513,1.00000000072631,0.550119245607947
18800.0000000069,47.0011519412812,1.00000000077784,0.558106335158439
18900.0000000055,46.8823565192632,1.00000000078051,0.565220437964539
19000.000000004,46.7581244778919,1.00000000075209,0.566300702948124
19100.0000000026,46.6366572848599,1.0000000006465,0.559475699413695
19200.0000000011,46.5277161344623,1.00000000059411,0.545327247417814
19299.9999999996,46.4389618947572,1.00000000049622,0.532535945293851
19399.9999999982,46.3735111381052,1.00000000049508,0.518544051252989
19499.9999999967,46.330941938293,1.0000000005418,0.508661344767254
19599.9999999953,46.3060619664364,1.00000000060341,0.501387785558503
19699.9999999938,46.2920828821797,1.00000000062785,0.508962442973681
19799.9999999924,46.2858945829138,1.00000000065209,0.510997003683206
19899.9999999909,46.2870813698592,1.00000000063648,0.505167682544619
19999.9999999895,46.2926589767464,1.00000000066543,0.501083947547984
20099.999999988,46.3014546747278,1.00000000066161,0.503984318206184
20199.9999999865,46.3143807380355,1.00000000062264,0.503952335153922
20299.9999999851,46.335632981173,1.00000000056445,0.50007516810383
20399.9999999836,46.3661127384093,1.00000000057352,0.50282941138939
20499.9999999822,46.4016900046935,1.00000000062635,0.521547641727664
20599.9999999807,46.4338455749195,1.00000000071557,0.542421975320063
20699.9999999793,46.4568860469557,1.0000000007353,0.551573408298159
20799.9999999778,46.4690353594156,1.0000000007559,0.560356275891278
20899.9999999764,46.4732675040064,1.00000000069963,0.566727723499248
20999.9999999749,46.4748866703494,1.00000000062525,0.568115575152979
21099.9999999734,46.4770067059445,1.00000000064696,0.56571898238919
21199.999999972,46.4777214289454,1.00000000065092,0.566352719861146
21299.9999999705,46.4747487538628,1.00000000067125,0.576490586861495
21399.9999999691,46.4681761865612,1.00000000065177,0.584573496706179
21499.9999999676,46.4586414017243,1.00000000063645,0.584448574331982
21599.9999999662,46.4433678316807,1.00000000068355,0.583204523456776
21699.9999999647,46.419737934263,1.00000000068664,0.578903789589233
21799.9999999633,46.3867831215679,1.00000000064949,0.576614065836062
21899.9999999618,46.3440181483202,1.0000000006824,0.570314648150955
21999.9999999603,46.2923164224506,1.00000000069541,0.557807865424624
22099.9999999589,46.2323580191442,1.00000000067108,0.554995900833131
22199.9999999574,46.1628304106085,1.00000000067784,0.56534770257036
22299.999999956,46.0829435513768,1.00000000069774,0.581152181764155
22399.9999999545,45.9950429791105,1.00000000068554,0.585089741685631
22499.9999999531,45.9027824372687,1.00000000062982,0.582574110669239
22599.9999999516,45.8109705507104,1.00000000060433,0.580339385906814
22699.9999999502,45.7222437087648,1.00000000061871,0.581545569032836
22799.9999999487,45.6375245770902,1.00000000057771,0.58370874671079
22899.9999999473,45.5571454850179,1.00000000059087,0.586677065182792
22999.9999999458,45.4798485554499,1.00000000059896,0.580819032617934
23099.9999999443,45.4052100699974,1.00000000062702,0.579317291767446
23199.9999999429,45.3323873450014,1.00000000066928,0.58161799663519
23299.9999999414,45.2594346779728,1.00000000070552,0.581296930112418
23399.99999994,45.1843614343197,1.00000000075332,0.578374096036641
23499.9999999385,45.1055393490555,1.00000000076051,0.573979592295492
23599.9999999371,45.0227564213926,1.00000000077697,0.572789415825684
23699.9999999356,44.9357239327237,1.00000000075322,0.571267588965585
23799.9999999342,44.8474829850864,1.00000000069942,0.566672196070342
23899.9999999327,44.7636137317818,1.00000000062806,0.565318258228306
23999.9999999312,44.6907478892126,1.00000000057805,0.561669673495041
24099.9999999298,44.6337491199482,1.00000000056056,0.5518601967551
24199.9999999283,44.5948478041223,1.00000000054778,0.542239034050987
24299.9999999269,44.5736527328313,1.00000000056034,0.537173488810946
24399.9999999254,44.5696848385471,1.00000000058329,0.531683033952091
24499.999999924,44.5801839138097,1.0000000006096,0.524100709996613
24599.9999999225,44.6011042060521,1.00000000061394,0.524946988303832
24699.9999999211,44.6292256312494,1.00000000069038,0.522536288609896
24799.9999999196,44.6644524011073,1.00000000061622,0.520242548918304
24899.9999999181,44.704670381082,1.0000000006715,0.519385815428443
24999.9999999167,44.7482705327089,1.00000000065575,0.520135123540547
25099.9999999152,44.7968340709114,1.00000000062625,0.520217939401319
25199.9999999138,44.8522107132772,1.00000000061209,0.516885527521467
25299.9999999123,44.9145362980854,1.00000000061322,0.511523018512834
25399.9999999109,44.982542679155,1.0000000006321,0.515034253971185
25499.9999999094,45.0518018958735,1.00000000066797,0.523123723063657
25599.999999908,45.1185768666152,1.00000000066302,0.534700658110163
25699.9999999065,45.1797236400661,1.00000000064947,0.544507521802083
25799.9999999051,45.2365681413304,1.00000000069504,0.558013399171246
25899.9999999036,45.2889495640198,1.00000000069698,0.564639654750886
25999.9999999021,45.3366641454646,1.00000000064883,0.569113132611436
26099.9999999007,45.3789126709043,1.00000000064856,0.576469241895653
26199.9999998992,45.4165826545154,1.00000000069157,0.579813328516782
26299.9999998978,45.4504332185304,1.00000000065736,0.582201398232345
26399.9999998963,45.4816095961225,1.00000000066773,0.583642091297557
26499.9999998949,45.5097608026788,1.00000000067556,0.582739871595536
26599.9999998934,45.5327545063276,1.00000000070323,0.584524527858567
26699.999999892,45.5501863566158,1.00000000073022,0.584170683306886
26799.9999998905,45.5621356517458,1.00000000071462,0.585874628235271
26899.999999889,45.568365997766,1.00000000072907,0.586847189672623
26999.9999998876,45.5696924404899,1.00000000064524,0.585775990367593
27099.9999998861,45.5681652760586,1.00000000062618,0.589825933719315
27199.9999998847,45.5657792804805,1.00000000062633,0.587327537429894
27299.9999998832,45.5638533035005,1.00000000063232,0.584045755623325
27399.9999998818,45.5609215623636,1.00000000067628,0.585711883781917
27499.9999998803,45.5546216974363,1.00000000066997,0.585880506441782
27599.9999998789,45.5440466081052,1.00000000067286,0.585559356398414
27699.9999998774,45.5295834053463,1.00000000066516,0.580678846808995
27799.9999998759,45.5113869537526,1.00000000067067,0.57492738152323
27899.9999998745,45.4890552505139,1.00000000068951,0.575750292463589
27999.999999873,45.4627239883302,1.00000000066579,0.573002253880678
28099.9999998716,45.4328992782974,1.00000000068148,0.576127798780152
28199.9999998701,45.3989006339023,1.00000000073934,0.582890820933899
28299.9999998687,45.360114038805,1.00000000070736,0.584208812840523
28399.9999998672,45.3179453083909,1.00000000070677,0.591737013009225
28499.9999998658,45.2722694842366,1.00000000068956,0.592831125515023
28599.9999998643,45.2253608232132,1.0000000006214,0.59091124406341
28699.9999998629,45.1787940860414,1.00000000067745,0.591695064778163
28799.9999998614,45.130976295807,1.00000000065826,0.592730711263444
28899.9999998599,45.0821914898659,1.00000000067116,0.589496737081452
28999.9999998585,45.0336538315402,1.00000000059043,0.580253236693313
