Time,AGPnorm,Energy,Entropy
0,0,1,1.70849413536793e-18
99.9999999999986,0.0097823836007766,1.00000000000379,0.0260843887382401
199.999999999993,0.026441164267828,1.00000000000014,0.0747799265163544
300,0.0510385000406376,1.00000000000685,0.151249736861801
400.000000000022,0.0780745940910235,1.00000000020299,0.268732317815889
500.000000000045,0.132404750748055,1.00000000136159,0.413154691211955
600.000000000068,0.604364766798109,1.00000000270205,0.510762882048376
700.000000000091,1.76937915888326,1.00000000327255,0.561939810129336
800.000000000113,3.73258465779748,1.00000000367103,0.584774004769884
900.000000000136,6.19074780002135,1.00000000332554,0.589858418259915
1000.00000000016,8.74822624935686,1.00000000314594,0.58619845503164
1100.0000000001,11.1233860961293,1.00000000290622,0.578584924554586
1200,13.0557509294213,1.0000000026748,0.566490758609606
1299.99999999991,14.4891654265369,1.00000000242822,0.561880627962653
1399.99999999982,15.3919079674897,1.00000000225756,0.552529716467459
1499.99999999973,15.8374639619236,1.00000000190729,0.533572334123965
1599.99999999964,15.931252777336,1.00000000224763,0.561078428446726
1699.99999999955,15.7070425992763,1.00000000203728,0.545028551083368
1799.99999999946,15.3918405908488,1.00000000160393,0.49150762308392
1899.99999999937,14.90632275592,1.00000000256704,0.564882865396051
1999.99999999928,14.4496652293022,1.0000000016207,0.462790592065545
2099.99999999919,13.8982343029855,1.00000000205675,0.502581473841377
2199.99999999909,13.4072696870835,1.00000000241203,0.545475064435085
2299.999999999,12.9185645679347,1.00000000126057,0.394804000763535
2399.99999999891,12.4123722040882,1.00000000239079,0.524664801844537
2499.99999999882,11.9572203777223,1.00000000264694,0.552536353741197
2599.99999999873,11.5405702033176,1.00000000125476,0.39762740678245
2699.99999999864,11.1423828855585,1.00000000207697,0.484913016011956
2799.99999999855,10.7538133782715,1.00000000213574,0.527631682556036
2899.99999999846,10.3865749062785,1.00000000266075,0.560573480550326
2999.99999999837,10.0614685649791,1.00000000132983,0.441930976909592
3099.99999999828,9.80969869775218,1.00000000177489,0.420693520400409
3199.99999999819,9.55092352728587,1.00000000258664,0.52949041901126
3299.99999999809,9.30098237134902,1.00000000189815,0.521468457135296
3399.999999998,9.0536376704802,1.0000000024544,0.538146073380531
3499.99999999791,8.8018860813201,1.00000000257629,0.559726357568219
3599.99999999782,8.59406741049144,1.00000000131006,0.453327340560148
3699.99999999773,8.47731209088082,1.00000000168361,0.433428750802154
3799.99999999764,8.38047277157842,1.00000000244747,0.512035571926518
3899.99999999755,8.26345565018232,1.00000000202278,0.53255919159237
3999.99999999746,8.14280138555451,1.00000000217907,0.553540838588057
4099.99999999738,8.00888350525716,1.00000000218139,0.574720832581539
4199.99999999775,7.86977771793632,1.000000001998,0.555095887019423
4299.99999999811,7.71903309385802,1.00000000268338,0.565650786675828
4399.99999999848,7.5615152810591,1.00000000237343,0.566405151303118
4499.99999999884,7.44851894565217,1.00000000146209,0.476253211407621
4599.9999999992,7.4372309759999,1.00000000150283,0.440640325295119
4699.99999999957,7.47083306975131,1.00000000226683,0.489726035509933
4799.99999999993,7.48586791953182,1.00000000227478,0.528934331517213
4900.00000000029,7.47818529331208,1.00000000223286,0.563637240041031
5000.00000000066,7.45167955439392,1.00000000215663,0.576835628829157
5100.00000000102,7.4156489027285,1.00000000212252,0.583869454565639
5200.00000000139,7.3735921243547,1.00000000235474,0.58256680804127
5300.00000000175,7.31554069547,1.00000000244208,0.570387556508673
5400.00000000211,7.2420841864231,1.00000000230178,0.589987426243744
5500.00000000248,7.16600255316264,1.00000000199522,0.595667526781758
5600.00000000284,7.08382493960563,1.00000000224796,0.592082203583461
5700.00000000321,6.99101402596988,1.00000000271931,0.606106838147639
5800.00000000357,6.89172464024943,1.00000000265595,0.589563305031087
5900.00000000393,6.79174594681054,1.00000000218267,0.562702576210103
6000.0000000043,6.7328682317996,1.00000000146997,0.497681212562668
6100.00000000466,6.76682033910626,1.00000000138268,0.458731000473765
6200.00000000502,6.8783495765755,1.00000000198146,0.484492385723504
6300.00000000539,6.99336210489078,1.0000000025675,0.527540130029241
6400.00000000575,7.0879782748472,1.00000000216374,0.551752723606989
6500.00000000612,7.16417815123151,1.00000000230221,0.573357711540188
6600.00000000648,7.22284831438859,1.00000000224235,0.598014366934425
6700.00000000684,7.25733911647048,1.00000000241521,0.613382459546826
6800.00000000721,7.27410864304196,1.00000000215465,0.627854813299905
6900.00000000757,7.27234765871477,1.00000000235472,0.629955295147368
7000.00000000793,7.25380542389531,1.00000000245495,0.631310369207241
7100.0000000083,7.23042466404845,1.00000000208194,0.618534906824912
7200.00000000866,7.2122774107124,1.00000000205944,0.612342082399653
7300.00000000903,7.19766890688591,1.00000000236256,0.600237590103079
7400.00000000939,7.16657170472297,1.00000000238547,0.611198132850082
7500.00000000975,7.13384697337037,1.00000000222921,0.615786735669991
7600.00000001012,7.10700722694646,1.00000000221269,0.62864749175403
7700.00000001048,7.073513976779,1.00000000215861,0.634669674401094
7800.00000001084,7.0364364465617,1.00000000235135,0.629444294033665
7900.00000001121,6.99671087905533,1.00000000229946,0.606677352955709
8000.00000001157,6.95270481395846,1.000000002409,0.627005290355872
8100.00000001194,6.89760285487155,1.00000000223828,0.641570150812337
8200.0000000123,6.83608253003208,1.00000000242747,0.640155244225095
8300.00000001266,6.7732993618411,1.0000000022843,0.641612327965825
8400.00000001303,6.70919481941373,1.00000000234259,0.649030174210849
8500.00000001339,6.64428930043443,1.00000000263921,0.655660645135102
8600.00000001376,6.58106849098491,1.00000000276473,0.670269519783512
8700.00000001412,6.51876769645405,1.00000000268621,0.652848720046408
8800.00000001448,6.4518665311006,1.00000000255674,0.627243913846226
8900.00000001485,6.38576221405927,1.00000000213486,0.581967994250676
9000.00000001521,6.34953134158408,1.00000000155145,0.527418550780835
9100.00000001557,6.38104245602548,1.00000000148292,0.491831287866589
9200.00000001594,6.49725040693546,1.00000000188186,0.487461831992188
9300.0000000163,6.67202605006216,1.00000000201389,0.50444358672007
9400.00000001667,6.85753825594944,1.00000000230992,0.530547918539189
9500.00000001703,7.03249345954452,1.00000000266496,0.542584755292023
9600.00000001739,7.18857632013558,1.00000000253433,0.560196481232595
9700.00000001776,7.32853589157146,1.00000000251731,0.573053637833597
9800.00000001812,7.45063223514654,1.00000000246236,0.583049922579378
9900.00000001848,7.56056493332168,1.00000000266559,0.604220630858277
10000.0000000188,7.65162825840416,1.0000000026009,0.619965295449939
10100.0000000192,7.72725535817187,1.00000000260406,0.620926663534357
10200.0000000196,7.78638014508269,1.00000000249946,0.61366916566725
10300.0000000199,7.8298604214427,1.00000000266819,0.642706826319002
10400.0000000203,7.85690899575404,1.00000000265383,0.650865387112085
10500.0000000207,7.87493339304253,1.00000000263535,0.654169040245279
10600.000000021,7.89167577951241,1.00000000243588,0.64181818442936
10700.0000000214,7.9087119808369,1.00000000265868,0.647449042093467
10800.0000000218,7.91645681241667,1.00000000261238,0.653511574385718
10900.0000000221,7.92421400330397,1.00000000259333,0.659007034372663
11000.0000000225,7.92241165246374,1.00000000295069,0.660436112615612
11100.0000000229,7.91626014448662,1.00000000250572,0.658131784525691
11200.0000000232,7.90671729790343,1.00000000285678,0.657485741109273
11300.0000000236,7.89242993382118,1.00000000261303,0.65964900636182
11400.0000000239,7.87294274773276,1.00000000288807,0.671087638298902
11500.0000000243,7.85046326218979,1.00000000270199,0.661473916755572
11600.0000000247,7.82685642286127,1.00000000279792,0.66049951478354
11700.000000025,7.80490412899991,1.00000000278548,0.650725686848282
11800.0000000254,7.7876085491385,1.00000000296113,0.633462320184834
11900.0000000258,7.78105844299258,1.00000000273219,0.618388689464334
12000.0000000261,7.78871576242962,1.0000000026792,0.625154905709787
12100.0000000265,7.80576334773717,1.00000000262698,0.643531516739637
12200.0000000269,7.82141573859326,1.00000000266161,0.630786529871999
12300.0000000272,7.83221819237087,1.00000000307168,0.636954717623199
12400.0000000276,7.8381548956004,1.00000000231362,0.625186922923289
12500.0000000279,7.85101531586287,1.00000000285956,0.632056607951569
12600.0000000283,7.85993218341763,1.00000000288647,0.623029762943021
12700.0000000287,7.86896637170726,1.00000000271476,0.647824246280429
12800.000000029,7.8831824584417,1.00000000278529,0.655866189782282
12900.0000000294,7.89554053460892,1.0000000030793,0.664335097820857
13000.0000000298,7.8994166624731,1.00000000306158,0.653127021283361
13100.0000000301,7.90325010320063,1.00000000268723,0.655207900514567
13200.0000000305,7.91288432442021,1.00000000285485,0.657290678494596
13300.0000000309,7.9282580929467,1.00000000261526,0.647103581849623
13400.0000000312,7.95070021127541,1.00000000294869,0.653509088151178
13500.0000000316,7.96721587697636,1.00000000308523,0.655895784077104
13600.0000000319,7.97831101082181,1.0000000029297,0.652906308527435
13700.0000000323,7.989868448424,1.00000000270934,0.669969685213874
13800.0000000327,8.00241474986733,1.00000000281835,0.668414629882289
13900.000000033,8.01238828842672,1.0000000030316,0.661346892410955
14000.0000000334,8.02525302515171,1.00000000286379,0.675054815822691
14100.0000000338,8.03180029440993,1.00000000316948,0.677187418932219
14200.0000000341,8.03943909683424,1.00000000288847,0.660790832811645
14300.0000000345,8.04919442987279,1.00000000305049,0.663211229482805
14400.0000000349,8.0555114860007,1.00000000292084,0.670375954755266
14500.0000000352,8.05998844217557,1.00000000288218,0.673720116945586
14600.0000000356,8.06592674739929,1.00000000295058,0.667332046450605
14700.0000000359,8.06824470084963,1.00000000321837,0.681911646152367
14800.0000000363,8.06524291370642,1.00000000289463,0.669913796088829
14900.0000000367,8.06463728592965,1.00000000288545,0.652826421590096
15000.000000037,8.0613844387116,1.00000000309664,0.671589421794131
15100.0000000374,8.06226561544091,1.00000000313623,0.660972708183663
15200.0000000378,8.06398499203517,1.00000000300034,0.671981555167703
15300.0000000381,8.05719103928387,1.00000000337475,0.684678725879447
15400.0000000385,8.04787775535389,1.00000000300858,0.664185731607748
15500.0000000389,8.04110833767479,1.00000000290911,0.661236915439022
15600.0000000392,8.0325951610204,1.00000000300713,0.672574379437974
15700.0000000396,8.02102954566951,1.00000000321988,0.680615773661037
15800.0000000399,8.00249388220489,1.00000000317575,0.6804370812528
15900.0000000403,7.98091562768251,1.00000000287361,0.666921983618887
16000.0000000407,7.95930439891295,1.00000000336416,0.678422676188308
16100.000000041,7.9322899586414,1.00000000314132,0.672900494294897
16200.0000000414,7.90156549897653,1.00000000304313,0.679279213690833
16300.0000000418,7.86769498283139,1.00000000307544,0.67082628044724
16400.0000000418,7.83159963689,1.00000000307181,0.684182242945824
16500.0000000404,7.79489879268931,1.00000000324535,0.672868272602467
16600.0000000389,7.7575811335258,1.00000000304838,0.682680652532232
16700.0000000375,7.7198416333111,1.00000000320315,0.67198279514652
16800.000000036,7.68159982791506,1.00000000303063,0.666662910894315
16900.0000000346,7.64405757361507,1.00000000324859,0.663639620819217
17000.0000000331,7.60710271283249,1.00000000374553,0.660628230170726
17100.0000000317,7.57208504385259,1.00000000338325,0.678258974813737
17200.0000000302,7.53967976228752,1.00000000313535,0.678935893422215
17300.0000000287,7.50869413356507,1.00000000364481,0.689608818298166
17400.0000000273,7.48078600149512,1.00000000377378,0.6875361920051
17500.0000000258,7.44872420406203,1.00000000359883,0.687642581111361
17600.0000000244,7.41599528743865,1.00000000348125,0.667346318142829
17700.0000000229,7.37711279840344,1.00000000343305,0.635647414251275
17800.0000000215,7.33828900960505,1.00000000307588,0.613209129090994
17900.00000002,7.31350331100827,1.0000000027183,0.5902566816293
18000.0000000186,7.31474453680638,1.00000000257729,0.574456573549581
18100.0000000171,7.36809546083012,1.00000000249839,0.553053124747868
18200.0000000156,7.48530818832335,1.00000000231027,0.533975260023804
18300.0000000142,7.68887119545906,1.0000000024724,0.527651630051817
18400.0000000127,7.96720576147383,1.00000000263116,0.52969254175803
18500.0000000113,8.33018736318545,1.00000000299413,0.536842352266054
18600.0000000098,8.72576590315079,1.00000000319916,0.540157158673997
18700.0000000084,9.16870691906295,1.00000000328291,0.552995768642992
18800.0000000069,9.59436086390159,1.00000000342281,0.558217192752368
18900.0000000055,10.0411232377701,1.00000000367974,0.565499242570519
19000.000000004,10.4576972196159,1.00000000339784,0.574581327957478
19100.0000000026,10.8754258573301,1.00000000345211,0.58174531741189
19200.0000000011,11.2738675080466,1.00000000355515,0.593039236503446
19299.9999999996,11.6600457595167,1.00000000336737,0.589090570849793
19399.9999999982,12.040821821756,1.00000000348362,0.590687950471346
19499.9999999967,12.4072625813593,1.00000000349044,0.603430095512119
19599.9999999953,12.775707641258,1.00000000345891,0.6061786407904
19699.9999999938,13.1214844213936,1.00000000352141,0.626318124993149
19799.9999999924,13.4663858770344,1.00000000368415,0.638444734465242
19899.9999999909,13.7968378775584,1.00000000368285,0.64341977801098
19999.9999999895,14.1086311807299,1.00000000370905,0.650707091320169
20099.999999988,14.4109085449903,1.00000000339006,0.657890869402882
20199.9999999865,14.6867357879843,1.00000000379819,0.663072175101852
20299.9999999851,14.9570666668525,1.00000000367881,0.668504429965447
20399.9999999836,15.1978999821494,1.00000000376469,0.659353347606798
20499.9999999822,15.4202839336665,1.00000000364307,0.670109613124698
20599.9999999807,15.6274351404972,1.00000000333196,0.670926519822945
20699.9999999793,15.8276639031999,1.00000000341921,0.683882751025523
20799.9999999778,16.0180253861317,1.00000000362427,0.690862581249074
20899.9999999764,16.1875556974852,1.00000000372119,0.676969800305547
20999.9999999749,16.3519535670261,1.00000000340514,0.683502595531983
21099.9999999734,16.4982956385824,1.00000000371138,0.682174073857704
21199.999999972,16.6435505152408,1.00000000349178,0.685267098344912
21299.9999999705,16.7870946740115,1.00000000355635,0.694310519742389
21399.9999999691,16.923040789659,1.00000000393134,0.699885479957807
21499.9999999676,17.0464530580798,1.00000000365838,0.701359064228445
21599.9999999662,17.1600409011589,1.00000000371988,0.704294498339401
21699.9999999647,17.2787891371702,1.00000000342818,0.70138825532847
21799.9999999633,17.4021671485247,1.00000000353338,0.69497900211737
21899.9999999618,17.5320704974463,1.00000000362061,0.683406744816966
21999.9999999603,17.6535880771388,1.00000000398406,0.676989251874991
22099.9999999589,17.7637442478142,1.00000000349495,0.696971744295768
22199.9999999574,17.8680021098663,1.00000000344711,0.696037418331702
22299.999999956,17.9672547695645,1.00000000330638,0.680226279740329
22399.9999999545,18.0784246609037,1.00000000312423,0.682161479591853
22499.9999999531,18.194607030653,1.0000000036424,0.69403775670183
22599.9999999516,18.2984280538311,1.00000000386417,0.681396659741639
22699.9999999502,18.384986136373,1.00000000407884,0.678361477162629
22799.9999999487,18.4689290979191,1.00000000356868,0.696085383568922
22899.9999999473,18.5585955095816,1.00000000332434,0.687557758302894
22999.9999999458,18.6493043123927,1.00000000371218,0.688888208936931
23099.9999999443,18.7378554390314,1.00000000371399,0.687288385124284
23199.9999999429,18.8172131766142,1.00000000383439,0.687133887610953
23299.9999999414,18.894032434188,1.00000000406192,0.689544746185
23399.99999994,18.9775421492579,1.00000000356757,0.670071165312804
23499.9999999385,19.0726898794797,1.00000000369474,0.669118719550646
23599.9999999371,19.1615220557438,1.00000000387342,0.686113015877477
23699.9999999356,19.2429090656118,1.00000000373934,0.67787423625237
23799.9999999342,19.3334114649866,1.00000000392638,0.666061481393951
23899.9999999327,19.4231884336115,1.00000000376079,0.682998047446716
23999.9999999312,19.5104379619177,1.0000000036151,0.690414386435806
24099.9999999298,19.5917847350421,1.00000000363966,0.688325442747006
24199.9999999283,19.6747892907271,1.00000000340837,0.679112326606359
24299.9999999269,19.7659362508035,1.00000000397471,0.689543245150936
24399.9999999254,19.8478343942536,1.00000000396138,0.683711414970727
24499.999999924,19.9300872195296,1.00000000358452,0.68505142084403
24599.9999999225,20.0127882681542,1.00000000344547,0.680866159397237
24699.9999999211,20.098318975979,1.00000000337868,0.673825749399837
24799.9999999196,20.1884149389022,1.00000000382134,0.675132022884274
24899.9999999181,20.2741130225826,1.00000000394254,0.694018885984404
24999.9999999167,20.3519805448612,1.00000000362043,0.694845621827214
25099.9999999152,20.4356116794964,1.00000000376324,0.680015835042855
25199.9999999138,20.5239307096495,1.00000000418306,0.690437532997768
25299.9999999123,20.607442318897,1.00000000399307,0.693747161672333
25399.9999999109,20.695791242705,1.00000000349174,0.678353007568361
25499.9999999094,20.7904374647228,1.0000000035374,0.684147337546099
25599.999999908,20.8835679882831,1.00000000369241,0.683786286538349
25699.9999999065,20.9709501347207,1.00000000413762,0.676204472206217
25799.9999999051,21.0481250184559,1.00000000365313,0.661752291058313
25899.9999999036,21.1172695597195,1.00000000391842,0.681860577398967
25999.9999999021,21.1800727728528,1.00000000381861,0.673490405373765
26099.9999999007,21.2439699204534,1.00000000392273,0.677845745135941
26199.9999998992,21.3091652991764,1.00000000421607,0.680062485131592
26299.9999998978,21.3768125343642,1.00000000377457,0.687308915162628
26399.9999998963,21.4524757616862,1.00000000345128,0.679776980886504
26499.9999998949,21.5384848955052,1.00000000367863,0.676816988333568
26599.9999998934,21.63649526401,1.0000000035342,0.682209476741709
26699.999999892,21.7483087385836,1.00000000335017,0.682722533787853
26799.9999998905,21.8742459573303,1.00000000378196,0.686493866618097
26899.999999889,22.0028277613418,1.00000000380136,0.686824434171526
26999.9999998876,22.1266901473044,1.00000000388582,0.688202634104454
27099.9999998861,22.242952206697,1.00000000414963,0.694275924497936
27199.9999998847,22.3572078883825,1.00000000409381,0.68990106323776
27299.9999998832,22.4645679238068,1.00000000407731,0.700094687335083
27399.9999998818,22.5685878945169,1.00000000379646,0.679871354358675
27499.9999998803,22.6777229667763,1.00000000426029,0.681638395928474
27599.9999998789,22.784350554482,1.00000000415445,0.684367065407979
27699.9999998774,22.8974596356848,1.00000000395813,0.675468784422657
27799.9999998759,23.0185152548069,1.00000000400461,0.686807672115669
27899.9999998745,23.1486385058942,1.00000000410055,0.684636064416236
27999.999999873,23.2800042481953,1.00000000396834,0.687202636742881
28099.9999998716,23.4103636219194,1.00000000373011,0.68448590687213
28199.9999998701,23.536870304272,1.00000000456739,0.694568258387778
28299.9999998687,23.6560690005396,1.00000000435532,0.698010279685482
28399.9999998672,23.7730951301714,1.00000000385391,0.688550044259547
28499.9999998658,23.8879038920225,1.00000000369422,0.679373077904713
28599.9999998643,24.0023733175754,1.00000000406879,0.678031864668609
28699.9999998629,24.1186297625524,1.00000000427697,0.674056392508479
28799.9999998614,24.2270569609981,1.00000000423632,0.706095747918421
28899.9999998599,24.3347069374278,1.00000000381433,0.688564204257216
28999.9999998585,24.4504233129879,1.00000000365646,0.692038641144048
29099.999999857,24.5643791469913,1.00000000440235,0.689229819619221
