Time,AGPnorm,Energy,Entropy
0,0,1,-9.83051508358198e-18
99.9999999999986,1.66357525975961e-05,1.00000000000111,0.000727772126499146
199.999999999993,0.00146453529215388,0.9999999999988,0.00116510962007912
300,0.00356960948314381,1.00000000000127,0.00209001197308836
400.000000000022,0.00491166757103864,0.999999999999814,0.00355505509198614
500.000000000045,0.00614918511419429,0.999999999999539,0.00482196313366621
600.000000000068,0.00881363004803801,1.00000000000141,0.00670217890409152
700.000000000091,0.010768285850865,0.999999999998781,0.00861691372759236
800.000000000113,0.0137113144430914,1.00000000000098,0.0106838351501484
900.000000000136,0.0174599620900222,1.0000000000003,0.0130876498108417
1000.00000000016,0.0206532885531265,0.999999999999111,0.0154517422584718
1100.0000000001,0.0245081245017791,1.00000000000155,0.0181237152167939
1200,0.0284735590541271,0.999999999998956,0.0209234604622048
1299.99999999991,0.0329530266569709,1.00000000000059,0.0238264720646725
1399.99999999982,0.0382040409848545,1.0000000000008,0.0269379786713636
1499.99999999973,0.0430712228194741,0.99999999999876,0.0301235087152518
1599.99999999964,0.0481924330733767,1.00000000000151,0.0334875854932937
1699.99999999955,0.053914350696982,0.999999999999318,0.0369903661376473
1799.99999999946,0.0598716579924492,1.00000000000014,0.0406354528612567
1899.99999999937,0.066119509989017,1.00000000000121,0.0444125334755145
1999.99999999928,0.0721472752570136,0.99999999999855,0.048322063098632
2099.99999999919,0.0784305761550977,1.00000000000131,0.0523873109237321
2199.99999999909,0.0856319627476724,0.999999999999833,0.0565702296512
2299.999999999,0.0928550962269355,0.999999999999648,0.0609690040466695
2399.99999999891,0.0996996863526087,1.00000000000145,0.0654581315148474
2499.99999999882,0.106567967997835,0.999999999998548,0.0701078609681419
2599.99999999873,0.113799516674195,1.00000000000105,0.0749668797140176
2699.99999999864,0.12197010164458,1.00000000000041,0.0799413807020692
2799.99999999855,0.129950688389423,0.999999999999153,0.0852018150940107
2899.99999999846,0.137172689488728,1.00000000000148,0.0905526006887706
2999.99999999837,0.144759348288545,0.999999999998807,0.0961046898108604
3099.99999999828,0.152754728283047,1.00000000000076,0.101977335806415
3199.99999999819,0.161278608665476,1.00000000000093,0.108017141397951
3299.99999999809,0.169379992374405,0.999999999998755,0.114408180247449
3399.999999998,0.176881992161297,1.0000000000013,0.121003703532088
3499.99999999791,0.185053619184201,0.999999999999305,0.127901036660173
3599.99999999782,0.193616393270177,1.00000000000045,0.135333278029006
3699.99999999773,0.201982276597723,1.00000000000149,0.143074779276569
3799.99999999764,0.209760530705436,0.999999999998954,0.151351888795323
3899.99999999755,0.21749488857546,1.00000000000199,0.16014990490134
3999.99999999746,0.225914956193624,1.00000000000182,0.169558608685986
4099.99999999738,0.234492442528717,1.00000000000373,0.179825882617171
4199.99999999775,0.242882267137763,1.00000000000839,0.190607596927995
4299.99999999811,0.249851907980519,1.00000000001019,0.202009229203896
4399.99999999848,0.258974685475487,1.00000000002009,0.213963465729128
4499.99999999884,0.268842609060108,1.00000000002852,0.226286915022022
4599.9999999992,0.278693106798535,1.00000000003849,0.238982351750424
4699.99999999957,0.294081660715692,1.0000000000549,0.251587116019474
4799.99999999993,0.30903535698061,1.00000000006623,0.264041590843188
4900.00000000029,0.335187218042833,1.00000000008554,0.276532324477094
5000.00000000066,0.372781089336305,1.00000000010219,0.288713854829179
5100.00000000102,0.420111776838997,1.0000000001255,0.300751467120512
5200.00000000139,0.495462854562205,1.00000000014611,0.31241219676238
5300.00000000175,0.592781872077574,1.00000000016302,0.32372236095896
5400.00000000211,0.728441956208235,1.00000000018586,0.335034245190147
5500.00000000248,0.913370599997541,1.00000000021013,0.34575430308726
5600.00000000284,1.14647351818637,1.00000000023747,0.356293640528957
5700.00000000321,1.45233703133354,1.00000000024354,0.366530603590344
5800.00000000357,1.83473108680366,1.00000000027598,0.376262133445932
5900.00000000393,2.30655308054233,1.00000000029744,0.386066984857748
6000.0000000043,2.88660813813941,1.00000000030684,0.395241927861553
6100.00000000466,3.5803128650369,1.00000000033165,0.404070670262003
6200.00000000502,4.40303583111686,1.00000000035902,0.412734502331191
6300.00000000539,5.37131361538178,1.00000000035612,0.420940161061538
6400.00000000575,6.49324475619078,1.00000000038341,0.429071157696244
6500.00000000612,7.78063113209161,1.00000000039146,0.436592773293146
6600.00000000648,9.25122165616981,1.0000000004019,0.443884706558534
6700.00000000684,10.9024283105485,1.00000000042641,0.451145932408856
6800.00000000721,12.7546185303159,1.00000000044125,0.457689814977948
6900.00000000757,14.819259702585,1.00000000042967,0.464352029747438
7000.00000000793,17.0857654369435,1.0000000004553,0.470433148058904
7100.0000000083,19.5844513493673,1.00000000046559,0.476215143990944
7200.00000000866,22.2997902189338,1.00000000046177,0.482209618299821
7300.00000000903,25.2402529742014,1.00000000049801,0.487364255241381
7400.00000000939,28.43018648739,1.00000000049812,0.492410416799461
7500.00000000975,31.8320097924851,1.00000000048628,0.497547125974724
7600.00000001012,35.4808065416288,1.00000000049619,0.501948852570011
7700.00000001048,39.3625301399182,1.0000000005171,0.506448560593362
7800.00000001084,43.4602481434018,1.00000000049291,0.510674393161858
7900.00000001121,47.8137081105252,1.00000000050633,0.514406466244536
8000.00000001157,52.3673397961142,1.00000000053264,0.518433515226594
8100.00000001194,57.1483601065394,1.00000000052274,0.521780545012487
8200.0000000123,62.1575545576596,1.00000000053499,0.525023241382949
8300.00000001266,67.3484527273468,1.00000000052085,0.52841531961805
8400.00000001303,72.771206426381,1.00000000053429,0.531119177996334
8500.00000001339,78.3681728860686,1.00000000053884,0.534192304646964
8600.00000001376,84.146496129662,1.00000000051709,0.536831117453092
8700.00000001412,90.1286730412453,1.00000000053758,0.538971900324277
8800.00000001448,96.2453692635857,1.00000000052522,0.541654732621981
8900.00000001485,102.546021643984,1.00000000052487,0.543623533986564
9000.00000001521,108.986967835056,1.00000000055577,0.545645376153237
9100.00000001557,115.549444517491,1.00000000051687,0.547714348364284
9200.00000001594,122.274867477858,1.00000000050959,0.549279771803783
9300.0000000163,129.084523311662,1.00000000054202,0.551131298148371
9400.00000001667,136.01593293934,1.00000000050833,0.552557033540915
9500.00000001703,143.049174467156,1.00000000052504,0.553923653005983
9600.00000001739,150.140939724818,1.00000000052895,0.555377787251381
9700.00000001776,157.343602015551,1.00000000049573,0.556419251073229
9800.00000001812,164.58355656762,1.00000000050185,0.557815802325571
9900.00000001848,171.879550946597,1.00000000052112,0.558690198180265
10000.0000000188,179.237073571773,1.00000000052546,0.559289342232246
10100.0000000192,186.594982061384,1.00000000048785,0.560493606145217
10200.0000000196,194.007282221441,1.0000000004986,0.561077436786457
10300.0000000199,201.415902767787,1.00000000048848,0.561813975246932
10400.0000000203,208.819298299016,1.00000000049056,0.562666543863411
10500.0000000207,216.241732515449,1.00000000048849,0.562847896855138
10600.000000021,223.617283473509,1.0000000004774,0.563662094121853
10700.0000000214,230.991479364544,1.00000000047885,0.564049732002935
10800.0000000218,238.3267105714,1.00000000047292,0.564225778912902
10900.0000000221,245.604233292134,1.00000000045456,0.565035613239409
11000.0000000225,252.861521383864,1.00000000046962,0.564754432089764
11100.0000000229,260.034861262817,1.0000000004596,0.565170744750463
11200.0000000232,267.157195309438,1.00000000045525,0.565543087487494
11300.0000000236,274.212078111915,1.00000000046266,0.565394618708968
11400.0000000239,281.167837654251,1.0000000004567,0.565663793541684
11500.0000000243,288.066141973657,1.0000000004583,0.565442903935748
11600.0000000247,294.854276510921,1.00000000045885,0.565675609854653
11700.000000025,301.550727401871,1.00000000045036,0.565807187849206
11800.0000000254,308.154516389541,1.00000000042856,0.565454860744796
11900.0000000258,314.630177486789,1.00000000043233,0.565760055190231
12000.0000000261,321.017207029558,1.00000000042723,0.565248898333211
12100.0000000265,327.275617812787,1.00000000042499,0.56533497346053
12200.0000000269,333.411041922865,1.00000000042234,0.565267908708749
12300.0000000272,339.436442952621,1.00000000041672,0.564592057306383
12400.0000000276,345.314420391355,1.00000000041545,0.564901493345007
12500.0000000279,351.079901628128,1.00000000039763,0.564497901871361
12600.0000000283,356.705774011049,1.00000000039294,0.564307453158806
12700.0000000287,362.187001653228,1.00000000040409,0.564013202632779
12800.000000029,367.545793060214,1.00000000038763,0.563563831082483
12900.0000000294,372.747011853647,1.00000000040249,0.563465581636185
13000.0000000298,377.818693674607,1.00000000038629,0.563056046895004
13100.0000000301,382.744496110364,1.0000000003946,0.562727332391601
13200.0000000305,387.515300557077,1.00000000039048,0.562612542588666
13300.0000000309,392.155410073535,1.00000000038449,0.561832066626927
13400.0000000312,396.634350404639,1.00000000037912,0.561794635360544
13500.0000000316,400.972449269965,1.0000000003753,0.561733365760809
13600.0000000319,405.164945166075,1.00000000036107,0.56094102424708
13700.0000000323,409.197061537973,1.00000000036255,0.560810843992162
13800.0000000327,413.094944714639,1.00000000037883,0.560286422949331
13900.000000033,416.834851381455,1.0000000003615,0.560044343002338
14000.0000000334,420.428411995975,1.00000000035301,0.559825472736704
14100.0000000338,423.879644616536,1.00000000036115,0.559330862032854
14200.0000000341,427.173069624414,1.00000000034783,0.558905797308681
14300.0000000345,430.332211497579,1.00000000034531,0.558258387170852
14400.0000000349,433.339363103982,1.00000000034779,0.558111564003917
14500.0000000352,436.202353773994,1.00000000033197,0.55824581641422
14600.0000000356,438.927887464532,1.0000000003344,0.557854759189991
14700.0000000359,441.502616250117,1.00000000034358,0.557676806297522
14800.0000000363,443.946941170128,1.0000000003327,0.556186745265679
14900.0000000367,446.247576136201,1.00000000032551,0.555785790862268
15000.000000037,448.407094116316,1.00000000031942,0.556408512283119
15100.0000000374,450.439138766105,1.00000000031577,0.55762336192028
15200.0000000378,452.330838954685,1.00000000031247,0.557395256990827
15300.0000000381,454.098330446642,1.00000000030737,0.55438529913505
15400.0000000385,455.733660423879,1.00000000031118,0.553530493578369
15500.0000000389,457.234002040187,1.00000000029372,0.553204726069436
15600.0000000392,458.617048862954,1.00000000032263,0.556839867296428
15700.0000000396,459.870835336986,1.00000000029857,0.557667972523819
15800.0000000399,461.016307795756,1.00000000031332,0.557508631342522
15900.0000000403,462.043797744168,1.00000000029191,0.551989901161556
16000.0000000407,462.949607498309,1.0000000002915,0.549328106973629
16100.000000041,463.738981348954,1.0000000002768,0.549610667251573
16200.0000000414,464.410361492386,1.00000000029195,0.556489239375093
16300.0000000418,464.983162507421,1.00000000029761,0.560630395064024
16400.0000000418,465.46533380031,1.00000000031041,0.559082736835092
16500.0000000404,465.84692226208,1.00000000028754,0.550838059933629
16600.0000000389,466.127364206502,1.00000000026577,0.544079177708693
16700.0000000375,466.29323433261,1.00000000025475,0.543733983776774
16800.000000036,466.35729950335,1.00000000027405,0.552669220691521
16900.0000000346,466.339039134215,1.00000000030401,0.561369772823699
17000.0000000331,466.247990337102,1.00000000031737,0.563559112890426
17100.0000000317,466.096109473969,1.00000000029458,0.555410612630867
17200.0000000302,465.861197888417,1.00000000026496,0.542663472614722
17300.0000000287,465.531324926467,1.00000000023479,0.534734762947861
17400.0000000273,465.104052731606,1.00000000024232,0.538329931579252
17500.0000000258,464.592338462184,1.00000000027711,0.553548223511522
17600.0000000244,464.030278085977,1.00000000031781,0.56579437846805
17700.0000000229,463.430532338808,1.00000000032766,0.566434268458411
17800.0000000215,462.790194624862,1.00000000030158,0.553917555758185
17900.00000002,462.091831613066,1.00000000026113,0.535651688514727
18000.0000000186,461.308546204547,1.0000000002114,0.52281111251233
18100.0000000171,460.44138997759,1.00000000021352,0.526836523142401
18200.0000000156,459.505087751327,1.00000000026946,0.546896493464747
18300.0000000142,458.532334410101,1.00000000032738,0.565984554286941
18400.0000000127,457.549707219799,1.00000000034923,0.570646929430127
18500.0000000113,456.553326959985,1.00000000033269,0.559762747237282
18600.0000000098,455.529326486366,1.00000000028509,0.537757143627252
18700.0000000084,454.446489538484,1.00000000021547,0.514359851165988
18800.0000000069,453.287573387815,1.00000000019383,0.506825881425069
18900.0000000055,452.062750433437,1.000000000219,0.522178010650869
19000.000000004,450.795394393124,1.00000000029963,0.551124563050566
19100.0000000026,449.522651184827,1.00000000036873,0.570670641510658
19200.0000000011,448.260848527582,1.00000000037635,0.572565726341623
19299.9999999996,447.004349299734,1.00000000034919,0.55744157051566
19399.9999999982,445.734272409073,1.00000000027664,0.529483788405651
19499.9999999967,444.417380937457,1.00000000020962,0.50180623228972
19599.9999999953,443.040311702823,1.00000000017314,0.489701682499387
19699.9999999938,441.604417519802,1.00000000020618,0.504774910417746
19799.9999999924,440.134563662606,1.00000000027885,0.539798947629886
19899.9999999909,438.66612104508,1.00000000037624,0.567675146739319
19999.9999999895,437.218040982577,1.00000000040753,0.57640065362663
20099.999999988,435.794125055954,1.00000000038079,0.567242053755554
20199.9999999865,434.37993895088,1.00000000031547,0.542873511205045
20299.9999999851,432.947734103415,1.00000000025411,0.509350607283742
20399.9999999836,431.477483710996,1.00000000018039,0.481254208874108
20499.9999999822,429.953934396251,1.00000000016166,0.47565820122473
20599.9999999807,428.38972403715,1.0000000002125,0.5001270645806
20699.9999999793,426.80936122683,1.00000000029808,0.539417155941211
20799.9999999778,425.238373822323,1.00000000039574,0.567611576304074
20899.9999999764,423.695795525103,1.00000000041243,0.576692909600053
20999.9999999749,422.183210474935,1.00000000040302,0.569746140368313
21099.9999999734,420.689664068871,1.00000000035131,0.547918778763303
21199.999999972,419.196088560498,1.0000000002732,0.514315943212241
21299.9999999705,417.678264043017,1.00000000019502,0.480478704915701
21399.9999999691,416.126454603424,1.00000000016364,0.464909558553351
21499.9999999676,414.538383752154,1.00000000018785,0.474494988235413
21599.9999999662,412.929538489247,1.00000000025025,0.507653780737853
21699.9999999647,411.321731911086,1.00000000033422,0.544929558210531
21799.9999999633,409.731276462275,1.00000000040048,0.568714031935294
21899.9999999618,408.170826212664,1.00000000041801,0.574912020565306
21999.9999999603,406.640076177994,1.0000000004094,0.565377418206898
22099.9999999589,405.129191327449,1.00000000036792,0.54455782881241
22199.9999999574,403.624666362107,1.00000000028932,0.513335622301107
22299.999999956,402.107915503473,1.00000000022362,0.48125330435124
22399.9999999545,400.571145554977,1.00000000017915,0.462064633167809
22499.9999999531,399.010600564039,1.00000000018185,0.463063963673686
22599.9999999516,397.432926458303,1.00000000021543,0.484306523431687
22699.9999999502,395.852239034074,1.00000000028447,0.516859984739421
22799.9999999487,394.280224903349,1.00000000036588,0.547543267119851
22899.9999999473,392.728732342312,1.00000000040899,0.564996740893241
22999.9999999458,391.20321375861,1.00000000042813,0.565737951058233
23099.9999999443,389.701364227672,1.00000000040303,0.556128567381184
23199.9999999429,388.218269822334,1.00000000036173,0.536954884744656
23299.9999999414,386.742817670869,1.000000000309,0.512237246211647
23399.99999994,385.265420702647,1.00000000023557,0.485636401603654
23499.9999999385,383.779582378661,1.00000000020305,0.467136344393994
23599.9999999371,382.281820724971,1.00000000019953,0.461718543669685
23699.9999999356,380.776434150128,1.00000000020912,0.471050029996702
23799.9999999342,379.266798121878,1.00000000025325,0.491366648348404
23899.9999999327,377.761511403568,1.00000000029752,0.517638457294923
23999.9999999312,376.267903218013,1.00000000034749,0.538778868606351
24099.9999999298,374.790624649314,1.00000000039758,0.552884445613311
24199.9999999283,373.332927309042,1.00000000039045,0.552577570989632
24299.9999999269,371.893726240759,1.00000000038592,0.545038729593298
24399.9999999254,370.469084622258,1.00000000034771,0.530378606379616
24499.999999924,369.05485111599,1.00000000031628,0.514696403015453
24599.9999999225,367.645122035327,1.00000000027072,0.496969880175859
24699.9999999211,366.236779041681,1.00000000024516,0.481349341477555
24799.9999999196,364.827389011181,1.00000000022199,0.472273751321363
24899.9999999181,363.417214141404,1.0000000002278,0.469232093462692
24999.9999999167,362.008226330628,1.00000000023316,0.476522435075221
25099.9999999152,360.601773747183,1.00000000025809,0.489357292779814
25199.9999999138,359.201932129445,1.00000000029499,0.505903822284196
25299.9999999123,357.811447315173,1.0000000003279,0.522217869489602
25399.9999999109,356.432543077176,1.00000000036406,0.533137018252883
25499.9999999094,355.067169574864,1.00000000038364,0.535805236215331
25599.999999908,353.714973001861,1.00000000037524,0.533721090643589
25699.9999999065,352.374795537038,1.00000000034758,0.527040887338092
25799.9999999051,351.045383619596,1.00000000033201,0.518742304943136
25899.9999999036,349.724164638518,1.00000000029607,0.509866658828441
25999.9999999021,348.410264485819,1.00000000029087,0.502803050038897
26099.9999999007,347.102145316763,1.00000000026978,0.49446466036517
26199.9999998992,345.799900781756,1.00000000025126,0.486827976980338
26299.9999998978,344.503429241349,1.00000000024532,0.482343704486834
26399.9999998963,343.212766209273,1.00000000024194,0.479803865559694
26499.9999998949,341.928919101774,1.00000000025364,0.483591153531744
26599.9999998934,340.651776643101,1.00000000027334,0.490273697212152
26699.999999892,339.382742191288,1.00000000029071,0.4995413941148
26799.9999998905,338.122621235955,1.00000000030973,0.50833043681408
26899.999999889,336.871693484021,1.00000000033929,0.516832608705564
26999.9999998876,335.630427231561,1.00000000034828,0.520113881520924
27099.9999998861,334.39880037066,1.00000000035228,0.522295142440137
27199.9999998847,333.176120243445,1.00000000032704,0.522337652821568
27299.9999998832,331.962560278148,1.00000000031095,0.51846641289837
27399.9999998818,330.757279944048,1.00000000030969,0.513799996800442
27499.9999998803,329.560409388952,1.00000000028856,0.509011471834098
27599.9999998789,328.371726085503,1.00000000028104,0.50908133699216
27699.9999998774,327.191406431541,1.00000000027319,0.509162672887844
27799.9999998759,326.019872022384,1.00000000026977,0.505113567697598
27899.9999998745,324.857089760291,1.00000000026914,0.498903751223046
27999.999999873,323.703860120774,1.00000000026037,0.492457571914299
28099.9999998716,322.559505742196,1.00000000024071,0.486814994548333
28199.9999998701,321.424685219003,1.00000000023887,0.482399482414861
28299.9999998687,320.299573033995,1.00000000024417,0.482607067806804
28399.9999998672,319.184012597775,1.00000000027306,0.487341180808811
28499.9999998658,318.077755539048,1.00000000029048,0.495786458868627
28599.9999998643,316.980259576457,1.00000000031798,0.503690870081037
28699.9999998629,315.890243646667,1.00000000034135,0.512995356514838
28799.9999998614,314.806916961055,1.00000000035607,0.517770211973143
28899.9999998599,313.730143759589,1.0000000003423,0.519258407192019
