Time,AGPnorm,Energy,Entropy
0,0,1,-6.70717424236248e-18
99.9999999999986,3.44409970405997e-05,0.999999999999097,0.00141347475781638
199.999999999993,0.00307599440205288,1.00000000000065,0.00225395578095735
300,0.00758004799947897,0.999999999999266,0.00393146673142243
400.000000000022,0.010565669703939,0.999999999999872,0.0067139891692675
500.000000000045,0.0128677511402776,1.00000000000021,0.00894687852039264
600.000000000068,0.0182425023984858,0.999999999999066,0.0124373286302656
700.000000000091,0.022379994530075,1.00000000000045,0.0159201833925441
800.000000000113,0.0287279240090089,0.999999999999628,0.01952214576113
900.000000000136,0.0360565249349482,0.999999999999594,0.0240203471581382
1000.00000000016,0.0416970171357609,1.00000000000024,0.0281687586802199
1100.0000000001,0.0495384793439642,0.999999999999206,0.0330065755766628
1200,0.057944383343835,1.00000000000024,0.0381431591980881
1299.99999999991,0.0667606884898119,0.999999999999914,0.0432429054489048
1399.99999999982,0.0761989289690183,0.999999999999398,0.0490979859415226
1499.99999999973,0.084752793989574,1.00000000000014,0.0548319360397932
1599.99999999964,0.0948165913685219,0.999999999999484,0.0610043126850289
1699.99999999955,0.105972298869765,1.00000000000004,0.0677123944968019
1799.99999999946,0.116441835732315,1.00000000000003,0.0743938859522451
1899.99999999937,0.127034096208055,0.99999999999933,0.0817478130134274
1999.99999999928,0.137692319226303,1.00000000000003,0.0892749290273732
2099.99999999919,0.149201121471475,0.999999999999806,0.0972188342197173
2199.99999999909,0.16150519621133,0.999999999999857,0.105953101867454
2299.999999999,0.172705075289944,0.999999999999991,0.114828676387184
2399.99999999891,0.183791197975444,0.999999999999437,0.12452682971781
2499.99999999882,0.19560342389392,1.00000000000006,0.134937817619209
2599.99999999873,0.20769278045252,1.00000000000042,0.146117997729766
2699.99999999864,0.219727780722035,1.00000000000099,0.158771950118131
2799.99999999855,0.230664499583385,1.00000000000403,0.172350936098124
2899.99999999846,0.242397842206981,1.00000000001022,0.187497283941788
2999.99999999837,0.25318661009878,1.00000000002392,0.204240406732545
3099.99999999828,0.266219744603579,1.0000000000469,0.221697537671679
3199.99999999819,0.280204988004931,1.00000000007753,0.240121071856577
3299.99999999809,0.290611282313958,1.0000000001176,0.258258732713139
3399.999999998,0.31813880362029,1.00000000016585,0.27632664623277
3499.99999999791,0.34472834704322,1.0000000002341,0.29434751181517
3599.99999999782,0.392433495694197,1.00000000027144,0.311638661939127
3699.99999999773,0.475351149063498,1.00000000034413,0.328578169709167
3799.99999999764,0.574696805401904,1.0000000004034,0.344968148990965
3899.99999999755,0.748722411045262,1.00000000045555,0.36063044666439
3999.99999999746,0.977216356419524,1.0000000005378,0.375955963026475
4099.99999999738,1.2831507975749,1.00000000058054,0.390474479612533
4199.99999999775,1.71340096240041,1.00000000064195,0.40424108970204
4299.99999999811,2.23364642311848,1.0000000006485,0.417779690361726
4399.99999999848,2.90978907568863,1.00000000076306,0.43004719965342
4499.99999999884,3.7411327903638,1.00000000075089,0.442231677387532
4599.9999999992,4.72345967710349,1.00000000083209,0.453448317217019
4699.99999999957,5.91633270917304,1.00000000086347,0.463966920968169
4799.99999999993,7.28521918057829,1.00000000090621,0.474060207783516
4900.00000000029,8.86523238673875,1.00000000089561,0.483679081815964
5000.00000000066,10.6745485338033,1.00000000094147,0.49231055262692
5100.00000000102,12.6846442765797,1.00000000094687,0.500740218137707
5200.00000000139,14.9357786181387,1.00000000100505,0.508257246172454
5300.00000000175,17.4085141646379,1.00000000099218,0.515529787003055
5400.00000000211,20.0990870036675,1.00000000099887,0.522407649740701
5500.00000000248,23.0274934788786,1.00000000097549,0.528567108623542
5600.00000000284,26.1618166723556,1.00000000101368,0.534374304170112
5700.00000000321,29.5094518614603,1.00000000105184,0.53973551914359
5800.00000000357,33.0660080961356,1.00000000104904,0.544573365760709
5900.00000000393,36.8067042673858,1.00000000101799,0.54939148359619
6000.0000000043,40.7366119715259,1.00000000107892,0.553380646791341
6100.00000000466,44.8367556440543,1.00000000103749,0.557327943258646
6200.00000000502,49.0872592735318,1.00000000106076,0.561099497994661
6300.00000000539,53.4890959736136,1.00000000108353,0.564126302541159
6400.00000000575,58.017569042217,1.00000000102644,0.567362779974359
6500.00000000612,62.6584845256899,1.00000000103282,0.570167784582526
6600.00000000648,67.4071243813062,1.00000000103971,0.572485804648607
6700.00000000684,72.2329008147655,1.00000000105404,0.575010883030323
6800.00000000721,77.1321478648292,1.00000000101232,0.577013225016173
6900.00000000757,82.092358304685,1.0000000010022,0.578663751363982
7000.00000000793,87.0850074842211,1.00000000100371,0.580769264887064
7100.0000000083,92.1128906449577,1.00000000101709,0.581911502874326
7200.00000000866,97.1503499094708,1.00000000098434,0.583342538936453
7300.00000000903,102.185003420417,1.00000000097257,0.584555175623393
7400.00000000939,107.216233428222,1.00000000095849,0.585417919101237
7500.00000000975,112.211912242701,1.00000000094203,0.586423760287639
7600.00000001012,117.176577261773,1.00000000094743,0.586933891342252
7700.00000001048,122.094027875592,1.00000000094696,0.587617087677486
7800.00000001084,126.945349448938,1.0000000009354,0.588396356243818
7900.00000001121,131.739414708106,1.00000000090327,0.588336532208758
8000.00000001157,136.44717277691,1.00000000089023,0.58919113660242
8100.00000001194,141.071122915467,1.00000000088983,0.589001985010325
8200.0000000123,145.605441248671,1.00000000090634,0.589373582722851
8300.00000001266,150.030742337432,1.00000000086402,0.589300084582023
8400.00000001303,154.357250093111,1.0000000008534,0.589491934930545
8500.00000001339,158.565661294855,1.00000000084338,0.589031908571047
8600.00000001376,162.654052106522,1.00000000083588,0.589555572538147
8700.00000001412,166.626212690846,1.00000000079906,0.5884757850616
8800.00000001448,170.460584164347,1.00000000081437,0.58921242987599
8900.00000001485,174.172593323421,1.00000000079179,0.588011570976194
9000.00000001521,177.744896526127,1.00000000082221,0.588130686314922
9100.00000001557,181.178786554725,1.00000000079574,0.587907949598688
9200.00000001594,184.478164084549,1.00000000076294,0.586938860248526
9300.0000000163,187.630635248164,1.00000000075117,0.587614285530306
9400.00000001667,190.644302758817,1.00000000075209,0.586090100780796
9500.00000001703,193.515095659641,1.00000000075171,0.586441660052403
9600.00000001739,196.236604489681,1.00000000074203,0.585344077201123
9700.00000001776,198.82155450175,1.00000000072267,0.585696177065857
9800.00000001812,201.257341990483,1.00000000069881,0.584416347901805
9900.00000001848,203.55123732385,1.00000000070216,0.584805289757379
10000.0000000188,205.706592850927,1.000000000677,0.584026890957069
10100.0000000192,207.714571654185,1.00000000066846,0.583233443263926
10200.0000000196,209.590298162301,1.00000000066596,0.584096926185968
10300.0000000199,211.325821796125,1.00000000064521,0.582217015302153
10400.0000000203,212.924685900364,1.00000000063431,0.582307889998449
10500.0000000207,214.394279141525,1.00000000063254,0.582661737836611
10600.000000021,215.727834996739,1.00000000063664,0.580987596419714
10700.0000000214,216.936660808824,1.00000000063095,0.581661099589097
10800.0000000218,218.018182864446,1.00000000062127,0.581143923065327
10900.0000000221,218.975626648815,1.00000000060279,0.580457916124922
11000.0000000225,219.815579991809,1.00000000062247,0.581765996696744
11100.0000000229,220.536804848082,1.00000000060938,0.579967968114374
11200.0000000232,221.145394112427,1.00000000056133,0.578532819633947
11300.0000000236,221.641831081201,1.00000000060632,0.582265180906177
11400.0000000239,222.037094116133,1.00000000058324,0.580114511395935
11500.0000000243,222.329075104234,1.00000000055679,0.57479577049718
11600.0000000247,222.516328014461,1.00000000058416,0.580360970632801
11700.000000025,222.619885246907,1.00000000058456,0.581530876586768
11800.0000000254,222.635484488587,1.00000000055827,0.574236087804516
11900.0000000258,222.55800339423,1.00000000053485,0.572947550039877
12000.0000000261,222.400703670441,1.00000000057662,0.580323272849753
12100.0000000265,222.173768792869,1.00000000059353,0.579097434173385
12200.0000000269,221.879202000449,1.00000000052975,0.570746906545262
12300.0000000272,221.505848935852,1.00000000051659,0.566753926474296
12400.0000000276,221.066643916994,1.00000000058722,0.578733053589692
12500.0000000279,220.583250150377,1.00000000060964,0.57868365186743
12600.0000000283,220.047283778469,1.00000000053409,0.566774844740533
12700.0000000287,219.448130823964,1.00000000047294,0.558761899518365
12800.000000029,218.791695046123,1.00000000057663,0.575014326628481
12900.0000000294,218.105083028077,1.0000000006365,0.580897097249877
13000.0000000298,217.391103912067,1.00000000055499,0.567207353782964
13100.0000000301,216.626859662459,1.00000000047284,0.552217143161057
13200.0000000305,215.813347967751,1.0000000005459,0.55981727305643
13300.0000000309,214.973593211292,1.00000000065508,0.582381956560707
13400.0000000312,214.123974031214,1.00000000063752,0.574251513853568
13500.0000000316,213.251983648505,1.00000000051192,0.553627794459234
13600.0000000319,212.33589323634,1.00000000047203,0.542438247241627
13700.0000000323,211.388181551744,1.00000000060058,0.563240301781344
13800.0000000327,210.433195274309,1.00000000069572,0.584469892494439
13900.000000033,209.480126103968,1.00000000064294,0.565623906101669
14000.0000000334,208.511088745056,1.00000000052781,0.54629187389009
14100.0000000338,207.507867437523,1.00000000048025,0.534484818499042
14200.0000000341,206.481771837578,1.00000000058023,0.556042704130371
14300.0000000345,205.456163817426,1.00000000075966,0.584697551856048
14400.0000000349,204.440646731243,1.00000000067994,0.56485240649743
14500.0000000352,203.420536393197,1.00000000056471,0.542594439953771
14600.0000000356,202.378303733966,1.00000000045329,0.530081425973334
14700.0000000359,201.315497246363,1.00000000053817,0.538542162921336
14800.0000000363,200.250021310427,1.00000000067809,0.572428687461602
14900.0000000367,199.198138451284,1.00000000077542,0.5781508138885
15000.000000037,198.156310396093,1.00000000061588,0.545356820232588
15100.0000000374,197.106141705223,1.00000000051921,0.529433980499335
15200.0000000378,196.042199308799,1.0000000005056,0.52766292032426
15300.0000000381,194.968411712499,1.0000000005899,0.540299846796797
15400.0000000385,193.899150832472,1.00000000072895,0.571005148135888
15500.0000000389,192.84615338301,1.00000000073406,0.571212641695341
15600.0000000392,191.802940486611,1.00000000060946,0.539388009217938
15700.0000000396,190.75743150721,1.00000000049761,0.522083153588314
15800.0000000399,189.704836404927,1.00000000054083,0.528877429773265
15900.0000000403,188.647649135991,1.00000000056568,0.535029326757937
16000.0000000407,187.595434150864,1.00000000066484,0.55329017992232
16100.000000041,186.55539733979,1.00000000074068,0.568410815884057
16200.0000000414,185.527772309542,1.00000000068331,0.548661945840079
16300.0000000418,184.50617336828,1.00000000054749,0.520669166513644
16400.0000000418,183.48328734518,1.00000000056403,0.52486494196621
16500.0000000404,182.461491139195,1.00000000057044,0.533462641134152
16600.0000000389,181.441360119799,1.0000000006065,0.535169599434045
16700.0000000375,180.427860066805,1.00000000065764,0.545947775456063
16800.000000036,179.426037059217,1.00000000069662,0.555651289173424
16900.0000000346,178.434178604314,1.00000000064726,0.541716365291521
17000.0000000331,177.449539707478,1.00000000059844,0.523640188852426
17100.0000000317,176.46962012282,1.0000000005513,0.522693606645936
17200.0000000302,175.493757084445,1.00000000055953,0.532540812173578
17300.0000000287,174.523196302107,1.00000000058252,0.536092894148421
17400.0000000273,173.558538248489,1.00000000062589,0.533223220938829
17500.0000000258,172.602367356349,1.00000000061872,0.535307027856611
17600.0000000244,171.655648365337,1.00000000065108,0.541100175775355
17700.0000000229,170.717224931197,1.00000000065154,0.536794960479293
17800.0000000215,169.787194120655,1.00000000060195,0.524985978874781
17900.00000002,168.863825123013,1.00000000057741,0.524754148604174
18000.0000000186,167.947884601488,1.0000000005748,0.535582462106366
18100.0000000171,167.038640052664,1.00000000059048,0.535984498699052
18200.0000000156,166.136452004918,1.00000000060555,0.528503889877975
18300.0000000142,165.242237947757,1.00000000060179,0.522740549569642
18400.0000000127,164.35620545298,1.00000000062515,0.529831892525461
18500.0000000113,163.478492276818,1.00000000067426,0.53859701043076
18600.0000000098,162.609579443974,1.00000000060636,0.535138842684872
18700.0000000084,161.748646435151,1.00000000060078,0.530004045506037
18800.0000000069,160.896419525175,1.00000000058551,0.531149386706649
18900.0000000055,160.05221952292,1.00000000059133,0.538916289477051
19000.000000004,159.216340768671,1.00000000055077,0.533211328700781
19100.0000000026,158.388323285309,1.00000000055708,0.525594795419699
19200.0000000011,157.568280262367,1.00000000057997,0.519940850122577
19299.9999999996,156.757007732308,1.00000000061187,0.520634763694192
19399.9999999982,155.954305312435,1.00000000061181,0.531900312927596
19499.9999999967,155.159535803572,1.00000000063648,0.543770865673936
19599.9999999953,154.373077517025,1.0000000006225,0.539317402148468
19699.9999999938,153.594711868379,1.00000000061146,0.534508654793252
19799.9999999924,152.825024347289,1.00000000059537,0.538693641524611
19899.9999999909,152.063916459883,1.00000000059153,0.540306812895515
19999.9999999895,151.312024963633,1.00000000052768,0.531531247725775
20099.999999988,150.569479188582,1.00000000051708,0.517503507186924
20199.9999999865,149.836060912669,1.00000000058769,0.515756657685666
20299.9999999851,149.111568904478,1.00000000060814,0.519712081791598
20399.9999999836,148.395514028464,1.00000000061222,0.527057050577869
20499.9999999822,147.686860393536,1.00000000062804,0.540102415829896
20599.9999999807,146.985643700852,1.00000000061221,0.545185457539099
20699.9999999793,146.291821543471,1.00000000059715,0.540740545451083
20799.9999999778,145.605461779025,1.00000000061916,0.541854257233465
20899.9999999764,144.926171770969,1.00000000063523,0.54553796298889
20999.9999999749,144.25536670243,1.0000000005842,0.536689165079489
21099.9999999734,143.59499274453,1.00000000051506,0.525770250819703
21199.999999972,142.945796964293,1.00000000049968,0.510812282163552
21299.9999999705,142.307164988477,1.00000000056508,0.510426876767607
21399.9999999691,141.677089533672,1.00000000065478,0.519069501007948
21499.9999999676,141.05395656999,1.00000000063975,0.524444565363014
21599.9999999662,140.437798945847,1.00000000058374,0.521813451689455
21699.9999999647,139.828273002993,1.00000000061108,0.533276484422114
21799.9999999633,139.224525166983,1.00000000063312,0.54566636211836
21899.9999999618,138.626421151384,1.0000000006094,0.545281292328163
21999.9999999603,138.033387572728,1.00000000067058,0.546079590618073
22099.9999999589,137.445758283682,1.00000000063657,0.545458791502319
22199.9999999574,136.865852938238,1.00000000058881,0.533878986367416
22299.999999956,136.296770684571,1.00000000051132,0.521485360825309
22399.9999999545,135.740443777411,1.00000000049028,0.512981849656451
22499.9999999531,135.196014805682,1.00000000053199,0.506696696545368
22599.9999999516,134.660777256138,1.00000000060733,0.508559447214359
22699.9999999502,134.132174468459,1.0000000006557,0.518548892100957
22799.9999999487,133.608792203067,1.00000000060998,0.517352150621434
22899.9999999473,133.091420407168,1.00000000061133,0.516155171265347
22999.9999999458,132.578876772952,1.00000000062599,0.529172236559315
23099.9999999443,132.069697453334,1.00000000060742,0.543327365771432
23199.9999999429,131.56339350952,1.00000000065413,0.549746896543417
23299.9999999414,131.060068967788,1.00000000066309,0.545768494373177
23399.99999994,130.560548731675,1.00000000065549,0.542542630655947
23499.9999999385,130.066543477281,1.00000000061398,0.535800412015207
23599.9999999371,129.581331711822,1.00000000053548,0.524164774201333
23699.9999999356,129.107979337483,1.00000000050392,0.515845466324095
23799.9999999342,128.646838979123,1.00000000052716,0.516452616362498
23899.9999999327,128.196287960145,1.00000000055017,0.511891536197582
23999.9999999312,127.75524373569,1.00000000058218,0.506149111972788
24099.9999999298,127.320912489203,1.00000000063071,0.509945502020799
24199.9999999283,126.891620276396,1.00000000064387,0.514891428528638
24299.9999999269,126.466373327251,1.00000000061132,0.516481949622005
24399.9999999254,126.044868243496,1.00000000059462,0.519273774163046
24499.999999924,125.625455964665,1.00000000063816,0.529117461224449
24599.9999999225,125.206202964594,1.00000000068893,0.542320943234964
24699.9999999211,124.786754336686,1.00000000067823,0.549321810368973
24799.9999999196,124.368653563214,1.00000000062127,0.545775644841178
24899.9999999181,123.954509834281,1.00000000060199,0.537281419758508
24999.9999999167,123.54605326685,1.00000000060497,0.532622184063523
25099.9999999152,123.144578785164,1.00000000059524,0.530037064887164
25199.9999999138,122.751557649534,1.00000000059245,0.525406167937041
25299.9999999123,122.368835371341,1.00000000053426,0.518737680072012
25399.9999999109,121.996500184862,1.00000000054386,0.519130509106144
25499.9999999094,121.63419528026,1.00000000057725,0.517775537075978
25599.999999908,121.279991694554,1.00000000057455,0.512024244959363
25699.9999999065,120.933572529504,1.00000000058774,0.509471772825894
25799.9999999051,120.593188198558,1.00000000060306,0.514022639439404
25899.9999999036,120.256775794085,1.00000000063478,0.516353823502098
25999.9999999021,119.923488108184,1.00000000060738,0.52411033578373
26099.9999999007,119.591008543926,1.00000000066104,0.527592425832534
26199.9999998992,119.257441604503,1.00000000065886,0.53363601583287
26299.9999998978,118.92268531149,1.00000000066093,0.537105031171988
26399.9999998963,118.586659378062,1.00000000064593,0.545353767252173
26499.9999998949,118.251712893875,1.00000000062303,0.542697460666997
26599.9999998934,117.920211542809,1.00000000060837,0.540282127656103
26699.999999892,117.593519171035,1.00000000059889,0.536416840073317
26799.9999998905,117.272549598799,1.00000000058029,0.533990990553459
26899.999999889,116.957676244377,1.00000000058621,0.534123469623774
26999.9999998876,116.649418397799,1.00000000059724,0.531175995987659
27099.9999998861,116.349120742077,1.00000000055483,0.525925937242308
27199.9999998847,116.058385712161,1.00000000053115,0.522223100405509
27299.9999998832,115.777838552199,1.0000000005494,0.521969513974729
27399.9999998818,115.505225479684,1.00000000058523,0.521949229846506
27499.9999998803,115.240033767163,1.00000000056841,0.518285705543365
27599.9999998789,114.980845111322,1.00000000059432,0.519472012501241
27699.9999998774,114.727073889481,1.00000000059753,0.521313479582941
27799.9999998759,114.476325694269,1.00000000061255,0.52686032659237
27899.9999998745,114.227186928408,1.00000000059647,0.534050346021549
27999.999999873,113.978064083462,1.00000000064926,0.539325419827245
28099.9999998716,113.72766097075,1.00000000066007,0.53729034055624
28199.9999998701,113.474845253786,1.00000000067212,0.543219444265299
28299.9999998687,113.21997880634,1.00000000063411,0.542603969644947
28399.9999998672,112.964398728651,1.00000000063673,0.545368651987219
28499.9999998658,112.710840010804,1.00000000060281,0.543206296676578
28599.9999998643,112.46106897906,1.00000000058057,0.541947919746637
28699.9999998629,112.215542803249,1.00000000061871,0.543753304527718
28799.9999998614,111.973406321076,1.00000000062329,0.543467979960639
28899.9999998599,111.734421751374,1.00000000061887,0.541729008594423
