Time,AGPnorm,Energy,Entropy
0,0,1,-7.38618625308193e-17
99.9999999999986,0.00198552095899721,0.999999999997706,0.00633337008722255
199.999999999993,0.0144420410314256,0.999999999998118,0.0182028516107598
300,0.028593907608922,1.00000000000076,0.033753135573984
400.000000000022,0.0422039612442014,1.0000000000012,0.0537657657717134
500.000000000045,0.0593410154441475,0.99999999999804,0.0781574899596479
600.000000000068,0.0805988753508949,0.999999999997384,0.106820838718844
700.000000000091,0.100582916534678,1.00000000000044,0.141654653054324
800.000000000113,0.119015953346501,1.00000000001555,0.186306752946756
900.000000000136,0.13735015917895,1.00000000014336,0.24536211622085
1000.00000000016,0.155022400066281,1.00000000049326,0.310943782111721
1100.0000000001,0.229131056631616,1.00000000104195,0.371666443952537
1200,0.425519458733352,1.00000000162842,0.423422628735171
1299.99999999991,0.824058400607659,1.00000000217787,0.466924812811979
1399.99999999982,1.56259174108484,1.0000000023947,0.501713333657167
1499.99999999973,2.71675251874213,1.00000000274501,0.528494416452626
1599.99999999964,4.26664985221593,1.00000000295356,0.550203599039978
1699.99999999955,6.20492971892761,1.00000000287967,0.567684901344849
1799.99999999946,8.52709520454383,1.00000000294039,0.579370106934574
1899.99999999937,11.131279916417,1.00000000280828,0.587306115922816
1999.99999999928,13.8700225579685,1.00000000291478,0.593501577073696
2099.99999999919,16.6741329558727,1.00000000274767,0.597554462584554
2199.99999999909,19.5056640732395,1.00000000262967,0.599022354129895
2299.999999999,22.2782082106244,1.00000000259287,0.597970303759717
2399.99999999891,24.8884740840278,1.0000000024304,0.59736051089667
2499.99999999882,27.2814583433398,1.00000000237007,0.596540099288073
2599.99999999873,29.4513783853935,1.00000000230798,0.594071046607386
2699.99999999864,31.3871140185749,1.00000000222039,0.590347472140977
2799.99999999855,33.0596334436069,1.0000000020525,0.587162632293619
2899.99999999846,34.4496146861848,1.00000000182303,0.58658209131789
2999.99999999837,35.5651471476852,1.00000000186363,0.584602544313366
3099.99999999828,36.4306097540419,1.00000000177511,0.5837518445375
3199.99999999819,37.0580738956339,1.00000000186525,0.584762209141716
3299.99999999809,37.4581864322198,1.00000000166499,0.578284686995547
3399.999999998,37.6569894062937,1.00000000169625,0.580791304985318
3499.99999999791,37.6727952023772,1.00000000165099,0.579402197640911
3599.99999999782,37.5542527196869,1.000000001527,0.5683626810799
3699.99999999773,37.3111504300848,1.00000000176809,0.576825567840409
3799.99999999764,36.9778337697366,1.0000000015095,0.558188891165074
3899.99999999755,36.5550203683061,1.00000000190153,0.576664980780599
3999.99999999746,36.0859955997042,1.00000000148283,0.549292277227353
4099.99999999738,35.5583934175225,1.00000000199487,0.5761567423557
4199.99999999775,35.0247978058348,1.00000000156501,0.548738335167349
4299.99999999811,34.4439683744442,1.00000000158394,0.546147363428423
4399.99999999848,33.8718438249377,1.00000000185587,0.551376042803326
4499.99999999884,33.2835578325007,1.00000000153257,0.519025509396064
4599.9999999992,32.6894881291552,1.0000000020731,0.565905463413968
4699.99999999957,32.1156730710129,1.00000000168254,0.523834388208768
4799.99999999993,31.5338966888672,1.00000000158142,0.517955804354103
4900.00000000029,30.9578012443858,1.00000000200334,0.554417196474826
5000.00000000066,30.401703016764,1.00000000167487,0.507576610422149
5100.00000000102,29.8520768310382,1.00000000154344,0.524525894264469
5200.00000000139,29.3101354881286,1.00000000175544,0.526228803995925
5300.00000000175,28.7856424094461,1.00000000189134,0.529215315436321
5400.00000000211,28.2759621170133,1.00000000156298,0.496892759261654
5500.00000000248,27.7776486280224,1.00000000164567,0.537921998420399
5600.00000000284,27.2934130938472,1.00000000163783,0.5214470089176
5700.00000000321,26.8251553018725,1.00000000184834,0.513865628781312
5800.00000000357,26.3726130099912,1.00000000143326,0.506661475576092
5900.00000000393,25.9364127057981,1.00000000175747,0.540911052664348
6000.0000000043,25.5131502735678,1.00000000169998,0.540313491240574
6100.00000000466,25.1077761108875,1.00000000169335,0.509047932478425
6200.00000000502,24.7168461697195,1.00000000174843,0.512546940582588
6300.00000000539,24.3414705994406,1.00000000162318,0.514488773702216
6400.00000000575,23.9835553406944,1.00000000181144,0.541021281727523
6500.00000000612,23.633576836944,1.00000000175279,0.544921277766472
6600.00000000648,23.3015325163107,1.000000001506,0.504400670942389
6700.00000000684,22.986444211573,1.00000000176803,0.515224480087825
6800.00000000721,22.6814186694775,1.00000000189259,0.508967303360991
6900.00000000757,22.3906190600298,1.00000000167954,0.51905664382377
7000.00000000793,22.1123253706099,1.00000000179931,0.538898404793999
7100.0000000083,21.8368112676445,1.00000000198769,0.545834896932625
7200.00000000866,21.5759875505956,1.00000000160399,0.525832543313079
7300.00000000903,21.3305827747273,1.00000000178243,0.514042697988204
7400.00000000939,21.098168400288,1.00000000179845,0.524463792228222
7500.00000000975,20.875174656436,1.00000000175264,0.513360775871243
7600.00000001012,20.6632872710121,1.00000000172403,0.53312584864543
7700.00000001048,20.4582057841171,1.00000000178755,0.556312066068159
7800.00000001084,20.2592564977536,1.00000000178345,0.540993355752695
7900.00000001121,20.065936127089,1.00000000180013,0.541621452557864
8000.00000001157,19.879295464293,1.00000000175057,0.54742820899916
8100.00000001194,19.7050074708665,1.00000000169455,0.52599538976349
8200.0000000123,19.5430779688057,1.00000000181278,0.540194073558208
8300.00000001266,19.3929718464295,1.00000000175528,0.531356888577556
8400.00000001303,19.2536335001803,1.00000000168393,0.529549498589874
8500.00000001339,19.11608213463,1.00000000195797,0.557895564262674
8600.00000001376,18.9777386615827,1.00000000177869,0.56253116394468
8700.00000001412,18.851801469543,1.00000000160703,0.545106973475044
8800.00000001448,18.7306854903654,1.00000000180537,0.555087051159037
8900.00000001485,18.6044030587665,1.00000000190212,0.570691587565684
9000.00000001521,18.4779502327073,1.00000000186156,0.563590829586469
9100.00000001557,18.361773543526,1.00000000173579,0.541078195726031
9200.00000001594,18.2588776717018,1.00000000177962,0.550384075929357
9300.0000000163,18.1675171054083,1.00000000177757,0.550577360306295
9400.00000001667,18.084394884961,1.00000000180878,0.546537171147812
9500.00000001703,18.0055900734278,1.00000000180886,0.560641281796397
9600.00000001739,17.9237783127906,1.00000000205735,0.571063258060735
9700.00000001776,17.8391384101694,1.00000000185941,0.565807286903564
9800.00000001812,17.7652297866226,1.0000000015366,0.548140317442594
9900.00000001848,17.7017858685572,1.00000000181156,0.55883011918262
10000.0000000188,17.6348572855882,1.00000000187519,0.574946643342937
10100.0000000192,17.5604868447043,1.00000000191093,0.57602281347844
10200.0000000196,17.4810724986046,1.0000000019675,0.582766271314771
10300.0000000199,17.4026658622882,1.00000000183565,0.58375774316037
10400.0000000203,17.3314063562202,1.00000000175961,0.567212539180865
10500.0000000207,17.2713094177262,1.000000001905,0.572605101268581
10600.000000021,17.2235830858413,1.00000000166623,0.563141276570697
10700.0000000214,17.184854328378,1.00000000174234,0.558038597985522
10800.0000000218,17.1495498075573,1.00000000197993,0.567952607744568
10900.0000000221,17.1136006274958,1.00000000189225,0.582429972407429
11000.0000000225,17.0749475435482,1.0000000018851,0.584366070339985
11100.0000000229,17.0391634712151,1.00000000177868,0.574760627693088
11200.0000000232,17.0057377355206,1.00000000188788,0.577475637747565
11300.0000000236,16.9759870572863,1.00000000189243,0.575982892029057
11400.0000000239,16.9480733466838,1.00000000183807,0.573005509055435
11500.0000000243,16.9184452429948,1.00000000193911,0.581648480592453
11600.0000000247,16.8841685965339,1.00000000195248,0.592324079115829
11700.000000025,16.8483881674086,1.00000000185363,0.58076422104386
11800.0000000254,16.8105903903872,1.00000000194156,0.580477772159905
11900.0000000258,16.7660049486826,1.00000000196091,0.582723727003985
12000.0000000261,16.7187775564118,1.00000000194604,0.591537811159578
12100.0000000265,16.6731522660904,1.0000000018568,0.589596567891262
12200.0000000269,16.6340432118051,1.00000000184903,0.584336450388444
12300.0000000272,16.6055794871792,1.00000000193837,0.580828144330805
12400.0000000276,16.5868596793935,1.00000000171208,0.561889922962168
12500.0000000279,16.5767952290809,1.00000000185134,0.556721568520466
12600.0000000283,16.572433587922,1.00000000193172,0.575563581186617
12700.0000000287,16.5672105964749,1.00000000206441,0.587591543326444
12800.000000029,16.5583009949675,1.00000000191517,0.590720939556713
12900.0000000294,16.5495808304088,1.00000000191943,0.585782999859798
13000.0000000298,16.5430922173748,1.00000000183059,0.587360498334506
13100.0000000301,16.5406398000943,1.00000000189728,0.587002043395715
13200.0000000305,16.5380137251138,1.00000000206955,0.589503099957186
13300.0000000309,16.5329983758822,1.00000000183089,0.591259336779512
13400.0000000312,16.5320429490555,1.0000000018251,0.590447709889318
13500.0000000316,16.5337776219229,1.00000000196593,0.605023460826117
13600.0000000319,16.5286909913843,1.00000000215515,0.620398273336776
13700.0000000323,16.5157741288997,1.00000000213217,0.617787858714169
13800.0000000327,16.5004793568605,1.00000000200344,0.613226555197063
13900.000000033,16.4887396910917,1.00000000181564,0.614486394909439
14000.0000000334,16.4801460988203,1.00000000193921,0.611488466251793
14100.0000000338,16.4695213409603,1.00000000198838,0.618660300305525
14200.0000000341,16.4508766880319,1.00000000214437,0.62224708314512
14300.0000000345,16.4217774809441,1.00000000212241,0.618722140581168
14400.0000000349,16.3857249287161,1.00000000209429,0.631991186972359
14500.0000000352,16.3497003974476,1.000000001969,0.626901891059556
14600.0000000356,16.3199731035267,1.00000000181059,0.61635223116995
14700.0000000359,16.2991748864974,1.00000000187775,0.615594537545885
14800.0000000363,16.2887998424695,1.00000000190373,0.609114873229651
14900.0000000367,16.2886979296341,1.00000000180153,0.602601627315055
15000.000000037,16.2957125699831,1.00000000195918,0.595937749882308
15100.0000000374,16.3059187430753,1.00000000196125,0.601371810996391
15200.0000000378,16.3164893432077,1.00000000206509,0.605695829517524
15300.0000000381,16.3261062163974,1.00000000209634,0.613556222983013
15400.0000000385,16.3360186086023,1.00000000212887,0.61586177588008
15500.0000000389,16.3460699326913,1.00000000204275,0.609806312629093
15600.0000000392,16.357967324412,1.000000001982,0.6076015466151
15700.0000000396,16.3722379467315,1.00000000194157,0.613038366616771
15800.0000000399,16.3877859576937,1.00000000212528,0.617394323812514
15900.0000000403,16.4025581316683,1.00000000208624,0.624034699748548
16000.0000000407,16.4185410075669,1.00000000203441,0.625194871790421
16100.000000041,16.4336357400343,1.00000000208454,0.626760251776379
16200.0000000414,16.4446369222544,1.00000000214137,0.628607940741868
16300.0000000418,16.4523597351673,1.00000000206672,0.61973707377562
16400.0000000418,16.458254225319,1.00000000206955,0.612520469144271
16500.0000000404,16.4652027600988,1.00000000225462,0.627157424533097
16600.0000000389,16.4727990401718,1.00000000194552,0.634803159216886
16700.0000000375,16.4811366135224,1.00000000212176,0.634268923087209
16800.000000036,16.4878425271876,1.00000000207867,0.641574547360961
16900.0000000346,16.4932748459532,1.00000000222946,0.6402558340464
17000.0000000331,16.496149936911,1.00000000216259,0.633028816143539
17100.0000000317,16.4965634431447,1.00000000215039,0.649724264615731
17200.0000000302,16.4927327911264,1.00000000215376,0.652177118837367
17300.0000000287,16.486987791743,1.00000000211131,0.652764399015722
17400.0000000273,16.4768945355147,1.00000000214487,0.653353423984621
17500.0000000258,16.4643814469082,1.00000000201639,0.658145807772352
17600.0000000244,16.449754657094,1.0000000022042,0.658103572108268
17700.0000000229,16.4308752115293,1.000000002169,0.658595799253408
17800.0000000215,16.4071842608472,1.00000000227904,0.655383791165604
17900.00000002,16.3798782131938,1.00000000229871,0.659620875223928
18000.0000000186,16.3508389588051,1.00000000214084,0.650965031772082
18100.0000000171,16.3229928296153,1.00000000217632,0.659649408279479
18200.0000000156,16.2986837191916,1.00000000211016,0.654220109509015
18300.0000000142,16.2779793015129,1.00000000206124,0.640692066388914
18400.0000000127,16.2656082121093,1.00000000215221,0.633003689956694
18500.0000000113,16.261628604447,1.00000000219698,0.628517675313116
18600.0000000098,16.2642212762016,1.00000000205044,0.622591204552885
18700.0000000084,16.2769716939172,1.0000000020783,0.613470844699254
18800.0000000069,16.2946842442816,1.00000000218946,0.605878260534267
18900.0000000055,16.3184684759834,1.00000000218366,0.605623767552732
19000.000000004,16.3429901143078,1.00000000228904,0.614374958885339
19100.0000000026,16.3659728391925,1.00000000225834,0.6248928120395
19200.0000000011,16.3880842030782,1.0000000023187,0.627687733272071
19299.9999999996,16.4130726869731,1.0000000021746,0.62150260751125
19399.9999999982,16.4400562250296,1.00000000210961,0.620228106525428
19499.9999999967,16.4682531258974,1.00000000225752,0.62636166108239
19599.9999999953,16.4972909663744,1.00000000211892,0.612747017638745
19699.9999999938,16.5291048040052,1.00000000207983,0.613100936260069
19799.9999999924,16.5628788039277,1.00000000223619,0.618674885852386
19899.9999999909,16.5942985779588,1.00000000225866,0.627353006639003
19999.9999999895,16.6241816786353,1.00000000230531,0.628917901815757
20099.999999988,16.6530760280039,1.00000000223781,0.631895716716019
20199.9999999865,16.682053745317,1.00000000226868,0.634562211486884
20299.9999999851,16.7103702535919,1.00000000239886,0.640342318443018
20399.9999999836,16.7354188748107,1.00000000234511,0.639136256457542
20499.9999999822,16.7551546870609,1.0000000024545,0.641295649171804
20599.9999999807,16.7739597262018,1.00000000219484,0.650139770335381
20699.9999999793,16.7921726666755,1.00000000231563,0.656760882685474
20799.9999999778,16.8112241773617,1.0000000022435,0.655397214085239
20899.9999999764,16.8306987003603,1.0000000022074,0.656437140704166
20999.9999999749,16.8521750845777,1.00000000223788,0.653418345502001
21099.9999999734,16.8730511485945,1.0000000022936,0.652641969781205
21199.999999972,16.8944697522667,1.00000000244272,0.667288189117457
21299.9999999705,16.9150816773988,1.00000000237193,0.673196149711259
21399.9999999691,16.9345343335041,1.00000000242146,0.67044630861083
21499.9999999676,16.9513308500465,1.00000000231757,0.671610088119202
21599.9999999662,16.965859728548,1.0000000024343,0.67058483452883
21699.9999999647,16.9765055436592,1.00000000234553,0.67077691155573
21799.9999999633,16.9876373743053,1.00000000235436,0.675104390909324
21899.9999999618,16.9992021651668,1.00000000235964,0.675276415884749
21999.9999999603,17.0124923980337,1.00000000236099,0.666930614777882
22099.9999999589,17.0257474717708,1.00000000218003,0.671506088308352
22199.9999999574,17.0384015594374,1.00000000244341,0.679805587641368
22299.999999956,17.0497394611747,1.00000000236512,0.672525017696055
22399.9999999545,17.0579913978201,1.00000000239151,0.66545503677959
22499.9999999531,17.0640189582241,1.00000000233603,0.666793206933816
22599.9999999516,17.0658887172708,1.00000000246418,0.670177686817621
22699.9999999502,17.066199086224,1.00000000231095,0.668676316907647
22799.9999999487,17.0679092538025,1.00000000232763,0.667860302846618
22899.9999999473,17.0665745014827,1.00000000254153,0.679346993494159
22999.9999999458,17.0613763933514,1.00000000235984,0.675121044052145
23099.9999999443,17.057230960782,1.00000000242456,0.680034011302068
23199.9999999429,17.05085593102,1.0000000024332,0.678107825937371
23299.9999999414,17.0431141044095,1.00000000233931,0.665034012537205
23399.99999994,17.033221345953,1.00000000244637,0.673542433727575
23499.9999999385,17.020618152026,1.00000000229915,0.677459901733872
23599.9999999371,17.0058994112191,1.00000000234372,0.672765918377195
23699.9999999356,16.9903166394342,1.00000000234457,0.669270347413834
23799.9999999342,16.9739837631539,1.00000000250804,0.67700183069264
23899.9999999327,16.9563896735435,1.00000000238967,0.670245919089977
23999.9999999312,16.9383430953217,1.00000000250116,0.673552635812004
24099.9999999298,16.9194564064211,1.00000000257063,0.670121274290229
24199.9999999283,16.9018775662745,1.00000000241836,0.665407000625994
24299.9999999269,16.8892193018118,1.00000000225005,0.65797592571132
24399.9999999254,16.8796683569525,1.00000000245173,0.653944139516836
24499.999999924,16.8740434944434,1.00000000237639,0.652841144657972
24599.9999999225,16.8730545534674,1.00000000239097,0.658689987462741
24699.9999999211,16.8779733637846,1.00000000237527,0.651721895470237
24799.9999999196,16.8897812600072,1.00000000225603,0.651811338152245
24899.9999999181,16.9089697506195,1.00000000223366,0.651742874446338
24999.9999999167,16.9356485553491,1.00000000247051,0.640733329638753
25099.9999999152,16.968942728064,1.00000000240823,0.641125595405765
25199.9999999138,17.0060206109647,1.0000000024922,0.640467559094166
25299.9999999123,17.0456423576478,1.00000000257555,0.630324080318003
25399.9999999109,17.0848085099266,1.00000000264457,0.632894347942217
25499.9999999094,17.1249563470477,1.00000000244866,0.623831006532311
25599.999999908,17.1662747621081,1.00000000263423,0.636036714537591
25699.9999999065,17.2060170222795,1.00000000261343,0.628672919049342
25799.9999999051,17.2484704046265,1.00000000238319,0.620506037726081
25899.9999999036,17.2952259561095,1.00000000242,0.618796801523973
25999.9999999021,17.3444647755553,1.00000000241898,0.617140124896349
26099.9999999007,17.3966514426277,1.00000000229366,0.619278443127285
26199.9999998992,17.4524959808582,1.00000000242416,0.624948824142788
26299.9999998978,17.506691776019,1.00000000256611,0.622901151206808
26399.9999998963,17.5628461360618,1.00000000248361,0.62383205548916
26499.9999998949,17.6226549783132,1.00000000253986,0.629804246793817
26599.9999998934,17.6806654175043,1.00000000268673,0.626129829062366
26699.999999892,17.736540291667,1.00000000251511,0.631994092572656
26799.9999998905,17.7953133172321,1.00000000250834,0.644979530614156
26899.999999889,17.8523411410151,1.00000000272881,0.656169075538122
26999.9999998876,17.9073631828414,1.00000000249722,0.643569538245341
27099.9999998861,17.9579372569311,1.00000000267531,0.650070169286748
27199.9999998847,18.0047027733557,1.00000000248994,0.643055215368066
27299.9999998832,18.0519772681771,1.00000000271003,0.658955911773201
27399.9999998818,18.0939032293631,1.00000000267466,0.666102078433608
27499.9999998803,18.1353450404613,1.00000000245511,0.658830508893453
27599.9999998789,18.1818066242348,1.00000000263863,0.661239829805315
27699.9999998774,18.2269752559091,1.00000000264359,0.656151663919579
27799.9999998759,18.2730178105913,1.00000000249468,0.659229905373297
27899.9999998745,18.3188937162966,1.00000000275748,0.675579898701419
27999.999999873,18.36032736652,1.00000000260443,0.680635166669645
28099.9999998716,18.4031491261477,1.00000000253419,0.676223418010015
28199.9999998701,18.4463783411369,1.00000000269966,0.692025053060302
28299.9999998687,18.4866144887408,1.00000000268728,0.688795377631814
28399.9999998672,18.5268564153204,1.00000000253647,0.680893478807739
28499.9999998658,18.5693369820007,1.00000000259239,0.685730609872941
28599.9999998643,18.611565835526,1.00000000272487,0.691222851966749
28699.9999998629,18.6514725391492,1.00000000277306,0.690417150221543
28799.9999998614,18.6871803105319,1.0000000026,0.69605759943147
28899.9999998599,18.7222220541493,1.0000000026329,0.690145978425954
28999.9999998585,18.7580190699353,1.00000000271872,0.69091319268818
29099.999999857,18.791239797714,1.0000000028756,0.693788495548695
