Time,AGPnorm,Energy,Entropy
0,0,1,-7.14821742708425e-17
99.9999999999986,0.000807057187487853,0.99999999999764,0.00295031455143622
199.999999999993,0.00582311514016296,0.99999999999843,0.00868402140288363
300,0.0118705803343477,1.00000000000111,0.0162336654061536
400.000000000022,0.018018399100326,1.00000000000122,0.0258188704301446
500.000000000045,0.0257932787997663,0.999999999998228,0.0372861511429336
600.000000000068,0.0360848834725068,0.999999999997554,0.0502595335487543
700.000000000091,0.0467887728939874,1.00000000000009,0.0647583564490779
800.000000000113,0.0572084719074914,1.00000000000176,0.0809991798123515
900.000000000136,0.0693355269751334,0.999999999999687,0.099357394625039
1000.00000000016,0.0820161045802714,0.99999999999728,0.119683823032889
1100.0000000001,0.095427326450047,0.999999999999541,0.14295638542243
1200,0.107439076214234,1.00000000000431,0.170171362485156
1299.99999999991,0.12054204832823,1.00000000001682,0.202825234590307
1399.99999999982,0.131890492555564,1.00000000005617,0.240983635643502
1499.99999999973,0.148487191529385,1.00000000014803,0.282141782652922
1599.99999999964,0.189550985855762,1.00000000027144,0.323324110639258
1699.99999999955,0.276322162875626,1.0000000004339,0.361383843119521
1799.99999999946,0.45286710886376,1.0000000005847,0.3954491967609
1899.99999999937,0.800220049060685,1.00000000073362,0.424806153082826
1999.99999999928,1.39566876901334,1.00000000092415,0.450259432822665
2099.99999999919,2.29209363391992,1.00000000097219,0.472941184520138
2199.99999999909,3.55867918228856,1.00000000104077,0.492467035159375
2299.999999999,5.26431129864694,1.00000000111047,0.508251217150943
2399.99999999891,7.41006084180068,1.00000000118851,0.521497837672481
2499.99999999882,9.96993999285276,1.00000000118675,0.533203935696033
2599.99999999873,12.9488052878298,1.00000000120177,0.542974257377488
2699.99999999864,16.3522115344574,1.00000000125517,0.5500390812697
2799.99999999855,20.1113273053046,1.00000000125111,0.555643273027201
2899.99999999846,24.1229718362612,1.00000000120533,0.560688087182539
2999.99999999837,28.3475276360088,1.00000000117135,0.564757025494227
3099.99999999828,32.7656830773927,1.00000000119341,0.566768474880681
3199.99999999819,37.3111536176841,1.00000000122999,0.56764030501424
3299.99999999809,41.8738597458048,1.00000000116081,0.569030556479842
3399.999999998,46.39408189469,1.00000000117022,0.570108338406635
3499.99999999791,50.8579079097942,1.00000000114011,0.569965998365513
3599.99999999782,55.2314331639137,1.00000000110535,0.568659964797112
3699.99999999773,59.4493843680408,1.00000000105904,0.566884727574295
3799.99999999764,63.4526932701572,1.00000000104383,0.566257751560045
3899.99999999755,67.2285102435973,1.00000000103259,0.566418027733726
3999.99999999746,70.7751751668475,1.00000000094803,0.563310922530288
4099.99999999738,74.0747214718915,1.00000000098648,0.560188370504383
4199.99999999775,77.0901604027314,1.00000000093052,0.561594420241424
4299.99999999811,79.808026329115,1.00000000092307,0.558103204304452
4399.99999999848,82.2492677936577,1.00000000086421,0.555871985904425
4499.99999999884,84.4162581958736,1.00000000086995,0.555870955750171
4599.9999999992,86.3052120239054,1.00000000081776,0.550427285684622
4699.99999999957,87.9080950159562,1.00000000079519,0.553499180804155
4799.99999999993,89.2445654999463,1.00000000078777,0.552297109035103
4900.00000000029,90.3258542304778,1.00000000075263,0.543825426207161
5000.00000000066,91.1669186188744,1.00000000077538,0.55453861424549
5100.00000000102,91.7984402359809,1.00000000078636,0.553058306275455
5200.00000000139,92.1991215479607,1.00000000067737,0.534075921356247
5300.00000000175,92.3879187466246,1.00000000073746,0.553941024880353
5400.00000000211,92.4415324783479,1.00000000080565,0.559149522646138
5500.00000000248,92.3352334930591,1.00000000058743,0.521698053718882
5600.00000000284,92.0355868843786,1.00000000062733,0.534038450650606
5700.00000000321,91.6400634907535,1.00000000081943,0.57075544304933
5800.00000000357,91.1883757132307,1.00000000071914,0.538731751000348
5900.00000000393,90.5950256752632,1.00000000049024,0.494552184520024
6000.0000000043,89.8785455433535,1.00000000072547,0.541761818021024
6100.00000000466,89.1544426884028,1.00000000092698,0.576330068525939
6200.00000000502,88.424820612332,1.00000000072068,0.52939206883705
6300.00000000539,87.5939945703067,1.00000000044557,0.469889323156528
6400.00000000575,86.6700934303704,1.00000000068592,0.515968826240571
6500.00000000612,85.7576803626619,1.00000000103612,0.576142127035564
6600.00000000648,84.8936395183537,1.00000000095619,0.554053966823293
6700.00000000684,84.0054817742484,1.00000000053585,0.472614768486431
6800.00000000721,83.0389710229125,1.00000000043019,0.445369530572707
6900.00000000757,82.0395654090532,1.0000000008038,0.523856125767916
7000.00000000793,81.0810686298518,1.00000000108153,0.573382713833721
7100.0000000083,80.176641318209,1.00000000095802,0.550120468926301
7200.00000000866,79.2764308285948,1.00000000061741,0.470988526302817
7300.00000000903,78.3359669380467,1.00000000041445,0.421021532965819
7400.00000000939,77.367686216294,1.00000000063907,0.468952317526356
7500.00000000975,76.4142568802898,1.00000000096459,0.542383668032158
7600.00000001012,75.5050262249477,1.00000000104244,0.562303953256574
7700.00000001048,74.6356474464102,1.00000000087999,0.530204641888565
7800.00000001084,73.7749209268756,1.00000000059893,0.466855610883349
7900.00000001121,72.9035799857813,1.00000000047157,0.423472011653762
8000.00000001157,72.0258987940356,1.00000000055003,0.444956422565065
8100.00000001194,71.156728580399,1.00000000080694,0.5003749738242
8200.0000000123,70.3106948577523,1.0000000009192,0.538533820371714
8300.00000001266,69.4939742730247,1.00000000094016,0.542639273262636
8400.00000001303,68.7013198007183,1.00000000077761,0.518146375004089
8500.00000001339,67.9210247245784,1.00000000061332,0.470252642025565
8600.00000001376,67.1500575240245,1.00000000052341,0.443614637772224
8700.00000001412,66.3929313986572,1.00000000058757,0.449620313162582
8800.00000001448,65.651184532364,1.00000000064386,0.475013429858209
8900.00000001485,64.9247521618286,1.00000000074374,0.499526475093174
9000.00000001521,64.213150699716,1.00000000084129,0.521249909801092
9100.00000001557,63.516166991537,1.00000000091355,0.532955252906229
9200.00000001594,62.833271328231,1.00000000086306,0.532007734281285
9300.0000000163,62.1660028262192,1.00000000068628,0.4986909003396
9400.00000001667,61.5184987312481,1.00000000055101,0.4576258461266
9500.00000001703,60.8942208677242,1.00000000064614,0.456556406361556
9600.00000001739,60.2907580736385,1.0000000007225,0.470374920840127
9700.00000001776,59.7033287419912,1.00000000075099,0.495543060125806
9800.00000001812,59.1314084699761,1.00000000064425,0.489904334270307
9900.00000001848,58.5766367723103,1.0000000006647,0.49544385672867
10000.0000000188,58.0351920500992,1.00000000072789,0.509552779851417
10100.0000000192,57.4978707890254,1.0000000009222,0.530883063971947
10200.0000000196,56.9609047047023,1.00000000097487,0.539247677570371
10300.0000000199,56.4321318931745,1.00000000080619,0.518857011465157
10400.0000000203,55.9252687028888,1.0000000005967,0.476563243485953
10500.0000000207,55.4476542620385,1.00000000057258,0.453410370574599
10600.000000021,54.9963207024245,1.00000000070666,0.46501415711061
10700.0000000214,54.5590756832846,1.00000000077682,0.479023462894228
10800.0000000218,54.1278280797858,1.00000000079694,0.49777350147722
10900.0000000221,53.7045649409088,1.00000000074979,0.506023871490301
11000.0000000225,53.2978485870749,1.00000000062737,0.490328300322227
11100.0000000229,52.9092415958466,1.00000000066847,0.492801094955745
11200.0000000232,52.5300851249387,1.00000000077612,0.512172255121935
11300.0000000236,52.1505630662437,1.00000000090194,0.528100834694629
11400.0000000239,51.7632901762633,1.0000000009132,0.537318956516526
11500.0000000243,51.372212860412,1.00000000089706,0.536540844933622
11600.0000000247,50.9892058032794,1.00000000071914,0.515526975134247
11700.000000025,50.6273374663099,1.00000000058566,0.485094550187327
11800.0000000254,50.294547289606,1.00000000059402,0.470397051856409
11900.0000000258,49.9883046026772,1.0000000006135,0.47177404650465
12000.0000000261,49.7014854675177,1.00000000068933,0.480077398690532
12100.0000000265,49.4226935332157,1.00000000080691,0.495076560983494
12200.0000000269,49.1464578788258,1.00000000079113,0.495518679622516
12300.0000000272,48.8747265977315,1.000000000767,0.50623336791637
12400.0000000276,48.6085107019849,1.0000000007419,0.517545863602133
12500.0000000279,48.3503270688532,1.00000000073925,0.522493970489547
12600.0000000283,48.0977595793197,1.00000000071513,0.528709764481266
12700.0000000287,47.8495527243184,1.00000000071351,0.532989030368242
12800.000000029,47.604269320242,1.00000000075856,0.529006817023758
12900.0000000294,47.3601482439391,1.00000000079625,0.525537456258209
13000.0000000298,47.1123978214767,1.00000000087456,0.532653890107695
13100.0000000301,46.8568930712843,1.00000000090142,0.543500824845032
13200.0000000305,46.5990394126275,1.00000000076942,0.541278891032274
13300.0000000309,46.3544074793414,1.00000000063089,0.517975121159448
13400.0000000312,46.1345463509765,1.00000000056224,0.496424975764051
13500.0000000316,45.94211203814,1.00000000061927,0.480250519878258
13600.0000000319,45.7694280436995,1.00000000071569,0.4955479444822
13700.0000000323,45.6072258464937,1.00000000075637,0.499655663429936
13800.0000000327,45.4514138628004,1.00000000072142,0.49644960106443
13900.000000033,45.3033291727648,1.0000000007146,0.49860280137798
14000.0000000334,45.162686003527,1.00000000065496,0.506424080841259
14100.0000000338,45.034215704302,1.00000000065578,0.503651086365768
14200.0000000341,44.9141936811726,1.00000000069296,0.512664209975917
14300.0000000345,44.7924800351548,1.00000000081064,0.528913543207996
14400.0000000349,44.6588343186375,1.00000000081753,0.54363662345441
14500.0000000352,44.511001380067,1.00000000082799,0.551411635577353
14600.0000000356,44.35452677924,1.00000000077871,0.555097768946939
14700.0000000359,44.1960683718437,1.00000000073456,0.553180605145577
14800.0000000363,44.0421640047282,1.00000000064898,0.541262936435191
14900.0000000367,43.8963844686009,1.0000000006818,0.534901464135511
15000.000000037,43.7538489899612,1.00000000076092,0.529147467810457
15100.0000000374,43.6094839009371,1.00000000085099,0.531718672764569
15200.0000000378,43.4593227589298,1.00000000085066,0.540935137242616
15300.0000000381,43.3016800373442,1.00000000086612,0.548217348376792
15400.0000000385,43.141820787843,1.00000000079716,0.549307717711197
15500.0000000389,42.9917498388982,1.0000000007037,0.538304299051711
15600.0000000392,42.8612021296282,1.00000000061061,0.520791367619895
15700.0000000396,42.7540182656467,1.00000000061189,0.505865458639682
15800.0000000399,42.6677809877121,1.00000000066054,0.500399248048028
15900.0000000403,42.5983363683271,1.00000000067801,0.499921603192912
16000.0000000407,42.535875450291,1.00000000078541,0.506808574119921
16100.000000041,42.4738904649078,1.00000000077243,0.506177409601453
16200.0000000414,42.4149333681284,1.00000000067554,0.502716216264144
16300.0000000418,42.3639091514962,1.00000000065838,0.503480295223773
16400.0000000418,42.3207210969347,1.00000000070279,0.515474564157615
16500.0000000404,42.279842390696,1.00000000076516,0.530557033576905
16600.0000000389,42.2386463092251,1.00000000075467,0.53920050836662
16700.0000000375,42.1976625248859,1.00000000072357,0.541351523606832
16800.000000036,42.1593135849041,1.00000000069972,0.544016037737752
16900.0000000346,42.1220049002564,1.00000000068114,0.545123050572663
17000.0000000331,42.0831753374417,1.00000000075221,0.545985265749772
17100.0000000317,42.0364239845472,1.00000000075248,0.551116255879082
17200.0000000302,41.9766769185596,1.00000000080606,0.552258398835341
17300.0000000287,41.9012897200828,1.00000000086474,0.547553936460634
17400.0000000273,41.8125595948518,1.00000000082766,0.551367266873361
17500.0000000258,41.7140220046047,1.00000000079352,0.562013080327306
17600.0000000244,41.6097049139401,1.00000000070815,0.562303138678346
17700.0000000229,41.5064608664601,1.00000000068006,0.554666934633574
17800.0000000215,41.4085789576968,1.00000000063821,0.545677520140119
17900.00000002,41.3176471912863,1.00000000069036,0.538755356836159
18000.0000000186,41.2319326141301,1.00000000072566,0.532641169190228
18100.0000000171,41.146865879571,1.00000000080005,0.533661812277906
18200.0000000156,41.0596759725084,1.00000000082894,0.544614852289244
18300.0000000142,40.968400528891,1.00000000082983,0.552404875748638
18400.0000000127,40.871429169708,1.00000000082136,0.55881362890586
18500.0000000113,40.7748302079899,1.00000000075063,0.560033994996414
18600.0000000098,40.6877133117183,1.00000000069114,0.550098337398097
18700.0000000084,40.6165384977316,1.00000000065322,0.538893275766061
18800.0000000069,40.5650376101968,1.00000000063157,0.532085228251603
18900.0000000055,40.5333284751077,1.00000000064909,0.520445514842587
19000.000000004,40.5173315595086,1.00000000072878,0.515431156412695
19100.0000000026,40.5085827733946,1.00000000073668,0.514539004764221
19200.0000000011,40.503025470855,1.00000000071158,0.520350829207987
19299.9999999996,40.50333764253,1.0000000007005,0.517313936281051
19399.9999999982,40.5108305634428,1.00000000072339,0.510588788015402
19499.9999999967,40.521923591442,1.00000000074949,0.510008299021974
19599.9999999953,40.5365164508119,1.00000000074251,0.51408678635363
19699.9999999938,40.555028554213,1.00000000070617,0.511317755846161
19799.9999999924,40.5798636121005,1.00000000075237,0.512677648154197
19899.9999999909,40.60877749991,1.00000000072972,0.525030605136471
19999.9999999895,40.6348469978169,1.00000000080079,0.545499152859429
20099.999999988,40.6527637240383,1.00000000079007,0.553515440610133
20199.9999999865,40.6615676372768,1.0000000008118,0.560240300370665
20299.9999999851,40.66568046839,1.00000000077907,0.569664077825186
20399.9999999836,40.6707475074391,1.00000000074168,0.569580484635859
20499.9999999822,40.677572071457,1.00000000072433,0.570593830122712
20599.9999999807,40.6814118625757,1.00000000078021,0.576989760416444
20699.9999999793,40.6791515682005,1.00000000077317,0.589313992318598
20799.9999999778,40.6722397380054,1.00000000074446,0.595972675548285
20899.9999999764,40.6616493351021,1.00000000069153,0.595480447014103
20999.9999999749,40.6448684173586,1.00000000079444,0.59715607340853
21099.9999999734,40.6203669926565,1.00000000076509,0.593999654963281
21199.999999972,40.589795089,1.00000000074441,0.590626274319493
21299.9999999705,40.5526178006681,1.00000000077631,0.585518219935305
21399.9999999691,40.5071836415899,1.00000000081921,0.574259372190357
21499.9999999676,40.4529229747315,1.00000000078383,0.570382823141277
21599.9999999662,40.388350676872,1.00000000085969,0.582857307372745
21699.9999999647,40.3145056840983,1.00000000088504,0.594374967046636
21799.9999999633,40.2331177637518,1.00000000082385,0.596229093102933
21899.9999999618,40.1484105753145,1.00000000074418,0.593698030861442
21999.9999999603,40.0645901969048,1.00000000073787,0.593358014949046
22099.9999999589,39.9835962342433,1.00000000071702,0.594049787207518
22199.9999999574,39.9070623350418,1.00000000070153,0.595287437554597
22299.999999956,39.8350447496635,1.00000000067225,0.594603563966306
22399.9999999545,39.765898942972,1.00000000069343,0.591295100094611
22499.9999999531,39.70014356544,1.00000000078232,0.590733763929473
22599.9999999516,39.6360788503105,1.00000000081413,0.594170120935822
22699.9999999502,39.5732174675438,1.00000000082164,0.591462621569474
22799.9999999487,39.5095615416133,1.00000000084813,0.587520448184106
22899.9999999473,39.4448459354675,1.00000000083554,0.582706253581632
22999.9999999458,39.3785356905541,1.00000000082807,0.581018582345486
23099.9999999443,39.311894176763,1.00000000079699,0.575325532657683
23199.9999999429,39.2498873875698,1.00000000071784,0.573813846663358
23299.9999999414,39.1978590800844,1.00000000069102,0.569954822665187
23399.99999994,39.1607394729968,1.00000000067495,0.565000118144328
23499.9999999385,39.1402988721263,1.00000000069152,0.556438926870682
23599.9999999371,39.1350782481233,1.00000000068675,0.552672530977274
23699.9999999356,39.1423593680718,1.00000000067304,0.549671613149937
23799.9999999342,39.1589772350758,1.00000000074808,0.543624361594623
23899.9999999327,39.1809654154828,1.00000000073049,0.541970972996734
23999.9999999312,39.2076149974022,1.00000000076874,0.540100106329558
24099.9999999298,39.2392017702198,1.00000000071094,0.54008216016266
24199.9999999283,39.2763501712608,1.00000000075663,0.539416130194738
24299.9999999269,39.3162724954563,1.0000000007368,0.540051704038124
24399.9999999254,39.360146635852,1.00000000074815,0.539636074071708
24499.999999924,39.4094456613538,1.0000000007522,0.537196885658975
24599.9999999225,39.463480938295,1.0000000007235,0.535970208832747
24699.9999999211,39.5210852908162,1.00000000073872,0.538630118290139
24799.9999999196,39.5783984276852,1.00000000078589,0.545466358771064
24899.9999999181,39.6307690427214,1.00000000090244,0.560207295676926
24999.9999999167,39.6765372952655,1.00000000081089,0.568160022099905
25099.9999999152,39.7167927958343,1.00000000078239,0.577407207245508
25199.9999999138,39.753730970224,1.00000000078471,0.581508301533292
25299.9999999123,39.786541316227,1.00000000080048,0.589121768138581
25399.9999999109,39.8165270347595,1.00000000078649,0.593411661831063
25499.9999999094,39.8438257581939,1.00000000074448,0.592907353763852
25599.999999908,39.8690879743598,1.00000000075537,0.593649184079267
25699.9999999065,39.89305993472,1.00000000074976,0.594681098361947
25799.9999999051,39.9158001951615,1.00000000082529,0.601159914711435
25899.9999999036,39.9349579300498,1.00000000080678,0.603608362201182
25999.9999999021,39.9498321915356,1.00000000077807,0.597160365001558
26099.9999999007,39.9605711645069,1.00000000080551,0.598098814153645
26199.9999998992,39.9662592394226,1.00000000084023,0.592291234024979
26299.9999998978,39.9665987533581,1.00000000077292,0.59760391763178
26399.9999998963,39.9640730745244,1.00000000077331,0.608895054919571
26499.9999998949,39.960113178571,1.00000000076439,0.602764842395979
26599.9999998934,39.9563640768527,1.00000000078898,0.6034142885892
26699.999999892,39.9514255426748,1.00000000079369,0.604774154068266
26799.9999998905,39.942606475831,1.00000000077318,0.609244393634815
26899.999999889,39.9303259792277,1.00000000078695,0.606951127581964
26999.9999998876,39.9161367910202,1.00000000076032,0.597822572016094
27099.9999998861,39.9002886207339,1.00000000076847,0.594487400938473
27199.9999998847,39.8818003056255,1.00000000079446,0.591712200908357
27299.9999998832,39.8600866637484,1.00000000079443,0.593592608654199
27399.9999998818,39.8333342925365,1.00000000083605,0.60379728289287
27499.9999998803,39.8010778814142,1.00000000083574,0.602085861381002
27599.9999998789,39.7654008433436,1.00000000080913,0.60355568341432
27699.9999998774,39.7276836282052,1.00000000079706,0.606953656471368
27799.9999998759,39.6891785690445,1.00000000075855,0.607185060682812
27899.9999998745,39.6505803768923,1.00000000077163,0.605590931931952
27999.999999873,39.6104697181003,1.00000000077329,0.610607710948593
28099.9999998716,39.56798222427,1.00000000077161,0.609788404163946
28199.9999998701,39.524291177095,1.00000000074484,0.604459762876245
28299.9999998687,39.4797889126908,1.00000000078018,0.598768219327593
28399.9999998672,39.4326830535212,1.00000000080119,0.600194978418907
28499.9999998658,39.3827562131645,1.0000000008072,0.602335753457665
28599.9999998643,39.328775997756,1.00000000080685,0.605501290676224
28699.9999998629,39.2710936993217,1.00000000086561,0.605626144972427
28799.9999998614,39.2090524203818,1.00000000087794,0.604298205621212
28899.9999998599,39.1420214641193,1.00000000083645,0.605262849521835
28999.9999998585,39.0704365198587,1.00000000083297,0.610445992987058
