Time,AGPnorm,Energy,Entropy
0,0,1,-5.47252027735049e-18
99.9999999999986,0.00245895904763736,0.999999999998639,0.00867526826935721
199.999999999993,0.00708844301261263,1.00000000000008,0.0253579190128355
300,0.015066014522081,0.999999999998698,0.0496129382858951
400.000000000022,0.0241397256244974,1.00000000000019,0.0792960294656113
500.000000000045,0.0349096734572089,0.999999999999193,0.116015889809307
600.000000000068,0.0464819110425781,1.00000000000337,0.160863489232646
700.000000000091,0.0576755766438869,1.00000000002248,0.217794553816228
800.000000000113,0.0824086391494935,1.00000000010493,0.287029394636228
900.000000000136,0.144735585410383,1.00000000027877,0.360609834889092
1000.00000000016,0.405994483007321,1.00000000051498,0.424854583463222
1100.0000000001,1.04338553673244,1.00000000068599,0.474379724806794
1200,2.34008616987984,1.0000000009011,0.507922773090367
1299.99999999991,4.41493328795042,1.00000000102219,0.530281858594295
1399.99999999982,7.3567516932582,1.00000000097283,0.542767724096817
1499.99999999973,11.0505612750358,1.00000000105473,0.549055210095659
1599.99999999964,15.3832667884258,1.00000000097211,0.549975696387295
1699.99999999955,20.1076517553894,1.00000000106079,0.548379640715131
1799.99999999946,25.0534196695799,1.00000000097179,0.54386054071851
1899.99999999937,29.9710409125099,1.00000000102941,0.536804589626919
1999.99999999928,34.7283740564972,1.00000000093636,0.532172296817468
2099.99999999919,39.1383641689015,1.0000000008902,0.521841532609751
2199.99999999909,43.1315664684961,1.00000000079383,0.516465388732685
2299.999999999,46.6162270246065,1.00000000075697,0.514256533904761
2399.99999999891,49.5610901216202,1.00000000076309,0.494088567850715
2499.99999999882,51.9398427598033,1.0000000006815,0.500964686855798
2599.99999999873,53.8133871245772,1.00000000065281,0.510559965887744
2699.99999999864,55.1653846954549,1.00000000057628,0.467353532752303
2799.99999999855,55.9548312385984,1.00000000053393,0.469124598410347
2899.99999999846,56.3902108118334,1.00000000070389,0.527404493705505
2999.99999999837,56.5833917216399,1.00000000060372,0.500784324292822
3099.99999999828,56.3771968704476,1.00000000035737,0.406614592638813
3199.99999999819,55.7673449510783,1.00000000045701,0.448365367792234
3299.99999999809,55.0633680965498,1.00000000073502,0.54236016585495
3399.999999998,54.4266555531883,1.00000000072981,0.54417342092906
3499.99999999791,53.7006600992816,1.00000000045758,0.423267457229616
3599.99999999782,52.7025624986334,1.00000000021781,0.322671645304651
3699.99999999773,51.5450311176598,1.00000000049143,0.429504033067139
3799.99999999764,50.4302237165668,1.00000000077414,0.53035383727627
3899.99999999755,49.4632107248682,1.00000000086753,0.559611530602129
3999.99999999746,48.6094449735464,1.00000000068593,0.51634216541048
4099.99999999738,47.7150268510677,1.00000000041358,0.377053627188008
4199.99999999775,46.7063855702851,1.00000000020105,0.270023063753887
4299.99999999811,45.6681397118023,1.00000000036269,0.344953407184741
4399.99999999848,44.6526106315024,1.00000000064867,0.475972179744868
4499.99999999884,43.6761355512878,1.000000000818,0.509551888160109
4599.9999999992,42.7707565069838,1.00000000092119,0.518929297629843
4699.99999999957,41.9565765601424,1.00000000084296,0.551452871393693
4799.99999999993,41.1983215156962,1.00000000065536,0.515708209875294
4900.00000000029,40.4302833993521,1.0000000003656,0.391755595787934
5000.00000000066,39.6592022172652,1.00000000023614,0.277265978122906
5100.00000000102,38.9591733962908,1.00000000027562,0.275725238168221
5200.00000000139,38.3530564355885,1.00000000045342,0.368174091814516
5300.00000000175,37.7687408856964,1.00000000074876,0.473108652244049
5400.00000000211,37.1528095699832,1.00000000072855,0.535208653426581
5500.00000000248,36.5282325033602,1.00000000063614,0.503157559070108
5600.00000000284,35.9172247246987,1.00000000058241,0.445945198355013
5700.00000000321,35.3084245837701,1.00000000071492,0.478359315679556
5800.00000000357,34.7035493304952,1.00000000091354,0.544011942963349
5900.00000000393,34.1262672096246,1.00000000090486,0.565532660240127
6000.0000000043,33.5771344496249,1.00000000070999,0.523733400346391
6100.00000000466,33.0431634234421,1.00000000041677,0.42532006928328
6200.00000000502,32.5601698540315,1.00000000021764,0.314267504924066
6300.00000000539,32.2097800056085,1.00000000019846,0.254785958126604
6400.00000000575,32.0304572949521,1.00000000032619,0.28485067324227
6500.00000000612,31.9738934755938,1.00000000051559,0.367163730996977
6600.00000000648,31.9483636864087,1.0000000006059,0.451384581417843
6700.00000000684,31.8671882967337,1.00000000072023,0.499522756312289
6800.00000000721,31.6904403174797,1.00000000078052,0.51156194649906
6900.00000000757,31.4266267747327,1.00000000078505,0.52579444335447
7000.00000000793,31.109425869894,1.00000000073254,0.540192015089621
7100.0000000083,30.7872260760622,1.0000000005202,0.506651416832945
7200.00000000866,30.4963875440056,1.00000000040947,0.458923934243952
7300.00000000903,30.2310886234789,1.000000000478,0.465750778011717
7400.00000000939,29.9519135175012,1.00000000064219,0.493256929263311
7500.00000000975,29.6400792664462,1.00000000066879,0.501076698042412
7600.00000001012,29.2995646201472,1.00000000075115,0.500986858462721
7700.00000001048,28.9365837842578,1.00000000085109,0.528468340898976
7800.00000001084,28.5702890089053,1.00000000090318,0.56018490284205
7900.00000001121,28.2162011399952,1.0000000007753,0.564393851857185
8000.00000001157,27.8717442384412,1.00000000065272,0.530939372084641
8100.00000001194,27.5365287430186,1.00000000042443,0.459534677727428
8200.0000000123,27.244029396512,1.00000000025402,0.373444423601849
8300.00000001266,27.0636263346561,1.00000000017826,0.304483967172932
8400.00000001303,27.0655124069111,1.00000000020749,0.265418509451341
8500.00000001339,27.278014856411,1.00000000027843,0.277229171526506
8600.00000001376,27.6717874020954,1.00000000041237,0.326348964679521
8700.00000001412,28.1659993613503,1.00000000052069,0.384948193134184
8800.00000001448,28.6471068835656,1.00000000069207,0.448839327323018
8900.00000001485,29.046814833354,1.00000000074017,0.494057771550531
9000.00000001521,29.3446119007899,1.00000000068311,0.516812582535195
9100.00000001557,29.5373795783414,1.00000000069878,0.535770587205113
9200.00000001594,29.6347448144822,1.00000000071699,0.55562497578584
9300.0000000163,29.6599273627056,1.00000000066643,0.550195826176201
9400.00000001667,29.6437654259489,1.00000000056021,0.523694563252026
9500.00000001703,29.5991434973495,1.0000000005765,0.502533301991542
9600.00000001739,29.5155723504412,1.00000000070573,0.510738619690919
9700.00000001776,29.3812821109058,1.00000000070243,0.529964949184448
9800.00000001812,29.2150173712578,1.00000000066182,0.537116484489778
9900.00000001848,29.0513574783065,1.00000000049466,0.515626750778269
10000.0000000188,28.9090698169605,1.00000000048283,0.491668327861091
10100.0000000192,28.783189691844,1.00000000057832,0.483443146391565
10200.0000000196,28.6625516563679,1.00000000058515,0.487310686344989
10300.0000000199,28.5439727026967,1.00000000058736,0.49603133567923
10400.0000000203,28.423025406751,1.00000000061662,0.505184338833779
10500.0000000207,28.2967605795865,1.0000000006088,0.516064517037578
10600.000000021,28.1582839476424,1.00000000064352,0.532845913837862
10700.0000000214,28.0046665538556,1.00000000061135,0.543922738069914
10800.0000000218,27.8446433071731,1.00000000053951,0.541046935789889
10900.0000000221,27.6844347607759,1.00000000049855,0.539306325626467
11000.0000000225,27.5226296989668,1.00000000055682,0.537223569941235
11100.0000000229,27.3502735546666,1.00000000060246,0.539018442431511
11200.0000000232,27.161282028891,1.00000000064852,0.542422978596548
11300.0000000236,26.9548869419055,1.00000000069456,0.545216119248555
11400.0000000239,26.7344705490167,1.00000000079617,0.552794031461333
11500.0000000243,26.5102589861623,1.00000000081767,0.555049557767284
11600.0000000247,26.2937612107253,1.00000000087173,0.56268192352711
11700.000000025,26.0955346528065,1.00000000094345,0.572278634353417
11800.0000000254,25.918245984625,1.00000000086491,0.574581900781427
11900.0000000258,25.7512663862079,1.00000000081075,0.568653697151156
12000.0000000261,25.5775377830017,1.00000000059508,0.540486688813135
12100.0000000265,25.3855677120184,1.00000000043484,0.496152188834327
12200.0000000269,25.1837174759882,1.00000000034799,0.441545612715171
12300.0000000272,25.0043697759387,1.00000000027538,0.384584450991375
12400.0000000276,24.8981240105984,1.00000000020889,0.331750929883108
12500.0000000279,24.9235798087575,1.00000000019873,0.297875651261705
12600.0000000283,25.1298255481208,1.00000000021141,0.283107011798059
12700.0000000287,25.549944550406,1.00000000022616,0.278960948921909
12800.000000029,26.1856390632876,1.00000000036135,0.297369871771136
12900.0000000294,26.9866799248313,1.00000000045527,0.334999828906208
13000.0000000298,27.8959327674719,1.00000000052268,0.374532043635104
13100.0000000301,28.8421229852935,1.00000000063678,0.416403387754331
13200.0000000305,29.748522439316,1.00000000073222,0.453731577975883
13300.0000000309,30.5768495111583,1.00000000071286,0.485444323513984
13400.0000000312,31.3120250329001,1.0000000007456,0.503969111764693
13500.0000000316,31.9489580230569,1.0000000006646,0.524116296597368
13600.0000000319,32.4861127327521,1.00000000071334,0.546904978387807
13700.0000000323,32.9289336188812,1.00000000069471,0.560709221279202
13800.0000000327,33.2867151597594,1.0000000007082,0.559581429333054
13900.000000033,33.5754143715172,1.00000000063195,0.549538714798927
14000.0000000334,33.809583760382,1.00000000061088,0.550538701762666
14100.0000000338,33.9892658625217,1.0000000006883,0.569163010413859
14200.0000000341,34.1129054114221,1.00000000068303,0.578268234078578
14300.0000000345,34.1877828164704,1.00000000063796,0.571956639567803
14400.0000000349,34.2235074170828,1.00000000067911,0.559477252948739
14500.0000000352,34.2233966673306,1.00000000062196,0.543446373133543
14600.0000000356,34.1986712903329,1.00000000064418,0.534629785309223
14700.0000000359,34.1632648513296,1.00000000058598,0.53027311771275
14800.0000000363,34.1117296760231,1.00000000065286,0.542541620498783
14900.0000000367,34.0392191262793,1.00000000062403,0.545909577084967
15000.000000037,33.9518684574996,1.00000000059514,0.550955094700087
15100.0000000374,33.8549059774612,1.0000000006247,0.558291403537652
15200.0000000378,33.7446313993546,1.00000000063575,0.557913506474566
15300.0000000381,33.6217814741959,1.00000000065511,0.554299322231477
15400.0000000385,33.4910590655411,1.00000000063029,0.553181185648834
15500.0000000389,33.3573114631393,1.00000000055443,0.54541828318501
15600.0000000392,33.228262871463,1.00000000051377,0.534027635504341
15700.0000000396,33.1074376840563,1.00000000050515,0.530552164402199
15800.0000000399,32.9888992467007,1.00000000059763,0.53307523821748
15900.0000000403,32.8636954535625,1.0000000006824,0.534366908738166
16000.0000000407,32.7303218762253,1.00000000064453,0.53975291388236
16100.000000041,32.590228895404,1.0000000007151,0.54484606952365
16200.0000000414,32.43966101388,1.00000000074945,0.55680652953343
16300.0000000418,32.281029145537,1.00000000067231,0.562775007583945
16400.0000000418,32.1205768653305,1.00000000062362,0.556060726496397
16500.0000000404,31.9659389939042,1.00000000055905,0.551977624452927
16600.0000000389,31.8235721608982,1.00000000052179,0.539870814841621
16700.0000000375,31.7000868834461,1.00000000051161,0.525648337381372
16800.000000036,31.5994053419515,1.00000000047292,0.511178001063757
16900.0000000346,31.520569143125,1.00000000052381,0.497235188530339
17000.0000000331,31.4525904845989,1.00000000062939,0.489244495839305
17100.0000000317,31.3870202984591,1.00000000063909,0.498134409655317
17200.0000000302,31.325573314919,1.00000000056564,0.503837608744339
17300.0000000287,31.2720039898042,1.0000000005418,0.507246464830917
17400.0000000273,31.2255970259773,1.00000000058975,0.522283936662677
17500.0000000258,31.1813977403483,1.00000000058084,0.540043954897583
17600.0000000244,31.1353016632401,1.00000000063613,0.551017686200978
17700.0000000229,31.0800682291964,1.00000000064878,0.552591352495638
17800.0000000215,31.0132687299166,1.00000000069972,0.543652939875156
17900.00000002,30.9401573862516,1.00000000061141,0.538463214103816
18000.0000000186,30.8665622850338,1.00000000055763,0.543135230822074
18100.0000000171,30.7919614768297,1.00000000060657,0.552202358498718
18200.0000000156,30.7114881011489,1.00000000067614,0.562127797412965
18300.0000000142,30.6275241931556,1.00000000060497,0.575288626016149
18400.0000000127,30.5437422553033,1.0000000006129,0.57819038431165
18500.0000000113,30.4560925291369,1.00000000063287,0.583690478368104
18600.0000000098,30.3608185235397,1.00000000066713,0.584257018011089
18700.0000000084,30.2579023693988,1.00000000066182,0.585075176003286
18800.0000000069,30.1473896371633,1.00000000066638,0.586903561104689
18900.0000000055,30.0312618407907,1.00000000070349,0.590953072182547
19000.000000004,29.9155778795459,1.00000000054786,0.588257436978829
19100.0000000026,29.8047096938741,1.0000000005159,0.576247125421736
19200.0000000011,29.6974526653561,1.0000000006408,0.572040251725278
19299.9999999996,29.5871326856733,1.00000000069936,0.568643262612581
19399.9999999982,29.4730502855766,1.00000000064187,0.557360053885478
19499.9999999967,29.3608045187699,1.00000000054957,0.553041608428769
19599.9999999953,29.2529640440003,1.00000000055172,0.560636046649637
19699.9999999938,29.1471916134366,1.00000000062992,0.563437033522622
19799.9999999924,29.0410282618404,1.00000000061251,0.566229223831089
19899.9999999909,28.936211229251,1.00000000058277,0.568806412571054
19999.9999999895,28.8331894467639,1.00000000059838,0.574915031092594
20099.999999988,28.730318982023,1.00000000061723,0.565468697511273
20199.9999999865,28.6237529050036,1.00000000065294,0.568962056219451
20299.9999999851,28.510657052033,1.00000000066325,0.576203101925892
20399.9999999836,28.393099618597,1.00000000062133,0.567774523379675
20499.9999999822,28.2736843842653,1.00000000062893,0.558426788904399
20599.9999999807,28.1527998914197,1.00000000058456,0.565942182004708
20699.9999999793,28.0286165559717,1.00000000069114,0.587373503518663
20799.9999999778,27.9018096147235,1.00000000069312,0.599225046127154
20899.9999999764,27.7744120224762,1.00000000060686,0.595484329585672
20999.9999999749,27.6482676974716,1.00000000055485,0.582959035867446
21099.9999999734,27.5247111613424,1.00000000057825,0.580580958832462
21199.999999972,27.4006714688411,1.00000000066856,0.587765973817737
21299.9999999705,27.2748309965322,1.00000000069585,0.597385769025677
21399.9999999691,27.1485664169264,1.00000000062834,0.602895239938902
21499.9999999676,27.0233351273246,1.00000000053942,0.583096531023001
21599.9999999662,26.899399556248,1.00000000050163,0.571380506654215
21699.9999999647,26.776655420647,1.00000000057159,0.580364594761947
21799.9999999633,26.6546565926151,1.00000000057202,0.590484564977359
21899.9999999618,26.5338265563292,1.00000000054514,0.586142435421082
21999.9999999603,26.4142899471906,1.00000000054012,0.581057802618847
22099.9999999589,26.2966220315964,1.00000000059249,0.585308246221198
22199.9999999574,26.1813238904717,1.00000000061199,0.596004099127242
22299.999999956,26.070462951779,1.00000000066017,0.587787066572756
22399.9999999545,25.9658617627777,1.00000000066847,0.584125345552974
22499.9999999531,25.8705816581322,1.0000000006943,0.596954086521675
22599.9999999516,25.7897490622154,1.00000000079113,0.601803961493862
22699.9999999502,25.7265299109067,1.00000000075643,0.599067846084838
22799.9999999487,25.6895552109908,1.00000000081493,0.601430545282964
22899.9999999473,25.679166457061,1.00000000079466,0.6088929135987
22999.9999999458,25.7082494985427,1.00000000086964,0.613396615386794
23099.9999999443,25.7762984062043,1.0000000009207,0.618032371676638
23199.9999999429,25.8938782098155,1.00000000089182,0.620582027990315
23299.9999999414,26.0560630690838,1.0000000009286,0.616744339099916
23399.99999994,26.2658341357873,1.00000000096617,0.611645342236674
23499.9999999385,26.5231754961561,1.00000000090867,0.605068804497891
23599.9999999371,26.8156272022051,1.00000000089063,0.596638212016168
23699.9999999356,27.1370049329319,1.00000000085361,0.587550221875036
23799.9999999342,27.4540893384114,1.00000000078128,0.581391971141814
23899.9999999327,27.7582844974629,1.00000000071402,0.570391957067825
23999.9999999312,28.0145930492577,1.00000000063654,0.553266133097071
24099.9999999298,28.2159082601319,1.00000000058045,0.530801532998103
24199.9999999283,28.3459403912372,1.00000000048087,0.505820562354307
24299.9999999269,28.4030771536984,1.00000000044959,0.477743124191068
24399.9999999254,28.3976748898126,1.00000000036183,0.446900549891204
24499.999999924,28.3340040771907,1.00000000032978,0.417978192108694
24599.9999999225,28.2440197330652,1.00000000029369,0.389457719802302
24699.9999999211,28.1417626602819,1.00000000025315,0.362308684696552
24799.9999999196,28.0666356901837,1.00000000022578,0.337668191864625
24899.9999999181,28.0463705417896,1.00000000020085,0.316441710978217
24999.9999999167,28.1167924257045,1.00000000019135,0.300175079037948
25099.9999999152,28.3095634413324,1.00000000019991,0.287961219089254
25199.9999999138,28.6562337617331,1.00000000019554,0.282845656449389
25299.9999999123,29.1712009240038,1.00000000021485,0.280394741472151
25399.9999999109,29.8868777239995,1.00000000024287,0.289865386071603
25499.9999999094,30.7803003921612,1.00000000028094,0.295194319441607
25599.999999908,31.8861650364889,1.00000000033433,0.307602745130264
25699.9999999065,33.1348315788314,1.0000000004124,0.324415675245808
25799.9999999051,34.5611224713275,1.00000000044272,0.341143091764439
25899.9999999036,36.0756974150629,1.00000000057713,0.362867908591621
25999.9999999021,37.67976785034,1.00000000055043,0.379490717699459
26099.9999999007,39.3195084066758,1.00000000068669,0.397560839407224
26199.9999998992,40.9621998340047,1.00000000065747,0.412771636126684
26299.9999998978,42.5899588155002,1.00000000076587,0.4342778556712
26399.9999998963,44.160370245414,1.00000000072472,0.448642973309867
26499.9999998949,45.6894166904475,1.00000000078876,0.45683725896614
26599.9999998934,47.1234253146698,1.00000000076963,0.471598687285193
26699.999999892,48.4904473686138,1.00000000074502,0.489846857517109
26799.9999998905,49.7653246316208,1.00000000077526,0.504906822597123
26899.999999889,50.960611147521,1.00000000072879,0.507631953770402
26999.9999998876,52.0714613636293,1.00000000071732,0.515125921258833
27099.9999998861,53.0877062852722,1.00000000072875,0.526989299612365
27199.9999998847,54.0329280471647,1.00000000067105,0.540273080766382
27299.9999998832,54.8930126986992,1.00000000071101,0.550143170528315
27399.9999998818,55.6967741291302,1.00000000069796,0.553877457173973
27499.9999998803,56.4246941100606,1.00000000066344,0.554791614477161
27599.9999998789,57.0943523818822,1.00000000067925,0.558336525517154
27699.9999998774,57.6975424508098,1.00000000065384,0.572087079960594
27799.9999998759,58.2384419250301,1.0000000006927,0.578591289544821
27899.9999998745,58.7306247604368,1.00000000068042,0.586372820958468
27999.999999873,59.1709877688441,1.0000000006381,0.581501127892027
28099.9999998716,59.5782658917525,1.00000000067348,0.578867152238937
28199.9999998701,59.9330112008591,1.00000000065505,0.579792733726151
28299.9999998687,60.2435733983624,1.00000000074707,0.594210059634236
28399.9999998672,60.4942618218604,1.000000000704,0.60367488360572
28499.9999998658,60.7060984009331,1.00000000067906,0.607848456556161
28599.9999998643,60.8856458306531,1.0000000005825,0.598597564268669
28699.9999998629,61.0429360513305,1.00000000062018,0.585756845571426
28799.9999998614,61.1791903084673,1.00000000065603,0.581874449173072
28899.9999998599,61.2772413763082,1.0000000007328,0.590449893008894
28999.9999998585,61.3376434909764,1.00000000077497,0.599473389566497
