Time,AGPnorm,Energy,Entropy
0,0,1,5.04539674350849e-18
99.9999999999986,0.00508803491643669,1.00000000000301,0.0155217968401678
199.999999999993,0.0144748327356467,1.000000000001,0.0456474777149485
300,0.029584846720467,1.00000000000222,0.0891159065219905
400.000000000022,0.0453814464232353,1.00000000000452,0.14713169354679
500.000000000045,0.061502902706317,1.00000000004637,0.227614162870511
600.000000000068,0.0982686086445975,1.00000000036012,0.333784962101344
700.000000000091,0.244906510927231,1.00000000096868,0.432028385953621
800.000000000113,0.8350575971542,1.0000000015211,0.500401546981147
900.000000000136,2.15255615347489,1.00000000186322,0.540124904498603
1000.00000000016,4.27625944149455,1.00000000205708,0.561432498205199
1100.0000000001,7.15626564690575,1.00000000210305,0.569865788781818
1200,10.444486968896,1.0000000019278,0.57159917382909
1299.99999999991,13.9307104320598,1.00000000191774,0.56787349646429
1399.99999999982,17.2711702999322,1.00000000177621,0.561829421515162
1499.99999999973,20.3017566057424,1.00000000178339,0.551198983061566
1599.99999999964,22.8667854584328,1.00000000154894,0.547229828413573
1699.99999999955,24.9011398128519,1.00000000145208,0.535036359150995
1799.99999999946,26.4228056690665,1.00000000140107,0.540792373829539
1899.99999999937,27.4008157281948,1.00000000116905,0.513349165579599
1999.99999999928,27.9689130936739,1.00000000137195,0.54623221922966
2099.99999999919,28.1018308088918,1.00000000091447,0.477188576171132
2199.99999999909,27.9445348078363,1.0000000014971,0.564961684245395
2299.999999999,27.6431772843608,1.00000000094089,0.467824323676865
2399.99999999891,27.0418838186165,1.00000000102245,0.489346946028182
2499.99999999882,26.4623260321518,1.00000000173924,0.581991756338237
2599.99999999873,25.8631828178485,1.00000000073797,0.418585298173537
2699.99999999864,25.097758244444,1.00000000096417,0.424757389158585
2799.99999999855,24.3542677689161,1.0000000018343,0.569426245139684
2899.99999999846,23.7251629814175,1.00000000154461,0.537134788432308
2999.99999999837,23.0714726970051,1.00000000061004,0.348536828659041
3099.99999999828,22.3765167577621,1.0000000009467,0.407687609876694
3199.99999999819,21.695109355328,1.00000000156464,0.532508159242014
3299.99999999809,21.0765558341856,1.00000000164476,0.560594937226261
3399.999999998,20.5181266783775,1.00000000126308,0.514712419309681
3499.99999999791,19.9725081419821,1.00000000069162,0.348634512163049
3599.99999999782,19.4742614864727,1.00000000087684,0.38240233860631
3699.99999999773,18.9950159912888,1.00000000147323,0.508355862165853
3799.99999999764,18.5181529993727,1.0000000012428,0.523159754057004
3899.99999999755,18.0554312721985,1.00000000160002,0.516412196240173
3999.99999999746,17.6067469810289,1.00000000171463,0.579004989767179
4099.99999999738,17.1896346747929,1.00000000117456,0.493567890841106
4199.99999999775,16.8352387692766,1.00000000055039,0.352729283188372
4299.99999999811,16.5873802826903,1.00000000088173,0.362272814607687
4399.99999999848,16.3807238204566,1.0000000012361,0.472561862419847
4499.99999999884,16.141100413776,1.00000000146083,0.534169838920023
4599.9999999992,15.8690488056428,1.00000000143358,0.549744218861665
4699.99999999957,15.6111292573501,1.0000000010309,0.507862002384486
4799.99999999993,15.3535671408539,1.00000000126189,0.51717560237316
4900.00000000029,15.0706946639827,1.0000000016001,0.541848394004587
5000.00000000066,14.7781796290015,1.00000000166043,0.58275747343112
5100.00000000102,14.4990491101426,1.00000000124196,0.534174653277273
5200.00000000139,14.2767627900133,1.00000000064803,0.40761745124069
5300.00000000175,14.1790375895639,1.00000000062161,0.35229954915526
5400.00000000211,14.2031303414039,1.0000000009675,0.38452780878238
5500.00000000248,14.2491514249101,1.00000000137637,0.473546059802514
5600.00000000284,14.2424670933428,1.00000000147527,0.536786679422573
5700.00000000321,14.2051788794623,1.00000000125237,0.533912121420283
5800.00000000357,14.1451841347396,1.00000000130715,0.543693095518805
5900.00000000393,14.048012543906,1.00000000143327,0.558481644435174
6000.0000000043,13.9270648173678,1.0000000012529,0.53415597749354
6100.00000000466,13.8033115467145,1.00000000124048,0.544988478678452
6200.00000000502,13.6786866100264,1.00000000122307,0.544160605180849
6300.00000000539,13.5569060890143,1.00000000119327,0.546541567329601
6400.00000000575,13.419449583798,1.00000000136646,0.551984805222414
6500.00000000612,13.2581303369772,1.00000000149498,0.556920335269643
6600.00000000648,13.07931597285,1.00000000172154,0.574492989777398
6700.00000000684,12.8933105481705,1.00000000164752,0.587864925767098
6800.00000000721,12.7133414491622,1.00000000113515,0.541915214647682
6900.00000000757,12.5715673465539,1.00000000073224,0.453614770948525
7000.00000000793,12.5300496887874,1.00000000056415,0.37824005642963
7100.0000000083,12.6296850059773,1.00000000076298,0.370944753388621
7200.00000000866,12.8461548908547,1.00000000103587,0.397714393944682
7300.00000000903,13.0895720120093,1.00000000137173,0.456949726569611
7400.00000000939,13.3009809957075,1.00000000136652,0.505596854725449
7500.00000000975,13.4658270484671,1.00000000143397,0.544742060317181
7600.00000001012,13.5853081992477,1.00000000134782,0.551677957923898
7700.00000001048,13.6708573525731,1.0000000013497,0.5646455950877
7800.00000001084,13.719755273448,1.0000000013854,0.582141391414378
7900.00000001121,13.7269356898834,1.00000000137498,0.584719329226683
8000.00000001157,13.7075737160668,1.00000000123992,0.569652419014672
8100.00000001194,13.6722924740277,1.00000000126901,0.56016951528304
8200.0000000123,13.6292440682088,1.00000000129442,0.561693879434272
8300.00000001266,13.5725298752507,1.00000000134478,0.550024692260925
8400.00000001303,13.5105934734104,1.00000000128064,0.548570499522517
8500.00000001339,13.4530269984915,1.00000000116866,0.5507097898075
8600.00000001376,13.3988670840693,1.00000000120078,0.55166653943663
8700.00000001412,13.3415160175924,1.00000000119711,0.557271273927433
8800.00000001448,13.2830433097584,1.00000000131449,0.565424707942039
8900.00000001485,13.2219054203018,1.00000000131354,0.563599575176891
9000.00000001521,13.1537230044342,1.00000000137239,0.561037002985261
9100.00000001557,13.0736016330898,1.00000000139957,0.56500683741233
9200.00000001594,12.9826863338424,1.0000000013425,0.592825621607841
9300.0000000163,12.8864745196243,1.00000000121599,0.595363956279244
9400.00000001667,12.7925799195689,1.00000000111156,0.585912401112447
9500.00000001703,12.6956927992792,1.00000000125607,0.591779255324002
9600.00000001739,12.5922762834769,1.000000001391,0.589692940471242
9700.00000001776,12.4816628464671,1.00000000156619,0.594639703659745
9800.00000001812,12.3683811183089,1.0000000017318,0.601698769688023
9900.00000001848,12.2595579719127,1.00000000174262,0.596836131838221
10000.0000000188,12.1556878036072,1.00000000181346,0.60067055972145
10100.0000000192,12.0506318527974,1.00000000144237,0.58776948966904
10200.0000000196,11.9379976288634,1.00000000120474,0.55495335350645
10300.0000000199,11.8276965713581,1.00000000093168,0.494796509324198
10400.0000000203,11.7531258433594,1.0000000006655,0.44117160705757
10500.0000000207,11.7604268309839,1.00000000061185,0.393319422902879
10600.000000021,11.8834433055586,1.00000000078619,0.380438420633019
10700.0000000214,12.1319335369118,1.00000000073603,0.388795470689165
10800.0000000218,12.4724522243402,1.00000000122052,0.414221316593039
10900.0000000221,12.8493597922109,1.00000000126037,0.447119811244752
11000.0000000225,13.2207786595741,1.00000000150487,0.480023513182113
11100.0000000229,13.5552959033125,1.00000000138955,0.505356356437655
11200.0000000232,13.8567095044633,1.0000000014384,0.530029587791302
11300.0000000236,14.1175873723548,1.00000000143969,0.555150243699098
11400.0000000239,14.3438495790476,1.00000000148513,0.567761063371099
11500.0000000243,14.5364216552429,1.00000000134987,0.57238296379711
11600.0000000247,14.6945975090588,1.0000000014388,0.587161934517265
11700.000000025,14.8219832540054,1.00000000139642,0.596149591023671
11800.0000000254,14.9179322480941,1.00000000132483,0.603500747043161
11900.0000000258,14.9844266072444,1.00000000150618,0.610397804957917
12000.0000000261,15.0266593132683,1.0000000012853,0.610638121759777
12100.0000000265,15.049305443378,1.00000000129021,0.607020773423802
12200.0000000269,15.0556127301513,1.00000000146137,0.601888651111378
12300.0000000272,15.0540101472691,1.00000000137275,0.588735532554301
12400.0000000276,15.0429323929654,1.00000000139402,0.592080409401658
12500.0000000279,15.0153677257259,1.00000000143577,0.591882534492776
12600.0000000283,14.9842153706137,1.00000000125614,0.582379928903416
12700.0000000287,14.943406633176,1.00000000137605,0.591978654662509
12800.000000029,14.8921635344418,1.00000000136118,0.591973296889363
12900.0000000294,14.8350582925256,1.0000000013979,0.599645721460945
13000.0000000298,14.7714267647019,1.00000000143366,0.599563062134107
13100.0000000301,14.7010149795421,1.00000000152356,0.614193620248753
13200.0000000305,14.6274374504696,1.00000000135558,0.605987274397934
13300.0000000309,14.5581136053093,1.00000000122144,0.596251290817009
13400.0000000312,14.4947063608685,1.00000000128988,0.576459556329389
13500.0000000316,14.439049201847,1.00000000127686,0.564337311266584
13600.0000000319,14.3883978658443,1.00000000150122,0.571933671251812
13700.0000000323,14.3373799116975,1.00000000138286,0.579038053157617
13800.0000000327,14.2866915670222,1.00000000143151,0.571845760040011
13900.000000033,14.2354471438978,1.00000000139699,0.575534994897946
14000.0000000334,14.1861506916773,1.00000000124366,0.584397776708013
14100.0000000338,14.1439896444419,1.00000000122932,0.582037858747515
14200.0000000341,14.1017710760577,1.00000000153046,0.576208049446422
14300.0000000345,14.0590548845102,1.00000000140304,0.5819205068067
14400.0000000349,14.021446550017,1.00000000135689,0.580723475057546
14500.0000000352,13.9891904967945,1.00000000124695,0.563623909803135
14600.0000000356,13.9573768928246,1.00000000148591,0.559749348690014
14700.0000000359,13.9230439372163,1.00000000143446,0.562545375568593
14800.0000000363,13.8916109588469,1.00000000126106,0.573796111157473
14900.0000000367,13.8618887647105,1.00000000147954,0.595162167110032
15000.000000037,13.8310714829603,1.00000000145346,0.606152853945569
15100.0000000374,13.8011155350066,1.00000000138431,0.605159598265658
15200.0000000378,13.771575174944,1.00000000139728,0.590295272446472
15300.0000000381,13.7384037777962,1.00000000150617,0.590122796267868
15400.0000000385,13.7048290528521,1.00000000130363,0.601400967705619
15500.0000000389,13.6751170706208,1.00000000135442,0.60805533490293
15600.0000000392,13.6419398621079,1.0000000014166,0.610396241471703
15700.0000000396,13.6058073631219,1.00000000132298,0.613593455600085
15800.0000000399,13.5686623045033,1.00000000136328,0.60572108309031
15900.0000000403,13.5270573422804,1.00000000146546,0.616727790795131
16000.0000000407,13.4793796264172,1.00000000130794,0.618772127450876
16100.000000041,13.4295413937259,1.0000000015453,0.609758616834366
16200.0000000414,13.3771424672114,1.00000000142914,0.610623220611252
16300.0000000418,13.3245944126698,1.0000000012912,0.613185769689061
16400.0000000418,13.277155794276,1.00000000124307,0.615565728745589
16500.0000000404,13.2321956565017,1.00000000140926,0.614293403124475
16600.0000000389,13.1828472239887,1.00000000155142,0.619005541664298
16700.0000000375,13.1280968466151,1.00000000151597,0.613510120599755
16800.000000036,13.0749897216919,1.00000000119341,0.618137138518183
16900.0000000346,13.0248614342671,1.00000000139423,0.626985270467197
17000.0000000331,12.9713207421984,1.00000000137692,0.618247598342403
17100.0000000317,12.9190680176794,1.00000000131357,0.605024918206756
17200.0000000302,12.8693685019807,1.00000000131731,0.612528129658034
17300.0000000287,12.8181371525005,1.00000000140628,0.604478189698611
17400.0000000273,12.7650985722139,1.00000000141691,0.618352524093877
17500.0000000258,12.7093365656241,1.00000000141063,0.627007565815284
17600.0000000244,12.6512469894544,1.00000000137144,0.621045936074373
17700.0000000229,12.5916973698717,1.00000000146331,0.611227610113876
17800.0000000215,12.5304694931356,1.00000000149165,0.632462654165341
17900.00000002,12.4661927596007,1.00000000140345,0.635076486364578
18000.0000000186,12.401523847536,1.0000000013727,0.633279283943669
18100.0000000171,12.3379520456878,1.00000000140496,0.63188045469111
18200.0000000156,12.273300910364,1.00000000151669,0.643898332360182
18300.0000000142,12.207251866374,1.00000000153405,0.633129308357521
18400.0000000127,12.1415062867349,1.00000000136695,0.636508664917413
18500.0000000113,12.0764157625631,1.00000000123606,0.616049389622998
18600.0000000098,12.0119202453962,1.00000000142,0.640721847196183
18700.0000000084,11.9482286859384,1.00000000132286,0.636956427673484
18800.0000000069,11.8853711854137,1.0000000012139,0.629550278921361
18900.0000000055,11.8238556052791,1.00000000128062,0.628301822683279
19000.000000004,11.7643453955215,1.00000000131858,0.63215692307131
19100.0000000026,11.7083492541307,1.00000000129391,0.635353882255184
19200.0000000011,11.6575922066504,1.00000000147906,0.62929360458788
19299.9999999996,11.6142649512211,1.00000000157225,0.644173596136704
19399.9999999982,11.5829620298675,1.00000000166152,0.643195570467742
19499.9999999967,11.5629807652568,1.00000000168688,0.650321513616969
19599.9999999953,11.5655297458797,1.0000000017769,0.652212128199776
19699.9999999938,11.5821252522626,1.00000000187119,0.648787667437158
19799.9999999924,11.6317092308131,1.00000000189838,0.647176099744146
19899.9999999909,11.6910537883201,1.0000000018493,0.629094471267906
19999.9999999895,11.7803348733379,1.00000000186956,0.614087268735999
20099.999999988,11.8640768792451,1.00000000173848,0.601119918594749
20199.9999999865,11.9538348590143,1.00000000166072,0.587972464613936
20299.9999999851,12.0156698567573,1.00000000145619,0.578299059825102
20399.9999999836,12.0515609234266,1.00000000143192,0.562120061595396
20499.9999999822,12.0518522444214,1.00000000112548,0.52861437963201
20599.9999999807,12.0204141737034,1.0000000010208,0.500541746960475
20699.9999999793,11.9730203948071,1.00000000086546,0.469687074741263
20799.9999999778,11.9277329172034,1.00000000084061,0.443867983887777
20899.9999999764,11.9106435881086,1.00000000077287,0.420714585487426
20999.9999999749,11.9481431426968,1.00000000076712,0.403944181122998
21099.9999999734,12.0664489334514,1.00000000079299,0.392954867915091
21199.999999972,12.276130802188,1.00000000080628,0.388287818340219
21299.9999999705,12.6070074860113,1.00000000092139,0.394032035821331
21399.9999999691,13.0225294014669,1.00000000090225,0.402265786828852
21499.9999999676,13.5595915339222,1.00000000123738,0.413745376450585
21599.9999999662,14.1333327193178,1.00000000136567,0.432341669422726
21699.9999999647,14.7743128312107,1.0000000016223,0.43880737918797
21799.9999999633,15.4093787260698,1.00000000148297,0.455468743709474
21899.9999999618,16.0589162976401,1.00000000156935,0.463327534879724
21999.9999999603,16.6953795770418,1.00000000162314,0.487913239612099
22099.9999999589,17.3066764022423,1.00000000169195,0.495683252215894
22199.9999999574,17.9063290866837,1.00000000168123,0.511328817173579
22299.999999956,18.4600314744043,1.00000000150874,0.523813557972898
22399.9999999545,19.009527170133,1.00000000161192,0.531679154918729
22499.9999999531,19.5136289094582,1.00000000167712,0.540977904710299
22599.9999999516,20.0028393096968,1.00000000141315,0.547184186446018
22699.9999999502,20.4724759658102,1.00000000151651,0.56709814234069
22799.9999999487,20.9122494244373,1.0000000016329,0.568676098932807
22899.9999999473,21.3310373513391,1.00000000161082,0.58014600194042
22999.9999999458,21.7089167911035,1.0000000015898,0.594646684116638
23099.9999999443,22.0766310285323,1.00000000159479,0.602412878160153
23199.9999999429,22.4062972433298,1.00000000155848,0.603975923336352
23299.9999999414,22.7174181564592,1.00000000187452,0.61209007472404
23399.99999994,22.9979864746665,1.00000000165236,0.63236405144814
23499.9999999385,23.2489580407883,1.00000000164721,0.632721208843526
23599.9999999371,23.4820327549353,1.00000000158443,0.62987526701942
23699.9999999356,23.684934675641,1.00000000161662,0.635683903196988
23799.9999999342,23.8712161376167,1.00000000152826,0.6420829076646
23899.9999999327,24.0262749621596,1.00000000154073,0.64150156287523
23999.9999999312,24.1693195260137,1.00000000203949,0.63132289835956
24099.9999999298,24.2894344499891,1.00000000156959,0.632474106335798
24199.9999999283,24.3922932787383,1.00000000161455,0.637662853176503
24299.9999999269,24.4772108591326,1.00000000158451,0.637530182077717
24399.9999999254,24.5440133433408,1.00000000149326,0.628608144625891
24499.999999924,24.6063652820176,1.0000000014861,0.632594527647381
24599.9999999225,24.6555830738495,1.00000000168528,0.624134934737494
24699.9999999211,24.7021451592286,1.00000000157441,0.619708193831985
24799.9999999196,24.7302187668389,1.00000000174056,0.628213170767791
24899.9999999181,24.7424068955137,1.00000000178002,0.64461624968317
24999.9999999167,24.7412287395449,1.00000000161207,0.627807945711615
25099.9999999152,24.738609493272,1.00000000143336,0.619967008384146
25199.9999999138,24.7358485881334,1.00000000154223,0.614077739666884
25299.9999999123,24.7276490449008,1.00000000164969,0.613688987214934
25399.9999999109,24.7153265546228,1.00000000151529,0.610392620156198
25499.9999999094,24.6967498251665,1.00000000168062,0.615386757965373
25599.999999908,24.6760846664758,1.0000000015892,0.619454349239877
25699.9999999065,24.6500589858029,1.00000000176401,0.636361225477938
25799.9999999051,24.6179653348267,1.00000000149975,0.629404288768702
25899.9999999036,24.5905846969731,1.0000000014022,0.587484107438107
25999.9999999021,24.5665293984829,1.00000000197301,0.587865660850064
26099.9999999007,24.5365286555881,1.00000000163758,0.592667363030053
26199.9999998992,24.4947612640496,1.0000000017319,0.595687610926125
26299.9999998978,24.4478060085985,1.00000000164241,0.599324717157609
26399.9999998963,24.4016723609572,1.00000000147432,0.594339693254116
26499.9999998949,24.3601844906915,1.00000000146093,0.612930843182104
26599.9999998934,24.3158157622162,1.00000000169926,0.630974763936398
26699.999999892,24.2642994012179,1.00000000170758,0.639756329462227
26799.9999998905,24.2098756053051,1.00000000156837,0.641733333101572
26899.999999889,24.1576379543181,1.00000000147666,0.626688572440899
26999.9999998876,24.110894777803,1.00000000158817,0.618344635343706
27099.9999998861,24.0651869012411,1.00000000150211,0.619881404278064
27199.9999998847,24.0194647673192,1.00000000169225,0.622026344687585
27299.9999998832,23.9764447143976,1.00000000149157,0.604385441663955
27399.9999998818,23.9411301345422,1.00000000134842,0.580118533692394
27499.9999998803,23.9091785412471,1.00000000168924,0.598613277498827
27599.9999998789,23.8687378579791,1.00000000189881,0.608229137047025
27699.9999998774,23.820281091307,1.00000000169191,0.618210875852667
27799.9999998759,23.7721780820587,1.0000000014765,0.605418227956622
27899.9999998745,23.7310225608953,1.00000000144437,0.621570981391683
27999.999999873,23.6902431261805,1.00000000158364,0.635630706159053
28099.9999998716,23.6430117742345,1.00000000166232,0.622907164141089
28199.9999998701,23.5918487966193,1.00000000172623,0.618244496496255
28299.9999998687,23.5436437588161,1.0000000016152,0.608036296973849
28399.9999998672,23.5019078554302,1.00000000148535,0.608786524016787
28499.9999998658,23.4634528887898,1.00000000196042,0.601552947676347
28599.9999998643,23.4248345509595,1.00000000192587,0.621557003126301
28699.9999998629,23.3802390564314,1.00000000163306,0.625400413742804
28799.9999998614,23.3343067453763,1.00000000155908,0.613024484109353
28899.9999998599,23.2881358079177,1.00000000165191,0.634254759293364
28999.9999998585,23.2398288921804,1.00000000167998,0.619744560407609
29099.999999857,23.190622282105,1.00000000163892,0.628608502006995
