Time,AGPnorm,Energy,Entropy
0,0,1,-1.29338345091527e-17
99.9999999999986,1.85478879874713e-05,1.00000000000027,0.000840145918477476
199.999999999993,0.00165464857023482,0.9999999999999,0.00133936604630646
300,0.00419113047679758,1.00000000000025,0.00235834031442449
400.000000000022,0.00586678954186046,1.0000000000001,0.00402625644723453
500.000000000045,0.00702081945167557,0.999999999999908,0.00542899391068554
600.000000000068,0.00996397420937946,1.00000000000035,0.00757848287518743
700.000000000091,0.0124853113140235,0.999999999999883,0.0097033197324333
800.000000000113,0.0162201137429035,1.00000000000024,0.0119584390814793
900.000000000136,0.0201612124286638,1.00000000000015,0.0147096985574727
1000.00000000016,0.02323934580518,0.999999999999779,0.0173125137795842
1100.0000000001,0.0279029664422485,1.00000000000046,0.0203153211671554
1200,0.0329711878013197,0.999999999999926,0.0234465787654347
1299.99999999991,0.0380858898269185,1.00000000000014,0.0266231557303788
1399.99999999982,0.0434489776784034,1.0000000000002,0.0301755069887726
1499.99999999973,0.0486896355050428,0.999999999999695,0.033678412036955
1599.99999999964,0.0551534705681953,1.00000000000057,0.0374402216505169
1699.99999999955,0.0618458381885429,0.99999999999998,0.0414145421502051
1799.99999999946,0.0679495883673262,0.999999999999935,0.0454193574138723
1899.99999999937,0.0745274892408814,1.00000000000032,0.0497058264318231
1999.99999999928,0.0817655425805475,0.999999999999702,0.0540552971667818
2099.99999999919,0.0896092088739798,1.00000000000059,0.058621372135815
2199.99999999909,0.097240000906191,1,0.0634240871267387
2299.999999999,0.104186976680526,0.999999999999714,0.068281821908814
2399.99999999891,0.111827837025335,1.00000000000053,0.0733890828912896
2499.99999999882,0.120469775564391,0.999999999999796,0.078695272678292
2599.99999999873,0.128971566393264,1.00000000000044,0.0842139447651064
2699.99999999864,0.137050838065825,0.999999999999992,0.0899783929704449
2799.99999999855,0.144862655524917,0.999999999999593,0.0958737942590668
2899.99999999846,0.153425983851921,1.00000000000077,0.102094896020955
2999.99999999837,0.162648307758014,0.999999999999922,0.108642444354441
3099.99999999828,0.171157271270811,1.00000000000019,0.115454226623613
3199.99999999819,0.179360834040824,1.00000000000008,0.122609549605047
3299.99999999809,0.187968708271302,0.999999999999606,0.130100677965964
3399.999999998,0.197124895836375,1.00000000000101,0.138120151832826
3499.99999999791,0.206179570170667,1.00000000000027,0.14670750772296
3599.99999999782,0.214397693151178,1.00000000000055,0.155779765583218
3699.99999999773,0.222719114796256,1.00000000000191,0.165556029794532
3799.99999999764,0.231444017028309,1.00000000000295,0.176121485623973
3899.99999999755,0.241116319169336,1.00000000000744,0.187534755767055
3999.99999999746,0.249389542805389,1.00000000001145,0.199733084950102
4099.99999999738,0.257394864369048,1.00000000001873,0.212354095310289
4199.99999999775,0.268591693073029,1.0000000000314,0.225526728182841
4299.99999999811,0.277466515817328,1.00000000004482,0.239002550713813
4399.99999999848,0.293614706342544,1.00000000006203,0.25257916756493
4499.99999999884,0.311304621757828,1.00000000007963,0.266082876364756
4599.9999999992,0.333587451253629,1.00000000009823,0.279270246946517
4699.99999999957,0.376789448433633,1.00000000012545,0.292281737254831
4799.99999999993,0.425410375590983,1.00000000015074,0.305126759285022
4900.00000000029,0.504742746168628,1.00000000017262,0.317591343686506
5000.00000000066,0.615782879270918,1.00000000020218,0.32963839078605
5100.00000000102,0.757495653562376,1.00000000022762,0.341476833002919
5200.00000000139,0.965192389228294,1.00000000025419,0.352995300310732
5300.00000000175,1.22209716073507,1.00000000027493,0.364206242996368
5400.00000000211,1.55774090533162,1.00000000030782,0.374871716440437
5500.00000000248,1.98854070565783,1.00000000033138,0.385156499045205
5600.00000000284,2.50579382795668,1.00000000033164,0.395400895399325
5700.00000000321,3.15249293777096,1.00000000037668,0.404997704512682
5800.00000000357,3.92133632414594,1.00000000040302,0.414207077309515
5900.00000000393,4.82966758938926,1.00000000040962,0.423230332523614
6000.0000000043,5.90391043439038,1.00000000044348,0.431662161477359
6100.00000000466,7.13354319052804,1.00000000044642,0.440098133482597
6200.00000000502,8.55078910165303,1.00000000047488,0.447925788065483
6300.00000000539,10.1598978442208,1.00000000049692,0.455229659020085
6400.00000000575,11.9619615037626,1.0000000004784,0.462630020654576
6500.00000000612,13.9795023059602,1.00000000050971,0.469504391449824
6600.00000000648,16.2085938447203,1.00000000053828,0.475989368455042
6700.00000000684,18.6600560521341,1.00000000053232,0.482280766159219
6800.00000000721,21.3424134059158,1.00000000054613,0.488007971062737
6900.00000000757,24.2504016378879,1.00000000054745,0.493761837338055
7000.00000000793,27.3888904421734,1.00000000057201,0.49920213391579
7100.0000000083,30.7642250857866,1.00000000057034,0.504098421247855
7200.00000000866,34.3687877841013,1.00000000055618,0.508970858290209
7300.00000000903,38.2036815309558,1.00000000059768,0.513380114962256
7400.00000000939,42.2690277607149,1.00000000059291,0.517749200029978
7500.00000000975,46.5496665570411,1.00000000060478,0.521776701109596
7600.00000001012,51.0562566875263,1.00000000059695,0.525387802127991
7700.00000001048,55.7740118894276,1.00000000057154,0.529264591346845
7800.00000001084,60.6894172153772,1.00000000062129,0.53258070613675
7900.00000001121,65.8138105324698,1.00000000059935,0.535684145477055
8000.00000001157,71.1168121144122,1.00000000058306,0.538641200037401
8100.00000001194,76.6053021897932,1.00000000058344,0.541390290583548
8200.0000000123,82.2690747823369,1.00000000059214,0.544067712349073
8300.00000001266,88.0791653105423,1.00000000060342,0.546501218164274
8400.00000001303,94.0545945455195,1.00000000060073,0.548607263633759
8500.00000001339,100.161819917563,1.00000000060307,0.550779316524311
8600.00000001376,106.395381367477,1.00000000057047,0.552900462187066
8700.00000001412,112.758150866881,1.0000000005812,0.554538287576572
8800.00000001448,119.208879968255,1.00000000059836,0.55633418337566
8900.00000001485,125.768096253393,1.00000000057874,0.557746635623921
9000.00000001521,132.408380538212,1.00000000056765,0.559279509847548
9100.00000001557,139.111221753395,1.00000000058927,0.560644932123114
9200.00000001594,145.890646643803,1.00000000057721,0.561685290650259
9300.0000000163,152.702070086535,1.00000000055804,0.562894955955022
9400.00000001667,159.560430946916,1.00000000057284,0.563885777136961
9500.00000001703,166.45142655161,1.00000000056721,0.564547373323681
9600.00000001739,173.34316072526,1.00000000055657,0.565704015853437
9700.00000001776,180.259801060606,1.00000000058147,0.566069818721155
9800.00000001812,187.158500822832,1.00000000054859,0.56686529593805
9900.00000001848,194.046256899599,1.00000000056083,0.567516039993962
10000.0000000188,200.920977862551,1.00000000053804,0.567736010926871
10100.0000000192,207.745515949912,1.0000000005402,0.568663645214547
10200.0000000196,214.545215027257,1.0000000005233,0.568683132119467
10300.0000000199,221.287153238475,1.00000000053093,0.568919733693144
10400.0000000203,227.968130059636,1.00000000053246,0.569433888881754
10500.0000000207,234.596998777817,1.00000000050952,0.569460336485822
10600.000000021,241.136861117247,1.00000000052074,0.569802004456191
10700.0000000214,247.607843054795,1.00000000051438,0.569766231350979
10800.0000000218,253.991342995991,1.00000000050294,0.570163193950447
10900.0000000221,260.275083131579,1.00000000049312,0.570030670061047
11000.0000000225,266.472773378541,1.00000000049595,0.570045563439798
11100.0000000229,272.553421065066,1.00000000049383,0.570188054099737
11200.0000000232,278.5314274241,1.00000000048366,0.5696333332158
11300.0000000236,284.397587341958,1.00000000050295,0.569976078128202
11400.0000000239,290.136716288404,1.00000000047376,0.56987797548342
11500.0000000243,295.763837062156,1.00000000048088,0.568971512986708
11600.0000000247,301.25416250352,1.00000000049326,0.569794892167191
11700.000000025,306.618973728943,1.00000000046432,0.568834533784089
11800.0000000254,311.854278454844,1.00000000046238,0.568785451831012
11900.0000000258,316.944539057607,1.00000000046139,0.569216385906048
12000.0000000261,321.907041813333,1.00000000043961,0.567865010110541
12100.0000000265,326.720071566377,1.00000000044108,0.568275400188246
12200.0000000269,331.392289362756,1.00000000043505,0.567987808576244
12300.0000000272,335.927356694084,1.00000000044014,0.566871038069972
12400.0000000276,340.305369829373,1.00000000044547,0.567343821681672
12500.0000000279,344.54697729084,1.00000000043836,0.566739264569067
12600.0000000283,348.636108126326,1.00000000043924,0.566048490762237
12700.0000000287,352.574669437045,1.00000000041388,0.566661174450419
12800.000000029,356.373984911475,1.00000000042521,0.565377320711272
12900.0000000294,360.01424229641,1.00000000040646,0.565291485364171
13000.0000000298,363.51295024546,1.00000000041203,0.564872132334664
13100.0000000301,366.863463766017,1.00000000039843,0.564368904555142
13200.0000000305,370.061484599715,1.00000000039817,0.564333959036582
13300.0000000309,373.121079518855,1.00000000039402,0.564070135206587
13400.0000000312,376.026939504384,1.00000000038922,0.563199055666766
13500.0000000316,378.791793764131,1.00000000038567,0.562692541083061
13600.0000000319,381.413764777951,1.0000000003844,0.563063195989762
13700.0000000323,383.889534057248,1.00000000037175,0.563047700210351
13800.0000000327,386.230473926456,1.00000000036361,0.561738930153414
13900.000000033,388.425356328683,1.00000000037211,0.561047488878494
14000.0000000334,390.484681291104,1.00000000036905,0.561188849077183
14100.0000000338,392.410985410423,1.00000000036025,0.561810443887047
14200.0000000341,394.198637575894,1.00000000035959,0.561998520028057
14300.0000000345,395.861202867891,1.00000000036422,0.560715307597402
14400.0000000349,397.38990569757,1.00000000035421,0.558807476935166
14500.0000000352,398.790035148701,1.00000000034846,0.558153886773725
14600.0000000356,400.06620677469,1.0000000003446,0.560376936012689
14700.0000000359,401.216757177993,1.00000000036597,0.563266316534833
14800.0000000363,402.256649587445,1.00000000034059,0.560821424769264
14900.0000000367,403.176807493753,1.00000000033303,0.556362823068672
15000.000000037,403.975923429993,1.00000000032664,0.554227820317395
15100.0000000374,404.660320964279,1.00000000031769,0.557792568507705
15200.0000000378,405.233663765634,1.00000000034896,0.564429137614353
15300.0000000381,405.713015005161,1.00000000033386,0.562990740357218
15400.0000000385,406.0968355602,1.0000000003387,0.559113412568119
15500.0000000389,406.374558196282,1.00000000030631,0.549811915963252
15600.0000000392,406.548880732967,1.00000000031074,0.551448569738849
15700.0000000396,406.61721070845,1.00000000031102,0.557633267801235
15800.0000000399,406.607441458448,1.00000000034645,0.566870491899908
15900.0000000403,406.526124299734,1.00000000035016,0.564740741025446
16000.0000000407,406.373777855605,1.00000000033454,0.556296410840224
16100.000000041,406.135714324154,1.00000000027497,0.543314965353745
16200.0000000414,405.797641004544,1.00000000027517,0.5433806472881
16300.0000000418,405.375404469258,1.00000000030171,0.555200595496523
16400.0000000418,404.892964613752,1.00000000036484,0.56856272742864
16500.0000000404,404.366461857477,1.0000000003713,0.568594189183908
16600.0000000389,403.798124525946,1.00000000034327,0.556886505321077
16700.0000000375,403.163021732938,1.00000000027399,0.539732984748765
16800.000000036,402.44605609505,1.00000000025433,0.531652107781496
16900.0000000346,401.649215547742,1.00000000027873,0.541882034629042
17000.0000000331,400.797619869215,1.00000000035258,0.562702685817623
17100.0000000317,399.923559264707,1.00000000039722,0.573230744518948
17200.0000000302,399.032821567733,1.00000000038484,0.566904112354767
17300.0000000287,398.113469237772,1.00000000032437,0.545900323030075
17400.0000000273,397.137671622904,1.00000000025967,0.525182672908995
17500.0000000258,396.088176635425,1.00000000023376,0.518900815340319
17600.0000000244,394.977195327149,1.00000000026918,0.536342831029917
17700.0000000229,393.832327030607,1.00000000036905,0.563858652060239
17800.0000000215,392.685824060661,1.00000000041467,0.576310404664852
17900.00000002,391.546625219676,1.00000000039118,0.567522926146205
18000.0000000186,390.394681396547,1.00000000032692,0.542745087156757
18100.0000000171,389.205798941507,1.00000000025611,0.516298137337645
18200.0000000156,387.955821366728,1.00000000021964,0.502015807827173
18300.0000000142,386.650076139553,1.0000000002539,0.516518093523817
18400.0000000127,385.314956143993,1.00000000035142,0.550336980022541
18500.0000000113,383.980379164826,1.0000000004419,0.574842874995453
18600.0000000098,382.667193243103,1.00000000044856,0.576438582871299
18700.0000000084,381.367441494914,1.00000000038583,0.557246907847389
18800.0000000069,380.058655341776,1.0000000003109,0.525897899908824
18900.0000000055,378.715178630674,1.00000000022504,0.496913574136185
19000.000000004,377.320168740714,1.00000000020924,0.488846222000584
19100.0000000026,375.885590136983,1.00000000027202,0.510221971491609
19200.0000000011,374.434392599238,1.00000000036238,0.548906317313449
19299.9999999996,372.994673926881,1.0000000004375,0.575410268333819
19399.9999999982,371.583197499453,1.00000000046647,0.578064362286861
19499.9999999967,370.19398973627,1.00000000043851,0.56049857198762
19599.9999999953,368.80990885669,1.00000000032961,0.528321246120068
19699.9999999938,367.40631076794,1.00000000024841,0.495348095377855
19799.9999999924,365.967867740208,1.00000000021143,0.47884991495961
19899.9999999909,364.495410869661,1.0000000002265,0.486605031730527
19999.9999999895,363.001190806153,1.00000000030414,0.520054830362199
20099.999999988,361.510562268382,1.00000000041303,0.557940999141054
20199.9999999865,360.042459617917,1.00000000047416,0.577258794523064
20299.9999999851,358.602514053952,1.00000000047959,0.573246178720251
20399.9999999836,357.186039640391,1.00000000041608,0.552816706067638
20499.9999999822,355.775237723358,1.00000000033087,0.522043598685392
20599.9999999807,354.355096528638,1.00000000026046,0.490478066885185
20699.9999999793,352.912904120182,1.00000000021026,0.473371007230511
20799.9999999778,351.446154309221,1.00000000021859,0.477698003391811
20899.9999999764,349.965837943427,1.00000000028657,0.503197215599072
20999.9999999749,348.485401332478,1.00000000038185,0.539260350126595
21099.9999999734,347.021224271323,1.00000000045125,0.565226446038663
21199.999999972,345.581750423476,1.0000000004801,0.57134895509974
21299.9999999705,344.166143040308,1.0000000004607,0.561710771712254
21399.9999999691,342.769045277635,1.00000000039632,0.539594093197949
21499.9999999676,341.377469614947,1.00000000032643,0.511353618040598
21599.9999999662,339.981115746188,1.00000000026355,0.485326819100407
21699.9999999647,338.573474778284,1.00000000022968,0.47341696881006
21799.9999999633,337.152963694743,1.00000000025065,0.478011575898076
21899.9999999618,335.726911514399,1.00000000027818,0.49543611005194
21999.9999999603,334.302014798541,1.00000000035309,0.520998713537506
22099.9999999589,332.8878695303,1.00000000040781,0.547000152608431
22199.9999999574,331.491872149154,1.00000000045921,0.55969015874285
22299.999999956,330.115483131726,1.0000000004569,0.558905341885639
22399.9999999545,328.757292090447,1.00000000042128,0.544664017538929
22499.9999999531,327.411739474267,1.00000000039318,0.525318457289244
22599.9999999516,326.071479104249,1.00000000031394,0.504765677589862
22699.9999999502,324.732293267501,1.00000000027254,0.48934496966044
22799.9999999487,323.390088814943,1.0000000002539,0.480623196240866
22899.9999999473,322.046455268825,1.00000000026569,0.48102401066636
22999.9999999458,320.702064594483,1.00000000027969,0.490690710931963
23099.9999999443,319.360831492157,1.00000000031512,0.506334062954678
23199.9999999429,318.027665112666,1.00000000036413,0.523902737474821
23299.9999999414,316.705844110131,1.00000000040689,0.539745056975045
23399.99999994,315.397974224122,1.00000000040958,0.545204822840277
23499.9999999385,314.10461712657,1.00000000042532,0.541928453603601
23599.9999999371,312.82348816123,1.00000000040351,0.53197311256841
23699.9999999356,311.552851237358,1.00000000037308,0.521005139743894
23799.9999999342,310.289589286469,1.00000000034457,0.509194091313339
23899.9999999327,309.031936346979,1.00000000030096,0.499761295454346
23999.9999999312,307.778974103525,1.00000000028592,0.493164874329072
24099.9999999298,306.529978571139,1.00000000027122,0.488699973619827
24199.9999999283,305.286137935589,1.00000000029411,0.490077736470966
24299.9999999269,304.047143686849,1.00000000028895,0.495163531936761
24399.9999999254,302.815085735957,1.00000000032458,0.504252594045925
24499.999999924,301.591351670521,1.00000000034101,0.514128614566215
24599.9999999225,300.37690457331,1.00000000037718,0.523500997574953
24699.9999999211,299.172824724609,1.00000000039277,0.528703808155915
24799.9999999196,297.979171595383,1.00000000039629,0.52976609859273
24899.9999999181,296.795063407012,1.00000000037332,0.528702509399505
24999.9999999167,295.620514696022,1.00000000036381,0.522607888817736
25099.9999999152,294.454215815873,1.00000000032967,0.516602643973099
25199.9999999138,293.296228448177,1.00000000033375,0.51415771649239
25299.9999999123,292.146145176931,1.00000000032421,0.511267606541311
25399.9999999109,291.004260272119,1.00000000031214,0.506870713335497
25499.9999999094,289.870704144499,1.00000000030022,0.501732545388801
25599.999999908,288.745013717517,1.00000000028433,0.49598390769872
25699.9999999065,287.627871633811,1.00000000029219,0.492819354242219
25799.9999999051,286.518789655623,1.00000000028556,0.49321269503354
25899.9999999036,285.418418598957,1.00000000030879,0.497764989765965
25999.9999999021,284.327064971307,1.00000000033162,0.505803796768669
26099.9999999007,283.244358927207,1.00000000035628,0.5141898624797
26199.9999998992,282.169813757796,1.00000000039857,0.521585711166844
26299.9999998978,281.103326811074,1.00000000037619,0.525102777210764
26399.9999998963,280.044421464984,1.00000000037426,0.526380525192872
26499.9999998949,278.993709651183,1.00000000033806,0.52376770602438
26599.9999998934,277.951174811984,1.00000000033165,0.518177252296831
26699.999999892,276.91701608952,1.00000000033014,0.517993692318442
26799.9999998905,275.891153921345,1.0000000003442,0.524017527079329
26899.999999889,274.873673494832,1.00000000034288,0.52503740147844
26999.9999998876,273.865095026261,1.00000000033863,0.519678372428121
27099.9999998861,272.865617429956,1.00000000031422,0.510110348368229
27199.9999998847,271.876407592374,1.00000000028881,0.498241760582044
27299.9999998832,270.897678225707,1.00000000025973,0.486435264453335
27399.9999998818,269.930347345171,1.00000000026223,0.479655813959214
27499.9999998803,268.974566665543,1.00000000027149,0.482052001486348
27599.9999998789,268.029311537704,1.00000000030604,0.49116064712466
27699.9999998774,267.092882169567,1.00000000035046,0.502917938701502
27799.9999998759,266.163657201816,1.00000000039073,0.512801232438122
27899.9999998745,265.239546989917,1.00000000041708,0.521742972162502
27999.999999873,264.320079709294,1.00000000040681,0.522985466641719
28099.9999998716,263.40641094479,1.00000000034963,0.523148174155855
28199.9999998701,262.499743671349,1.00000000033419,0.52149197912665
28299.9999998687,261.601240598131,1.00000000030462,0.517220938846593
28399.9999998672,260.710644176642,1.00000000031978,0.517523299194071
28499.9999998658,259.82700229436,1.00000000036432,0.527999835604537
28599.9999998643,258.94923305391,1.00000000038601,0.536794385540392
28699.9999998629,258.077259230557,1.0000000003701,0.534360688446852
28799.9999998614,257.212056315476,1.00000000036562,0.523365774527398
28899.9999998599,256.355684691688,1.00000000032321,0.509683298932562
