Time,AGPnorm,Energy,Entropy
0,0,1,3.1767312829498e-18
99.9999999999986,0.00914327352160085,1.00000000000458,0.0258937536998667
199.999999999993,0.0247950290709341,1.00000000000065,0.0751796323426429
300,0.0482609841121803,1.00000000000671,0.151878360697173
400.000000000022,0.0732878718602334,1.00000000022038,0.271457856906241
500.000000000045,0.132976089788022,1.00000000142361,0.415941198556911
600.000000000068,0.612241149072482,1.00000000262388,0.513579556588462
700.000000000091,1.81031829071131,1.00000000346067,0.563133927279124
800.000000000113,3.77448044481696,1.00000000344298,0.585759862799529
900.000000000136,6.24129897844815,1.00000000338633,0.589398797537137
1000.00000000016,8.76950984311011,1.00000000331387,0.586391764167676
1100.0000000001,11.1175099160951,1.00000000313735,0.578061217055078
1200,13.0088769082104,1.00000000271793,0.567190055892343
1299.99999999991,14.4034085197077,1.00000000254025,0.562002287673302
1399.99999999982,15.2651277093468,1.00000000225539,0.553690342179984
1499.99999999973,15.675461967678,1.00000000183088,0.531436007821494
1599.99999999964,15.7481061419807,1.00000000219803,0.558109408281321
1699.99999999955,15.5078293040314,1.00000000223648,0.553069855138225
1799.99999999946,15.1809811403955,1.00000000155975,0.481931553626065
1899.99999999937,14.6969130463362,1.0000000028976,0.573241393533076
1999.99999999928,14.2378960713859,1.0000000014785,0.450251478245357
2099.99999999919,13.6892467171273,1.00000000236655,0.51652254391322
2199.99999999909,13.2057406548242,1.00000000247182,0.534606552796087
2299.999999999,12.7184295611003,1.00000000126817,0.398406153282676
2399.99999999891,12.2181472988105,1.00000000257468,0.533126454525784
2499.99999999882,11.7713336978169,1.00000000252342,0.548346884721093
2599.99999999873,11.3612811316491,1.00000000122664,0.393636293445569
2699.99999999864,10.9671529924744,1.0000000021154,0.493886476079849
2799.99999999855,10.5842559777501,1.00000000235378,0.52976366111299
2899.99999999846,10.2227840566933,1.00000000279387,0.562156254265866
2999.99999999837,9.90725886111904,1.00000000129852,0.428486832779006
3099.99999999828,9.66258178127329,1.00000000180925,0.432270220093873
3199.99999999819,9.40547252821261,1.00000000238945,0.534163534816363
3299.99999999809,9.16020155312009,1.00000000195144,0.524867988578021
3399.999999998,8.91487618581378,1.00000000263512,0.539856442001165
3499.99999999791,8.66751337683719,1.00000000258735,0.556578783050543
3599.99999999782,8.47206548356851,1.00000000133969,0.437977950206333
3699.99999999773,8.36535738419207,1.00000000174085,0.44056943327884
3799.99999999764,8.26588663650768,1.00000000231765,0.523902644244121
3899.99999999755,8.15074180717157,1.00000000205485,0.535831355559127
3999.99999999746,8.03104189208122,1.00000000226394,0.552828808558566
4099.99999999738,7.89708558031601,1.00000000224703,0.577738455361163
4199.99999999775,7.75931908719892,1.0000000023515,0.556557148345221
4299.99999999811,7.6085928373454,1.00000000278101,0.570189085615372
4399.99999999848,7.45463488426233,1.00000000234793,0.560462968915623
4499.99999999884,7.35567983090093,1.00000000141354,0.462521607261911
4599.9999999992,7.36024340366526,1.00000000155213,0.447146933236139
4699.99999999957,7.39256834371231,1.00000000237807,0.502180871610354
4799.99999999993,7.4045563819271,1.00000000219057,0.540186673792353
4900.00000000029,7.39384690214454,1.00000000226201,0.566840207199584
5000.00000000066,7.36447866076391,1.00000000222932,0.583625560509973
5100.00000000102,7.32967873546755,1.00000000204293,0.583184604404568
5200.00000000139,7.28648345422722,1.00000000223263,0.584322820951733
5300.00000000175,7.22676326435025,1.00000000238225,0.574699292517878
5400.00000000211,7.1531024555798,1.0000000022059,0.589927221595369
5500.00000000248,7.07738332164057,1.00000000196372,0.598718418275642
5600.00000000284,6.99448303283427,1.00000000237662,0.595617027718829
5700.00000000321,6.90102968492243,1.00000000274186,0.610050613550043
5800.00000000357,6.80205704009377,1.00000000272979,0.589066511224052
5900.00000000393,6.70704456023216,1.00000000195457,0.553664430608806
6000.0000000043,6.66386286036901,1.00000000143928,0.486598431031663
6100.00000000466,6.71951731548778,1.00000000156447,0.462367807462046
6200.00000000502,6.8392277598951,1.0000000019387,0.496175146709742
6300.00000000539,6.94865443134102,1.00000000246174,0.53601700386833
6400.00000000575,7.0382685178383,1.00000000221259,0.557954191408562
6500.00000000612,7.10987116096137,1.00000000232753,0.582876772845591
6600.00000000648,7.16301771566508,1.00000000230882,0.603393615812828
6700.00000000684,7.19301817905004,1.00000000221446,0.611434918121949
6800.00000000721,7.20709980407902,1.00000000233561,0.628921967233285
6900.00000000757,7.20209658713528,1.0000000024964,0.628712012884679
7000.00000000793,7.18050490109848,1.00000000261442,0.634910888767339
7100.0000000083,7.1590592521252,1.00000000226714,0.622936327174984
7200.00000000866,7.14475544883375,1.00000000193847,0.612472971771336
7300.00000000903,7.12877600345631,1.00000000239614,0.5985522806527
7400.00000000939,7.09770296668365,1.00000000230906,0.611913134082611
7500.00000000975,7.06740806491556,1.00000000217997,0.615636317340161
7600.00000001012,7.04073707392491,1.00000000243752,0.633141160440137
7700.00000001048,7.00816794744213,1.00000000231689,0.634011429470428
7800.00000001084,6.97030341327765,1.00000000231038,0.626232364968017
7900.00000001121,6.93205134406326,1.00000000239384,0.608127095836386
8000.00000001157,6.88609060532429,1.00000000251948,0.638777704030163
8100.00000001194,6.83108175695624,1.00000000236345,0.638485846349276
8200.0000000123,6.76939074223648,1.00000000241157,0.638120704085026
8300.00000001266,6.70703584030121,1.00000000235249,0.643597522070898
8400.00000001303,6.64343553193914,1.00000000248021,0.651200092385533
8500.00000001339,6.57932881918409,1.00000000293303,0.661159719912228
8600.00000001376,6.51760534108216,1.00000000294022,0.672677948374286
8700.00000001412,6.45568481123798,1.00000000282446,0.649559560306328
8800.00000001448,6.3883278978186,1.0000000026138,0.617159014192711
8900.00000001485,6.32788581069676,1.00000000209626,0.566045291681594
9000.00000001521,6.30927890294643,1.00000000161501,0.517928402172386
9100.00000001557,6.36744881571387,1.00000000159492,0.485516163449365
9200.00000001594,6.505672703194,1.00000000209473,0.490750809511072
9300.0000000163,6.68947459710996,1.00000000236975,0.513307115616758
9400.00000001667,6.87280707380175,1.00000000237857,0.537895823326334
9500.00000001703,7.03981983299018,1.00000000263195,0.54705700579563
9600.00000001739,7.1910790380742,1.00000000240421,0.566550222941621
9700.00000001776,7.32304795860557,1.00000000257878,0.576862694740513
9800.00000001812,7.4397501379938,1.00000000249363,0.586184659149457
9900.00000001848,7.54288176178364,1.000000002638,0.610367635822882
10000.0000000188,7.62768311318328,1.00000000241117,0.626620779774855
10100.0000000192,7.69906413423296,1.00000000273925,0.615700217937216
10200.0000000196,7.75485892239068,1.00000000259609,0.628274644518274
10300.0000000199,7.79309883539174,1.0000000026806,0.64942599440231
10400.0000000203,7.81680440981418,1.00000000279367,0.652015118076224
10500.0000000207,7.83337835473455,1.0000000025894,0.650419339013238
10600.000000021,7.85243944550662,1.00000000253388,0.64088185648536
10700.0000000214,7.86616849414337,1.00000000298509,0.65033505271455
10800.0000000218,7.87300282708733,1.00000000257473,0.653355130582117
10900.0000000221,7.87881158943816,1.00000000276463,0.655773314643765
11000.0000000225,7.87366327250823,1.00000000292321,0.658215738458921
11100.0000000229,7.86657185049821,1.00000000278333,0.659496069713233
11200.0000000232,7.85454607311209,1.00000000294516,0.65044098768546
11300.0000000236,7.83985558863096,1.00000000257386,0.660631102876004
11400.0000000239,7.81893139244897,1.0000000027621,0.665882273920188
11500.0000000243,7.79669778637538,1.00000000274801,0.660639529939417
11600.0000000247,7.77448367380202,1.00000000275903,0.655076966658211
11700.000000025,7.75426267540016,1.00000000273888,0.64628922854336
11800.0000000254,7.74054986566649,1.00000000270241,0.630753509246196
11900.0000000258,7.73934119602678,1.0000000026382,0.61461101174739
12000.0000000261,7.75155458184141,1.00000000264057,0.631243725716091
12100.0000000265,7.76848773388752,1.00000000272515,0.642798789283
12200.0000000269,7.7832113368935,1.00000000282741,0.634543522173879
12300.0000000272,7.78968990092508,1.00000000298143,0.635329239232247
12400.0000000276,7.79625829151869,1.00000000264408,0.621881915552693
12500.0000000279,7.80788803729279,1.00000000279639,0.631132170480542
12600.0000000283,7.81586729612164,1.00000000276416,0.625874630151426
12700.0000000287,7.82796237765621,1.00000000276004,0.645339552205764
12800.000000029,7.84480386790497,1.000000002842,0.661774523522201
12900.0000000294,7.85509759820216,1.00000000300271,0.661470689505083
13000.0000000298,7.85871181848394,1.00000000290448,0.660081766374094
13100.0000000301,7.86615654037414,1.00000000269706,0.653568543043082
13200.0000000305,7.87854812341727,1.00000000314293,0.659152953464882
13300.0000000309,7.90156616145222,1.00000000283181,0.646766778640923
13400.0000000312,7.92558261572449,1.00000000301624,0.655041467050984
13500.0000000316,7.94122462391062,1.00000000324136,0.669052232781316
13600.0000000319,7.95360499190739,1.00000000306222,0.659627685503356
13700.0000000323,7.96997885813842,1.00000000311167,0.680012757765287
13800.0000000327,7.98340414448463,1.00000000323711,0.67406367836018
13900.000000033,7.99631489585174,1.00000000281157,0.658086082494492
14000.0000000334,8.01109068276123,1.00000000308211,0.678933601008772
14100.0000000338,8.02008781983061,1.00000000293965,0.667625277785302
14200.0000000341,8.035492888082,1.00000000299942,0.660958691062773
14300.0000000345,8.04839868094519,1.00000000320069,0.670180289426172
14400.0000000349,8.05758898142777,1.00000000298505,0.678176618541184
14500.0000000352,8.06670730166319,1.00000000304885,0.664647400051264
14600.0000000356,8.07675131276661,1.00000000308059,0.678758324239539
14700.0000000359,8.08103999518111,1.00000000328551,0.6718982682083
14800.0000000363,8.08192857913976,1.00000000288705,0.663703658167305
14900.0000000367,8.08630057658666,1.00000000303265,0.662078062283627
15000.000000037,8.08818950383844,1.00000000298188,0.671452051159963
15100.0000000374,8.09562999883149,1.00000000293993,0.664687291593306
15200.0000000378,8.1012808325879,1.00000000309952,0.688583726111536
15300.0000000381,8.0967283856891,1.0000000031501,0.675517912100901
15400.0000000385,8.09323108941801,1.0000000032029,0.662708541807084
15500.0000000389,8.09255582210438,1.00000000310891,0.663854512548307
15600.0000000392,8.08879652010091,1.00000000334805,0.675315350979461
15700.0000000396,8.07994608137989,1.00000000344387,0.686609873411813
15800.0000000399,8.06248114254756,1.00000000334279,0.679651500500529
15900.0000000403,8.04470482040304,1.00000000323633,0.665068031581183
16000.0000000407,8.02615074673601,1.00000000342147,0.673955573493872
16100.000000041,8.00237072688791,1.00000000314891,0.678931388751424
16200.0000000414,7.97318540675531,1.0000000032257,0.681840516814352
16300.0000000418,7.94104443366972,1.00000000334196,0.68035994078826
16400.0000000418,7.90797727840992,1.00000000319966,0.678967456965385
16500.0000000404,7.87357031308334,1.00000000327934,0.680913577344865
16600.0000000389,7.84011625929821,1.00000000327775,0.679429385365674
16700.0000000375,7.80762892136396,1.00000000315412,0.668719594727961
16800.000000036,7.77663312245269,1.00000000376244,0.668342493378829
16900.0000000346,7.74829481765715,1.00000000334105,0.661331578882787
17000.0000000331,7.72143694308742,1.00000000313167,0.67768330594666
17100.0000000317,7.69673995651538,1.00000000354643,0.684263750852705
17200.0000000302,7.67627465998979,1.00000000379289,0.680198551270832
17300.0000000287,7.65589614770237,1.0000000037547,0.693300325221128
17400.0000000273,7.63653607003101,1.00000000377306,0.684107789427923
17500.0000000258,7.61082071710158,1.00000000370447,0.668547768655276
17600.0000000244,7.58036748953074,1.00000000357991,0.652266316851368
17700.0000000229,7.5447049046635,1.00000000357442,0.624508629778149
17800.0000000215,7.51316661037467,1.00000000315469,0.593432253224555
17900.00000002,7.50382681535537,1.00000000277808,0.581769287192967
18000.0000000186,7.5321459765606,1.00000000267247,0.561272845604693
18100.0000000171,7.62383136954773,1.00000000261343,0.546514771089534
18200.0000000156,7.78950703918734,1.00000000290632,0.527970947800608
18300.0000000142,8.04670287115492,1.00000000270352,0.532201643484926
18400.0000000127,8.37110420281327,1.00000000289413,0.538123688815414
18500.0000000113,8.77464082718852,1.00000000314928,0.54822945552849
18600.0000000098,9.18625929276812,1.00000000345015,0.548679100749727
18700.0000000084,9.63559324072609,1.00000000361594,0.557567522480648
18800.0000000069,10.0614454808452,1.00000000344606,0.568467001476125
18900.0000000055,10.5054093695146,1.00000000339583,0.572217849193806
19000.000000004,10.9235895085799,1.0000000034916,0.583869362514389
19100.0000000026,11.3395084482545,1.00000000347509,0.58639132873643
19200.0000000011,11.7455108107697,1.00000000352783,0.593157446908213
19299.9999999996,12.1370774337597,1.00000000347018,0.590426420083428
19399.9999999982,12.5359586042153,1.00000000357194,0.602622666808479
19499.9999999967,12.9223844846665,1.00000000347522,0.607371153610003
19599.9999999953,13.3155630289635,1.00000000375471,0.615516091285085
19699.9999999938,13.6915984174357,1.00000000357783,0.643479529580155
19799.9999999924,14.0602387688072,1.00000000351837,0.646321908912394
19899.9999999909,14.4202469876589,1.00000000358665,0.659555948028485
19999.9999999895,14.757143431621,1.00000000375698,0.650644768818419
20099.999999988,15.0863521935319,1.000000003442,0.664683817426361
20199.9999999865,15.3930088185707,1.00000000367829,0.675342128186377
20299.9999999851,15.6959964042225,1.00000000409982,0.659114441621425
20399.9999999836,15.95715135318,1.00000000387291,0.659930947065269
20499.9999999822,16.2007149348541,1.00000000348571,0.686998955043746
20599.9999999807,16.4372247536043,1.00000000357283,0.6844795787671
20699.9999999793,16.6606211637433,1.00000000375712,0.685146926285611
20799.9999999778,16.8651736249069,1.00000000369336,0.688085296350311
20899.9999999764,17.0516451024161,1.0000000036575,0.674776285245287
20999.9999999749,17.2335077920816,1.00000000373301,0.680531613589002
21099.9999999734,17.4018264078341,1.00000000350504,0.684837761570982
21199.999999972,17.5655252602795,1.00000000338219,0.692539672430353
21299.9999999705,17.7303948226175,1.00000000339927,0.697446086125886
21399.9999999691,17.8797564069664,1.00000000409068,0.695403241688165
21499.9999999676,18.0185406518828,1.000000003585,0.703577866011066
21599.9999999662,18.1436751316534,1.00000000338959,0.70661942422299
21699.9999999647,18.2807948495381,1.00000000389383,0.701917141497621
21799.9999999633,18.4298228265731,1.00000000389987,0.691352135483551
21899.9999999618,18.5805516018618,1.00000000385428,0.685496854417305
21999.9999999603,18.7157598146265,1.00000000384587,0.675933463573353
22099.9999999589,18.837160145516,1.00000000413264,0.700343700490773
22199.9999999574,18.9499886798538,1.00000000381411,0.693410478780235
22299.999999956,19.0614993425111,1.00000000345769,0.683264630628401
22399.9999999545,19.189399932799,1.00000000334848,0.687032062627891
22499.9999999531,19.3167422803511,1.00000000410241,0.694308601557109
22599.9999999516,19.4326878694412,1.00000000364199,0.685056898986535
22699.9999999502,19.5364491441521,1.00000000366353,0.694776594155228
22799.9999999487,19.634232973892,1.00000000341823,0.693832039535776
22899.9999999473,19.7347472727333,1.00000000387947,0.684682720893889
22999.9999999458,19.836092733255,1.00000000359033,0.668235205032884
23099.9999999443,19.9371155102781,1.000000004135,0.687355796534787
23199.9999999429,20.0272814295752,1.00000000367469,0.69160385299525
23299.9999999414,20.1180865027253,1.00000000396566,0.688936250990592
23399.99999994,20.2195292980027,1.00000000362059,0.671655211444356
23499.9999999385,20.3303619781244,1.00000000360201,0.676164269893675
23599.9999999371,20.4393273952599,1.00000000366281,0.689065674835244
23699.9999999356,20.5444675083248,1.0000000038174,0.675651738984731
23799.9999999342,20.6471755170491,1.0000000040652,0.671677567050992
23899.9999999327,20.7436751879991,1.00000000415834,0.681401127738143
23999.9999999312,20.8425705440631,1.00000000392631,0.690640268981904
24099.9999999298,20.9359951029972,1.00000000403173,0.695458169191672
24199.9999999283,21.031073838316,1.00000000382397,0.679842559344723
24299.9999999269,21.1252599131688,1.00000000424244,0.675550231105003
24399.9999999254,21.2097290915727,1.00000000374588,0.671953221058881
24499.999999924,21.3047991086478,1.00000000340352,0.665870356733051
24599.9999999225,21.4025636855781,1.00000000421094,0.665484715546191
24699.9999999211,21.4972032998609,1.00000000421633,0.670688365335867
24799.9999999196,21.5900210783388,1.00000000368795,0.659381571781351
24899.9999999181,21.6831593025732,1.00000000390253,0.683825014697747
24999.9999999167,21.7726869508963,1.00000000397283,0.686274219416125
25099.9999999152,21.862591337406,1.00000000376307,0.680270933838008
25199.9999999138,21.9488129915777,1.00000000432418,0.69986376677006
25299.9999999123,22.0375254774335,1.00000000351837,0.685824812428781
25399.9999999109,22.1316068865136,1.0000000041508,0.689173881404909
25499.9999999094,22.2279754690783,1.00000000377351,0.691206204350524
25599.999999908,22.330104235756,1.00000000384062,0.68845839187068
25699.9999999065,22.4296256236898,1.00000000476499,0.693090934186427
25799.9999999051,22.5094795538668,1.00000000421503,0.684654434035734
25899.9999999036,22.5801631615288,1.00000000426314,0.685321363558593
25999.9999999021,22.6477992971955,1.00000000404773,0.691742226534836
26099.9999999007,22.7222779558366,1.00000000413794,0.692118010442937
26199.9999998992,22.8064743198822,1.00000000402318,0.693755129914765
26299.9999998978,22.9090840017263,1.00000000387972,0.681399564706564
26399.9999998963,23.023722191301,1.00000000415262,0.662120625213178
26499.9999998949,23.1456197115712,1.00000000415087,0.684744018366448
26599.9999998934,23.2855178403823,1.00000000398033,0.687017493110392
26699.999999892,23.430471617603,1.00000000436656,0.701090254599598
26799.9999998905,23.5766521092609,1.00000000407048,0.708058533960009
26899.999999889,23.7109042295315,1.00000000435465,0.702541766406085
26999.9999998876,23.8319158444757,1.00000000469275,0.701545347174335
27099.9999998861,23.9450252129902,1.00000000400164,0.687855024416892
27199.9999998847,24.0639283783734,1.00000000380894,0.68793955321835
27299.9999998832,24.1891874801458,1.00000000447066,0.704162698279201
27399.9999998818,24.3056938797953,1.00000000454542,0.702124793188585
27499.9999998803,24.421851441834,1.00000000410586,0.702097410885361
27599.9999998789,24.5363469127503,1.00000000409522,0.686645211080097
27699.9999998774,24.6639951478458,1.000000004086,0.675895973560864
27799.9999998759,24.7950257658321,1.00000000448691,0.684608621103518
27899.9999998745,24.933877422896,1.00000000366695,0.672520474639451
27999.999999873,25.0846404301222,1.00000000402853,0.683942883148033
28099.9999998716,25.2289743312907,1.00000000409821,0.6857383908288
28199.9999998701,25.359713452257,1.00000000450943,0.685022247821717
28299.9999998687,25.483622711169,1.00000000461122,0.679706967066028
28399.9999998672,25.6135068855202,1.00000000409053,0.65412113207557
28499.9999998658,25.7508325561036,1.00000000414827,0.653221391285446
28599.9999998643,25.8894297377033,1.00000000410012,0.658520574699261
28699.9999998629,26.0272965055372,1.00000000422569,0.67605922649189
28799.9999998614,26.1568489538739,1.00000000470248,0.672898619664324
28899.9999998599,26.2893044398371,1.00000000415102,0.69351362272142
28999.9999998585,26.4205720903194,1.00000000427088,0.695898244194853
29099.999999857,26.5457854011334,1.00000000431525,0.693233692244163
