Time,AGPnorm,Energy,Entropy
0,0,1,-7.59898529940678e-17
99.9999999999986,0.000829272720350104,0.999999999997767,0.00286598351232213
199.999999999993,0.00573385141858285,0.999999999997863,0.00847312982611464
300,0.0116381388242766,1.00000000000027,0.0157973950730808
400.000000000022,0.0173906595610878,1.00000000000086,0.0251126594121342
500.000000000045,0.0251273184750697,0.999999999998465,0.0363147058560087
600.000000000068,0.0351449158705892,0.99999999999727,0.0489679838016228
700.000000000091,0.0452526685080959,0.99999999999933,0.0630317289012374
800.000000000113,0.055931430075734,1.00000000000114,0.0788092012953013
900.000000000136,0.0673937248325774,0.999999999999584,0.0965323496230327
1000.00000000016,0.0800754691147323,0.999999999997545,0.116275367842604
1100.0000000001,0.0926769944051144,0.999999999998562,0.138558588444273
1200,0.105342087407889,1.00000000000284,0.16454584422637
1299.99999999991,0.117323052159262,1.00000000001156,0.195496608848007
1399.99999999982,0.129036225343903,1.00000000004556,0.23182852683781
1499.99999999973,0.143464894522472,1.00000000011198,0.272084871906105
1599.99999999964,0.178859253078301,1.00000000023984,0.312702465512753
1699.99999999955,0.24970853455016,1.00000000038325,0.351183866992867
1799.99999999946,0.392135577034329,1.00000000048872,0.385868083263485
1899.99999999937,0.684465664305461,1.00000000068935,0.416015099324859
1999.99999999928,1.20669144591484,1.00000000078412,0.442102831532055
2099.99999999919,2.00900212605353,1.00000000092906,0.465378768468823
2199.99999999909,3.15580947129733,1.00000000101102,0.485400308585564
2299.999999999,4.72491960761129,1.00000000109437,0.502158273464816
2399.99999999891,6.73897743220507,1.00000000114567,0.515785816100865
2499.99999999882,9.17173244179037,1.0000000011793,0.528044492913629
2599.99999999873,12.0284822186453,1.0000000012537,0.538175334344992
2699.99999999864,15.3203353134698,1.00000000119742,0.546398930520983
2799.99999999855,18.9943543866786,1.00000000121782,0.552199050991463
2899.99999999846,22.9545850151579,1.00000000130563,0.557569366456768
2999.99999999837,27.152462233378,1.00000000132254,0.561710731117858
3099.99999999828,31.5705592651555,1.00000000120285,0.564657464131428
3199.99999999819,36.146593100306,1.00000000116169,0.566216370518983
3299.99999999809,40.7784096070911,1.00000000115006,0.567618279215472
3399.999999998,45.3950223266346,1.00000000113688,0.569014159855414
3499.99999999791,49.9806086819529,1.00000000115826,0.568802594758098
3599.99999999782,54.5006291531003,1.0000000010773,0.56796456012207
3699.99999999773,58.8881359894274,1.00000000106781,0.566177069641237
3799.99999999764,63.0851965384856,1.00000000104896,0.56607053859169
3899.99999999755,67.0669214559653,1.00000000100868,0.565884275140705
3999.99999999746,70.8324211995169,1.00000000095296,0.563254314478637
4099.99999999738,74.3623485415775,1.00000000095563,0.560252418186962
4199.99999999775,77.6148070977969,1.00000000090692,0.561303423285316
4299.99999999811,80.5755985321367,1.00000000087574,0.558482003584721
4399.99999999848,83.2600554479278,1.00000000085863,0.555598527133198
4499.99999999884,85.6693586702395,1.00000000086725,0.555601777089606
4599.9999999992,87.7980015634684,1.00000000084041,0.551045607236699
4699.99999999957,89.6363446308447,1.00000000079017,0.551640047645902
4799.99999999993,91.1992056948757,1.00000000076211,0.552853159744493
4900.00000000029,92.5036562803949,1.00000000076897,0.544178653229443
5000.00000000066,93.5525599196464,1.00000000073734,0.547079146169384
5100.00000000102,94.3738824380637,1.00000000079211,0.555349790369855
5200.00000000139,94.968541191062,1.00000000069126,0.537232187616496
5300.00000000175,95.3279953062998,1.00000000064686,0.541013235023623
5400.00000000211,95.5196710936464,1.00000000075321,0.561361803160193
5500.00000000248,95.5647133532067,1.00000000063609,0.535328101697833
5600.00000000284,95.4048738200687,1.00000000053675,0.518735309888137
5700.00000000321,95.0911045688675,1.00000000077052,0.560185840202104
5800.00000000357,94.7193501790682,1.00000000079732,0.55959440731094
5900.00000000393,94.2375606226675,1.00000000051609,0.50672001465476
6000.0000000043,93.5923825360033,1.00000000052416,0.510991910405974
6100.00000000466,92.8815179690207,1.00000000088083,0.569667226879558
6200.00000000502,92.1809618764756,1.00000000082933,0.560507541291938
6300.00000000539,91.4207675513761,1.00000000050854,0.490550988315719
6400.00000000575,90.5361477072572,1.0000000004504,0.477433348701665
6500.00000000612,89.6030224215917,1.00000000083544,0.555464453433324
6600.00000000648,88.7139042397375,1.00000000101886,0.575190645213276
6700.00000000684,87.8458195153998,1.00000000076087,0.52004022859274
6800.00000000721,86.9137584172022,1.00000000039795,0.442595524968268
6900.00000000757,85.9066386658837,1.00000000051639,0.474682614304361
7000.00000000793,84.9015881523012,1.00000000090036,0.557112997219234
7100.0000000083,83.9538966058403,1.00000000105145,0.572604773362428
7200.00000000866,83.0461351032943,1.00000000081825,0.522237806630587
7300.00000000903,82.1154261882938,1.00000000043203,0.435966285509089
7400.00000000939,81.1370507989144,1.00000000043392,0.42690562085618
7500.00000000975,80.1442358669899,1.00000000075697,0.503542404606662
7600.00000001012,79.1829106852505,1.00000000102004,0.558707484234191
7700.00000001048,78.2718929038461,1.00000000099448,0.555034264424103
7800.00000001084,77.3915143769606,1.00000000073447,0.509355500023649
7900.00000001121,76.5076978823219,1.00000000048648,0.440779059967609
8000.00000001157,75.6079007356267,1.00000000043397,0.417487622427981
8100.00000001194,74.7040420462085,1.00000000059991,0.459746628995351
8200.0000000123,73.8153737054863,1.00000000084431,0.518232741918246
8300.00000001266,72.954697277946,1.00000000094249,0.543302866425535
8400.00000001303,72.1249458607854,1.00000000090107,0.541154247061241
8500.00000001339,71.316038829762,1.00000000073166,0.505301186893281
8600.00000001376,70.5161377084711,1.00000000058898,0.458344777634199
8700.00000001412,69.7248985262946,1.00000000053329,0.434080281315948
8800.00000001448,68.9472984725575,1.00000000056359,0.450785471767808
8900.00000001485,68.1844076128459,1.00000000067063,0.477349463474836
9000.00000001521,67.4365885525975,1.00000000075425,0.508901784231456
9100.00000001557,66.7041637673799,1.00000000083732,0.526697193809941
9200.00000001594,65.9869335056253,1.00000000094418,0.534900437004308
9300.0000000163,65.2851739402152,1.00000000079993,0.528442252611148
9400.00000001667,64.5996882106454,1.0000000006069,0.483440441601217
9500.00000001703,63.9334601730906,1.00000000050863,0.451855332178615
9600.00000001739,63.289462216095,1.00000000060496,0.453824889267052
9700.00000001776,62.665944573871,1.00000000069645,0.471884354138545
9800.00000001812,62.0588309285688,1.00000000069578,0.489456215185948
9900.00000001848,61.4678545552994,1.0000000006381,0.490320433515006
10000.0000000188,60.8927696854802,1.00000000065818,0.497755653486278
10100.0000000192,60.3290124779307,1.00000000079001,0.515927590454973
10200.0000000196,59.7680125458486,1.00000000097033,0.535038833177881
10300.0000000199,59.2090769728637,1.00000000089525,0.5398612159012
10400.0000000203,58.6612910569991,1.00000000064583,0.50796994759033
10500.0000000207,58.1363799944651,1.00000000045217,0.465473287404078
10600.000000021,57.6414772587928,1.00000000050905,0.448986308846075
10700.0000000214,57.1704149464165,1.00000000065025,0.461066275347499
10800.0000000218,56.7129058496035,1.00000000078352,0.479292416444774
10900.0000000221,56.2632716920628,1.00000000081379,0.500690355859852
11000.0000000225,55.8234339119501,1.00000000063308,0.499437536147403
11100.0000000229,55.3997188616732,1.00000000059694,0.48759462455349
11200.0000000232,54.9931295159053,1.00000000059212,0.495018106120101
11300.0000000236,54.5956925469738,1.00000000071807,0.5117863895445
11400.0000000239,54.1963249941856,1.00000000092403,0.528686604732983
11500.0000000243,53.7892393184707,1.00000000095182,0.539792665505127
11600.0000000247,53.3787776457766,1.00000000081641,0.535135748768005
11700.000000025,52.9770526773158,1.00000000067645,0.513687575002461
11800.0000000254,52.5972753127476,1.00000000058611,0.482112455125729
11900.0000000258,52.2473171415452,1.00000000054601,0.465193928122042
12000.0000000261,51.9250770848914,1.00000000058962,0.464186892030722
12100.0000000265,51.6212086236442,1.0000000006883,0.476185081195249
12200.0000000269,51.3249714864583,1.00000000079867,0.491255961891679
12300.0000000272,51.0324434917075,1.00000000075359,0.494561360806619
12400.0000000276,50.744327738384,1.00000000072377,0.50395341567558
12500.0000000279,50.4628170831207,1.0000000007111,0.51245446400432
12600.0000000283,50.1883874429268,1.00000000067418,0.517891341816654
12700.0000000287,49.9213724963596,1.00000000067726,0.527591658277916
12800.000000029,49.6592587492359,1.00000000066616,0.528763185961184
12900.0000000294,49.4004049654662,1.0000000007079,0.52548231653456
13000.0000000298,49.1410147093897,1.00000000075586,0.522304698277312
13100.0000000301,48.8766792389384,1.00000000084091,0.531588052538297
13200.0000000305,48.6039794914413,1.00000000087579,0.546340555354154
13300.0000000309,48.3294331606475,1.00000000080364,0.542832100828348
13400.0000000312,48.0673693084931,1.00000000060561,0.519521222216375
13500.0000000316,47.8298302770032,1.00000000054069,0.493258118551736
13600.0000000319,47.6194697345699,1.00000000056182,0.478545457668422
13700.0000000323,47.4312510368272,1.00000000065456,0.488225804214282
13800.0000000327,47.2563854719167,1.00000000069776,0.492639249198884
13900.000000033,47.0892496561683,1.00000000069222,0.488622000213435
14000.0000000334,46.9280552369569,1.00000000073088,0.498694490046207
14100.0000000338,46.7737366288725,1.00000000065616,0.504864517838129
14200.0000000341,46.6315012207311,1.00000000061079,0.499167462787855
14300.0000000345,46.5008680892801,1.00000000063274,0.50596500531231
14400.0000000349,46.3706016826142,1.00000000078187,0.522672767152513
14500.0000000352,46.2293531977787,1.0000000009101,0.539608849541264
14600.0000000356,46.0738156702032,1.00000000083832,0.548164738688624
14700.0000000359,45.9076291243835,1.00000000073705,0.551920084171783
14800.0000000363,45.7382558345917,1.00000000064684,0.550079719780547
14900.0000000367,45.5732073826101,1.00000000060113,0.5383068303886
15000.000000037,45.416398675034,1.00000000061202,0.529844013276166
15100.0000000374,45.2652472209307,1.00000000075152,0.524060556304728
15200.0000000378,45.1120661548782,1.00000000079129,0.525770301505877
15300.0000000381,44.9520073647118,1.00000000086954,0.538415731691762
15400.0000000385,44.7825303585817,1.00000000085722,0.549336150312039
15500.0000000389,44.6090276169609,1.00000000076773,0.550399142462861
15600.0000000392,44.4424513173592,1.00000000068128,0.54074554728095
15700.0000000396,44.2942321830457,1.00000000060342,0.522210073924232
15800.0000000399,44.1702745467445,1.00000000059833,0.507584077654309
15900.0000000403,44.0695148573554,1.00000000060189,0.496288721623559
16000.0000000407,43.9879353197745,1.0000000006399,0.497328333769467
16100.000000041,43.9176336700303,1.00000000066836,0.497022353875108
16200.0000000414,43.8490712177563,1.0000000007337,0.500918949335277
16300.0000000418,43.7830175141117,1.00000000068118,0.498798619621697
16400.0000000418,43.7240221458593,1.00000000064943,0.498441949113196
16500.0000000404,43.6719253298876,1.00000000069118,0.507924542229485
16600.0000000389,43.6227146726292,1.00000000069476,0.523493774412797
16700.0000000375,43.5735044704326,1.00000000074735,0.535144350423483
16800.000000036,43.5279242948788,1.00000000069389,0.53805417218838
16900.0000000346,43.4874596111309,1.0000000006713,0.542608256297068
17000.0000000331,43.4516590919576,1.00000000067826,0.543973079177726
17100.0000000317,43.4144100048011,1.00000000068899,0.543526305826902
17200.0000000302,43.3686911835735,1.00000000075327,0.549137802606385
17300.0000000287,43.307758967544,1.00000000075522,0.549664099970593
17400.0000000273,43.2286583241977,1.00000000077395,0.545207820618525
17500.0000000258,43.1339875598473,1.00000000078844,0.553190493678293
17600.0000000244,43.0293897850706,1.00000000081593,0.565972512077145
17700.0000000229,42.919626989221,1.00000000071105,0.567591102835529
17800.0000000215,42.8096359267863,1.0000000006356,0.558970528187139
17900.00000002,42.7052816632467,1.0000000006452,0.55279120754738
18000.0000000186,42.6081919432855,1.00000000062915,0.546257923786929
18100.0000000171,42.5168916112463,1.00000000065622,0.540316960188897
18200.0000000156,42.4273069397472,1.00000000072683,0.538750253466809
18300.0000000142,42.3350190977503,1.00000000078791,0.547262259687222
18400.0000000127,42.2380554587594,1.00000000087341,0.558171384051225
18500.0000000113,42.1341553963859,1.00000000080247,0.563260427879137
18600.0000000098,42.0264401739775,1.00000000075195,0.564526385473317
18700.0000000084,41.9235238164122,1.0000000006647,0.557846976799592
18800.0000000069,41.8345387436505,1.00000000062546,0.545222198393383
18900.0000000055,41.7646880736988,1.0000000005984,0.535866297694175
19000.000000004,41.7160875368567,1.0000000006151,0.523881007567791
19100.0000000026,41.6862755768382,1.00000000066723,0.5148053995093
19200.0000000011,41.6690071630439,1.00000000074341,0.510863048178959
19299.9999999996,41.6573639990995,1.00000000072698,0.517175500183967
19399.9999999982,41.6516129508352,1.00000000068731,0.51530549298013
19499.9999999967,41.6527012937366,1.00000000067282,0.508849052320429
19599.9999999953,41.658509753022,1.0000000007181,0.505820649605334
19699.9999999938,41.6665169992416,1.00000000070961,0.510817677605901
19799.9999999924,41.678854078772,1.00000000066563,0.509537780764459
19899.9999999909,41.6978391240704,1.00000000066398,0.505006062000053
19999.9999999895,41.7237753027995,1.00000000068968,0.513539591902184
20099.999999988,41.7507216648566,1.00000000072764,0.533359410162533
20199.9999999865,41.7719123207873,1.0000000007836,0.548379564539316
20299.9999999851,41.7837023451013,1.00000000073191,0.553128594628268
20399.9999999836,41.7876089933985,1.00000000074887,0.564012297338289
20499.9999999822,41.789507345472,1.00000000071705,0.57026039116662
20599.9999999807,41.7935465775214,1.00000000070097,0.56925050194829
20699.9999999793,41.7973760311181,1.00000000070923,0.569921875786046
20799.9999999778,41.7969484793499,1.00000000074676,0.578888868797418
20899.9999999764,41.7914539447307,1.00000000073802,0.591459604128172
20999.9999999749,41.7822411028551,1.0000000007089,0.593066842698348
21099.9999999734,41.7673229499527,1.00000000073889,0.590860967706722
21199.999999972,41.744239378766,1.00000000076562,0.587708953869512
21299.9999999705,41.7133123238141,1.0000000007417,0.584733434215067
21399.9999999691,41.6746865118714,1.00000000075093,0.57873615416469
21499.9999999676,41.6275018575468,1.00000000076453,0.571028061636096
21599.9999999662,41.5718176478477,1.00000000078363,0.563549876297438
21699.9999999647,41.5072600651564,1.00000000078752,0.569043528285971
21799.9999999633,41.4330793353222,1.00000000084936,0.584654077743627
21899.9999999618,41.3506589665497,1.00000000081282,0.588457867781661
21999.9999999603,41.2629202611361,1.00000000075297,0.587964318484805
22099.9999999589,41.1746044901012,1.00000000066361,0.586121655404663
22199.9999999574,41.0893227068783,1.00000000065547,0.586340286597645
22299.999999956,41.0082242223103,1.00000000064953,0.586622204901639
22399.9999999545,40.9317320598865,1.00000000064035,0.589980553131347
22499.9999999531,40.8588435550689,1.00000000065404,0.586455110844735
22599.9999999516,40.7893844228586,1.00000000068331,0.584400767989617
22699.9999999502,40.7223130731728,1.00000000071509,0.586681075732327
22799.9999999487,40.6556035950066,1.00000000075814,0.58460920403259
22899.9999999473,40.5880353418074,1.00000000082114,0.57840154438211
22999.9999999458,40.5175002040029,1.00000000077778,0.571764747754132
23099.9999999443,40.4437114704759,1.00000000087318,0.570558885885578
23199.9999999429,40.3666141894355,1.00000000082298,0.570520260693333
23299.9999999414,40.2899716166017,1.00000000073083,0.566833209282401
23399.99999994,40.2196775658665,1.0000000006754,0.565071092276783
23499.9999999385,40.1609796704616,1.0000000006308,0.563678702228176
23599.9999999371,40.1177860293063,1.00000000061613,0.555444813991496
23699.9999999356,40.0913707671093,1.00000000062604,0.54888388833093
23799.9999999342,40.0805770804748,1.00000000062737,0.542601558933355
23899.9999999327,40.082981356427,1.00000000063784,0.536263542396099
23999.9999999312,40.0949399321582,1.00000000073074,0.531286376125267
24099.9999999298,40.1134728883036,1.00000000069325,0.53260260804035
24199.9999999283,40.1376423613416,1.00000000069887,0.52881485364136
24299.9999999269,40.1673888438021,1.00000000070298,0.526767514929831
24399.9999999254,40.2007337880244,1.00000000074382,0.525961453871901
24499.999999924,40.2369695637101,1.00000000071927,0.528671638522307
24599.9999999225,40.2791967808082,1.00000000066539,0.527201269632723
24699.9999999211,40.3284320144693,1.00000000067515,0.522069485071378
24799.9999999196,40.3831682100102,1.00000000068144,0.520257812429439
24899.9999999181,40.4396225223729,1.00000000071848,0.525447840307905
24999.9999999167,40.4935339207085,1.00000000078963,0.535056941036637
25099.9999999152,40.5424708031162,1.00000000078637,0.545212013182439
25199.9999999138,40.5860068024918,1.00000000069392,0.552930811525603
25299.9999999123,40.626321061864,1.00000000075411,0.56579123571164
25399.9999999109,40.6636379391846,1.00000000073471,0.570532412842677
25499.9999999094,40.6977950217179,1.00000000077746,0.578588851622597
25599.999999908,40.7281591050499,1.0000000007413,0.580937006781323
25699.9999999065,40.7553755410134,1.00000000072249,0.582452541628022
25799.9999999051,40.7801497868372,1.00000000069345,0.58593017698281
25899.9999999036,40.8029671166077,1.00000000072329,0.586952444055452
25999.9999999021,40.823822406499,1.00000000076273,0.590887537129925
26099.9999999007,40.8407250111179,1.00000000075878,0.593900265171603
26199.9999998992,40.8522116578901,1.00000000077068,0.594845470148089
26299.9999998978,40.8580460207581,1.00000000078804,0.594136375279706
26399.9999998963,40.8582441303158,1.00000000077033,0.590962776125547
26499.9999998949,40.8548147505712,1.00000000072735,0.595967912339655
26599.9999998934,40.8501488335875,1.00000000073971,0.599432783490751
26699.999999892,40.8450302779678,1.00000000071461,0.592540205357413
26799.9999998905,40.8388360890199,1.00000000074415,0.593102128790622
26899.999999889,40.8294994738348,1.00000000074769,0.593458612735397
26999.9999998876,40.8161832499076,1.00000000072606,0.595049519699272
27099.9999998861,40.7998206529504,1.00000000074275,0.591015892464309
27199.9999998847,40.781040444115,1.00000000073343,0.582994769695303
27299.9999998832,40.7596193395727,1.00000000075507,0.580203256922146
27399.9999998818,40.7344702422028,1.00000000076144,0.575434948441586
27499.9999998803,40.7055727560284,1.00000000075161,0.577048853610081
27599.9999998789,40.6714928392515,1.00000000076542,0.586548661910934
27699.9999998774,40.632318127367,1.00000000079854,0.590484226413095
27799.9999998759,40.5901345081954,1.00000000077737,0.597677593075511
27899.9999998745,40.5452943591413,1.00000000074176,0.600323889946841
27999.999999873,40.4998881804184,1.00000000069369,0.596660863633655
28099.9999998716,40.4545886632584,1.0000000007259,0.596776473402103
28199.9999998701,40.4087662896359,1.00000000071192,0.599272007685861
28299.9999998687,40.3625311816936,1.00000000072882,0.596238870059131
28399.9999998672,40.3169078634059,1.00000000071603,0.58838386666201
28499.9999998658,40.2707863436064,1.00000000073146,0.584781795714137
28599.9999998643,40.221604922244,1.00000000077097,0.58644314283182
28699.9999998629,40.1684184872453,1.00000000077069,0.588921261450758
28799.9999998614,40.1107951775149,1.00000000079012,0.592064086311169
28899.9999998599,40.0490253086412,1.00000000080126,0.593191004136742
28999.9999998585,39.9828805868044,1.00000000078989,0.593768389946296
