Time,AGPnorm,Energy,Entropy
0,0,1,-1.03310504748031e-17
99.9999999999986,9.25030398723168e-06,0.999999999998418,0.0004592240667841
199.999999999993,0.00085581561255688,0.999999999998977,0.000738691330816534
300,0.00213726365075313,0.999999999999725,0.00129354251221598
400.000000000022,0.00295607108103247,0.999999999998028,0.00225077827228523
500.000000000045,0.00356118446210283,0.999999999999852,0.00303181418539162
600.000000000068,0.0051227666317602,0.999999999998755,0.00423870898136199
700.000000000091,0.00635781132534962,0.999999999998613,0.00547789295453365
800.000000000113,0.00813493262191906,0.999999999999955,0.00673937182842981
900.000000000136,0.0102348708691723,0.999999999998044,0.00834047559159896
1000.00000000016,0.0119528271872154,0.999999999999576,0.00983528566121081
1100.0000000001,0.0144466512540368,0.999999999999145,0.0115366896919522
1200,0.016954075315785,0.999999999998309,0.0133811438284148
1299.99999999991,0.0194807306643435,1.00000000000003,0.0151748280818792
1399.99999999982,0.0224437005913687,0.999999999998206,0.0172348257590129
1499.99999999973,0.0253184331768623,0.999999999999234,0.0192718392468042
1599.99999999964,0.0287923284421939,0.999999999999524,0.0213867484239209
1699.99999999955,0.0323356075943312,0.999999999998101,0.0237016184728356
1799.99999999946,0.0356307229439972,0.999999999999959,0.0259572318735055
1899.99999999937,0.0393820971723738,0.999999999998496,0.0283965324489773
1999.99999999928,0.0432658434133817,0.999999999998882,0.0309016371328138
2099.99999999919,0.0475066904752306,0.999999999999819,0.0334103759116555
2199.99999999909,0.0518972499586156,0.999999999998002,0.0361301777494121
2299.999999999,0.0560195379463344,0.999999999999752,0.0388160043795084
2399.99999999891,0.0605599513369299,0.99999999999888,0.0416154848112198
2499.99999999882,0.0652512208775536,0.999999999998564,0.0445561013399561
2599.99999999873,0.0699998692713023,0.999999999999977,0.0474706895536655
2699.99999999864,0.0750007436231727,0.999999999998052,0.0505731459278896
2799.99999999855,0.0799532698919636,0.999999999999453,0.0536940649572496
2899.99999999846,0.0852253872397101,0.999999999999281,0.0568774390572421
2999.99999999837,0.0905599488730734,0.999999999998295,0.0602501649670676
3099.99999999828,0.0956730132754507,0.999999999999991,0.0636027748209256
3199.99999999819,0.101091827497289,0.999999999998278,0.0671038397072975
3299.99999999809,0.106723666029056,0.999999999999131,0.0707030982248702
3399.999999998,0.112515568881377,0.999999999999613,0.0743292481963802
3499.99999999791,0.118335386657002,0.999999999998078,0.0781708246884678
3599.99999999782,0.123803887693603,0.999999999999877,0.0820189141960092
3699.99999999773,0.129586275509185,0.999999999998642,0.0859926017209578
3799.99999999764,0.135642313591727,0.999999999998845,0.090146653512575
3899.99999999755,0.141677785111126,0.99999999999982,0.0943176330503218
3999.99999999746,0.147764635728409,0.999999999997969,0.0987200840524135
4099.99999999738,0.153627597282853,0.999999999999636,0.103188053833949
4199.99999999775,0.159751603206799,0.999999999999051,0.107782046998274
4299.99999999811,0.166006227872682,0.999999999998615,0.112632277542855
4399.99999999848,0.17207172140036,0.999999999999905,0.117530881023643
4499.99999999884,0.178213244074461,0.999999999998106,0.12268373662073
4599.9999999992,0.184391671751708,0.999999999999357,0.128018756913549
4699.99999999957,0.190741810983805,0.999999999999466,0.133515044938319
4799.99999999993,0.19701961821512,0.999999999998473,0.139373670545944
4900.00000000029,0.203016420086351,1.00000000000011,0.145359766955601
5000.00000000066,0.209179480129989,0.999999999998785,0.151683281931777
5100.00000000102,0.215414260732731,0.999999999999644,0.158371890946387
5200.00000000139,0.221924033051393,1.00000000000068,0.165322708473353
5300.00000000175,0.228028577440846,0.999999999999759,0.172766989329996
5400.00000000211,0.234023154529259,1.00000000000249,0.180452199235828
5500.00000000248,0.240735114386512,1.00000000000291,0.188533554187512
5600.00000000284,0.246737769251828,1.00000000000516,0.197056308104047
5700.00000000321,0.254300658542833,1.00000000000855,0.205802018640712
5800.00000000357,0.261270102729338,1.00000000001023,0.214911990516306
5900.00000000393,0.268680610016251,1.00000000001579,0.224158766978396
6000.0000000043,0.280202120109774,1.00000000002075,0.233496583177287
6100.00000000466,0.290223352285787,1.0000000000241,0.243072540977027
6200.00000000502,0.306731911948731,1.00000000003203,0.252473526457433
6300.00000000539,0.327548284277006,1.00000000003679,0.261926950468117
6400.00000000575,0.352090678264725,1.00000000004621,0.271323460727256
6500.00000000612,0.392873129152569,1.000000000055,0.28049737217556
6600.00000000648,0.439418464537447,1.00000000006407,0.289697046461455
6700.00000000684,0.505373715451171,1.00000000007266,0.29853595868942
6800.00000000721,0.595617786564004,1.00000000008349,0.307251075784095
6900.00000000757,0.703542324798714,1.00000000009231,0.315914242802221
7000.00000000793,0.85354472020598,1.00000000010169,0.324246093997329
7100.0000000083,1.03582438588813,1.0000000001113,0.332542781934665
7200.00000000866,1.26240213396424,1.00000000012112,0.340522090796861
7300.00000000903,1.55219898135684,1.00000000012895,0.34828221360727
7400.00000000939,1.89116841016121,1.0000000001409,0.356038106771655
7500.00000000975,2.3103540822949,1.00000000014465,0.363443178671502
7600.00000001012,2.80926415045541,1.00000000015058,0.370728545485039
7700.00000001048,3.38898358884998,1.00000000015959,0.377851924634325
7800.00000001084,4.08245263658423,1.00000000017539,0.384569884223399
7900.00000001121,4.87322787177427,1.00000000018015,0.391427173090304
8000.00000001157,5.78701769488373,1.00000000019305,0.397797023152855
8100.00000001194,6.83877649014939,1.0000000001992,0.404072880868822
8200.0000000123,8.01514064318073,1.00000000021284,0.410276027236709
8300.00000001266,9.35476898054806,1.00000000021301,0.416128172007051
8400.00000001303,10.8478476260224,1.00000000022108,0.421971699452987
8500.00000001339,12.5027379564817,1.0000000002301,0.427513636238601
8600.00000001376,14.3500448459507,1.00000000023394,0.432777030493443
8700.00000001412,16.3664336271418,1.00000000024667,0.438132109148327
8800.00000001448,18.5841796272752,1.00000000024622,0.443097297754423
8900.00000001485,21.0075181959564,1.00000000024995,0.447991039293041
9000.00000001521,23.6224702246311,1.00000000025904,0.45276423693295
9100.00000001557,26.4682114075614,1.00000000026565,0.457171480068357
9200.00000001594,29.5216650908527,1.00000000027081,0.46175320912511
9300.0000000163,32.7970544322879,1.00000000027076,0.465907931657122
9400.00000001667,36.3150956509837,1.00000000027268,0.469959694578335
9500.00000001703,40.0440915047068,1.00000000028236,0.474010617615371
9600.00000001739,44.0204167876715,1.0000000002908,0.477649856491637
9700.00000001776,48.2313716557965,1.00000000028432,0.481495222770858
9800.00000001812,52.667407333317,1.00000000029113,0.484944750164807
9900.00000001848,57.3615245255605,1.00000000028874,0.488269315223885
10000.0000000188,62.2754104948133,1.00000000029241,0.491663046596904
10100.0000000192,67.4311448873448,1.00000000029341,0.494680894622647
10200.0000000196,72.8327238651735,1.00000000030175,0.497668072991398
10300.0000000199,78.44841086434,1.00000000029446,0.500718101890226
10400.0000000203,84.3148449894359,1.00000000030521,0.503280038041277
10500.0000000207,90.399689812546,1.00000000030349,0.506109100694199
10600.000000021,96.7036210130036,1.00000000030769,0.50849057940579
10700.0000000214,103.247060637078,1.00000000030068,0.510932595551284
10800.0000000218,109.98388327287,1.00000000029859,0.513407666952722
10900.0000000221,116.945066783247,1.00000000030373,0.51540072390792
11000.0000000225,124.112586428438,1.00000000031147,0.51773402639518
11100.0000000229,131.464791566346,1.00000000031688,0.519629912717566
11200.0000000232,139.033194497467,1.00000000030268,0.521453565927823
11300.0000000236,146.768976743313,1.00000000030596,0.523582993019289
11400.0000000239,154.689667031193,1.00000000031296,0.525041474911205
11500.0000000243,162.793161218673,1.00000000030019,0.526879861063594
11600.0000000247,171.042455960742,1.00000000031144,0.528503192918721
11700.000000025,179.47063247092,1.00000000030262,0.529718276738475
11800.0000000254,188.036338623804,1.00000000030613,0.531460217080679
11900.0000000258,196.739849725628,1.00000000030414,0.532710618161696
12000.0000000261,205.594989607462,1.00000000030727,0.533682471862259
12100.0000000265,214.554223083501,1.00000000030303,0.535411276339065
12200.0000000269,223.647371766566,1.00000000028851,0.53620873711976
12300.0000000272,232.84635733902,1.00000000030887,0.537239065929796
12400.0000000276,242.133969050558,1.00000000029498,0.53853616824111
12500.0000000279,251.535773078919,1.00000000029553,0.538941512380142
12600.0000000283,261.001614551615,1.00000000030903,0.540075671079697
12700.0000000287,270.551492128207,1.00000000029977,0.541067025574107
12800.000000029,280.176328466807,1.00000000029831,0.541460086409954
12900.0000000294,289.840784448564,1.00000000029166,0.542428786346582
13000.0000000298,299.578636984828,1.00000000029266,0.542864792756784
13100.0000000301,309.345394049617,1.00000000029362,0.543554751048465
13200.0000000305,319.146547171161,1.00000000028502,0.544167880125546
13300.0000000309,328.988996390199,1.00000000028328,0.544403665691012
13400.0000000312,338.831088578385,1.00000000028707,0.544998775270677
13500.0000000316,348.701396703038,1.00000000028655,0.545556234518523
13600.0000000319,358.569834305062,1.00000000029058,0.545747477750202
13700.0000000323,368.426735781633,1.00000000027902,0.546057639327428
13800.0000000327,378.290937325785,1.00000000028288,0.546057275948428
13900.000000033,388.120142320053,1.0000000002789,0.546683264628358
14000.0000000334,397.936718505995,1.00000000028095,0.547013970113914
14100.0000000338,407.722508248041,1.00000000027192,0.546884693552581
14200.0000000341,417.458221561471,1.00000000028083,0.547097227269791
14300.0000000345,427.167327310212,1.00000000027852,0.54701716143021
14400.0000000349,436.8129999717,1.00000000027833,0.547214151248552
14500.0000000352,446.406465704682,1.00000000027251,0.547756230072564
14600.0000000356,455.945510496793,1.00000000027595,0.547510574112321
14700.0000000359,465.402113632945,1.00000000026683,0.547363950714506
14800.0000000363,474.800907450702,1.00000000028017,0.547095223199784
14900.0000000367,484.11391459823,1.00000000027249,0.547444666948346
15000.000000037,493.342131441096,1.00000000026413,0.547584446729988
15100.0000000374,502.493714761265,1.00000000025187,0.547457767370119
15200.0000000378,511.538263512607,1.00000000024835,0.54731828671766
15300.0000000381,520.498341625142,1.00000000025822,0.546910817664431
15400.0000000385,529.353304184935,1.00000000025752,0.546984078570657
15500.0000000389,538.097582149985,1.00000000025347,0.547061602564344
15600.0000000392,546.745733056199,1.00000000024878,0.546733348772476
15700.0000000396,555.268807822907,1.00000000025605,0.546764276367273
15800.0000000399,563.684403224124,1.00000000024942,0.546612679459559
15900.0000000403,571.980658847797,1.00000000024261,0.546200104432134
16000.0000000407,580.146597477419,1.00000000024835,0.546070573262949
16100.000000041,588.199340015632,1.00000000024356,0.545847076223729
16200.0000000414,596.115798891969,1.00000000025448,0.545944561979495
16300.0000000418,603.906289858101,1.0000000002389,0.545665144961891
16400.0000000418,611.567284277956,1.00000000023916,0.545745778068671
16500.0000000404,619.085736703409,1.00000000024243,0.545219266149092
16600.0000000389,626.479009357813,1.00000000024415,0.544944528733075
16700.0000000375,633.729385348033,1.00000000023631,0.544395331308131
16800.000000036,640.83920945786,1.00000000023535,0.54483178457877
16900.0000000346,647.816375489028,1.00000000022986,0.544260098699176
17000.0000000331,654.640196867288,1.00000000023221,0.544308332452151
17100.0000000317,661.330034487499,1.00000000023145,0.543464978428055
17200.0000000302,667.870376876492,1.00000000023092,0.543413131721723
17300.0000000287,674.263653520683,1.00000000023792,0.542903095221319
17400.0000000273,680.516847896889,1.00000000022248,0.542586067283533
17500.0000000258,686.61365443239,1.00000000022326,0.542449903676674
17600.0000000244,692.56769959299,1.00000000022673,0.54232838943301
17700.0000000229,698.372041673837,1.00000000022108,0.542026941259203
17800.0000000215,704.022236062372,1.00000000021741,0.541713388272793
17900.00000002,709.530314293038,1.00000000021211,0.541047807779076
18000.0000000186,714.881670222306,1.00000000021791,0.54078058046517
18100.0000000171,720.086840239763,1.00000000020654,0.540387998983548
18200.0000000156,725.14257575258,1.00000000020765,0.540303415390068
18300.0000000142,730.042192018987,1.00000000020786,0.540121408527446
18400.0000000127,734.799836227524,1.00000000021299,0.540041840480413
18500.0000000113,739.403103880666,1.0000000002082,0.539512762904328
18600.0000000098,743.858555110832,1.00000000020732,0.538980332711642
18700.0000000084,748.167859721997,1.00000000019425,0.538207314501658
18800.0000000069,752.322507062324,1.00000000019625,0.538002266754779
18900.0000000055,756.336501636562,1.00000000019632,0.537958282857625
19000.000000004,760.200017741773,1.00000000019785,0.5381153836606
19100.0000000026,763.918160433767,1.00000000020146,0.538500831921718
19200.0000000011,767.496124905623,1.00000000018814,0.538042794232087
19299.9999999996,770.924861846533,1.00000000019753,0.53742113236968
19399.9999999982,774.215795196084,1.00000000018939,0.535825374207342
19499.9999999967,777.361267804066,1.00000000018508,0.534839998973863
19599.9999999953,780.363590729856,1.00000000018452,0.534695389304602
19699.9999999938,783.229550300409,1.00000000018222,0.535294263010102
19799.9999999924,785.952853780264,1.00000000019027,0.536819204751925
19899.9999999909,788.544672508418,1.00000000018564,0.537746190432469
19999.9999999895,791.00418247183,1.00000000017856,0.538004105187724
20099.999999988,793.330216278198,1.00000000018419,0.536377039935508
20199.9999999865,795.529013664971,1.00000000017691,0.533628653154963
20299.9999999851,797.590911063614,1.00000000017916,0.531157828585208
20399.9999999836,799.521014378923,1.00000000017104,0.529876356182878
20499.9999999822,801.319334974903,1.00000000016921,0.531218085174738
20599.9999999807,802.98573724009,1.000000000173,0.534181916221518
20699.9999999793,804.534048344473,1.00000000017248,0.537908308782342
20799.9999999778,805.964966679946,1.00000000017694,0.539998693315831
20899.9999999764,807.285832892475,1.00000000018096,0.539302294600784
20999.9999999749,808.498314145232,1.00000000017619,0.535889631275576
21099.9999999734,809.593373981276,1.00000000016353,0.530397241971891
21199.999999972,810.571670370791,1.00000000016119,0.525243655945696
21299.9999999705,811.423929122952,1.00000000015842,0.523034338001494
21399.9999999691,812.151878184657,1.00000000015121,0.525724358090591
21499.9999999676,812.766039091566,1.0000000001581,0.531865949201309
21599.9999999662,813.273524667335,1.00000000016963,0.538638069507694
21699.9999999647,813.693977074883,1.00000000017656,0.543800918285667
21799.9999999633,814.032978074366,1.00000000017744,0.544468809736044
21899.9999999618,814.293271204986,1.00000000017796,0.540409780329044
21999.9999999603,814.470648403742,1.00000000016776,0.53179409183259
22099.9999999589,814.548813390436,1.00000000014966,0.521901552785951
22199.9999999574,814.520421654256,1.00000000014355,0.514418396150975
22299.999999956,814.377233790445,1.00000000013545,0.513426111853713
22399.9999999545,814.123253206723,1.00000000014056,0.520107892417932
22499.9999999531,813.777135332307,1.00000000015753,0.53115462624708
22599.9999999516,813.354843873279,1.0000000001727,0.541990102368922
22699.9999999502,812.87901196583,1.00000000019072,0.54904960720468
22799.9999999487,812.359794753773,1.00000000019575,0.550050160637192
22899.9999999473,811.79614715631,1.0000000001946,0.54422308430785
22999.9999999458,811.181460670368,1.00000000017706,0.531927686102945
23099.9999999443,810.49374704383,1.00000000015395,0.516446493484504
23199.9999999429,809.716942012675,1.00000000012723,0.503184362322674
23299.9999999414,808.838996311139,1.00000000011733,0.497504595506476
23399.99999994,807.85932966778,1.00000000012095,0.503575709694768
23499.9999999385,806.797338960055,1.00000000014152,0.518308233526966
23599.9999999371,805.673104803355,1.00000000016977,0.535131947608079
23699.9999999356,804.513393554533,1.00000000019165,0.548430766934195
23799.9999999342,803.337432096028,1.00000000020435,0.554963452767939
23899.9999999327,802.151358662265,1.00000000020697,0.553919811684251
23999.9999999312,800.95455153756,1.00000000019704,0.544869251196042
24099.9999999298,799.729108516353,1.00000000017452,0.527976228422207
24199.9999999283,798.452896542824,1.00000000014195,0.506993432264597
24299.9999999269,797.104700488292,1.00000000011618,0.487793698384645
24399.9999999254,795.667194427012,1.0000000000996,0.478200385142953
24499.999999924,794.14423075932,1.00000000010499,0.48397279877727
24599.9999999225,792.547676261416,1.00000000012567,0.502830463969728
24699.9999999211,790.902957027698,1.00000000015695,0.525603636252335
24799.9999999196,789.237670203772,1.00000000019517,0.544680054502082
24899.9999999181,787.572494929285,1.00000000021385,0.556710406406842
24999.9999999167,785.922454314057,1.00000000022431,0.559896111641778
25099.9999999152,784.288825705222,1.00000000022721,0.555800982862155
25199.9999999138,782.662060583687,1.00000000020735,0.542718474331194
25299.9999999123,781.024429976712,1.00000000017553,0.52145091618186
25399.9999999109,779.34939683992,1.00000000013686,0.495454555075758
25499.9999999094,777.616978999781,1.00000000010618,0.471235705624984
25599.999999908,775.811224709641,1.0000000000877,0.458168463159569
25699.9999999065,773.931021840143,1.00000000009106,0.463454486725947
25799.9999999051,771.992756161913,1.00000000011739,0.485271399721717
25899.9999999036,770.015505616271,1.000000000153,0.513390481934609
25999.9999999021,768.027235061199,1.00000000019024,0.538062507160573
26099.9999999007,766.049435645877,1.00000000022159,0.554150258891726
26199.9999998992,764.096341075673,1.00000000023719,0.561944184876274
26299.9999998978,762.176018626057,1.00000000024532,0.562045466894193
26399.9999998963,760.284340820592,1.00000000023756,0.555634564879788
26499.9999998949,758.410010339214,1.00000000020987,0.539993097644862
26599.9999998934,756.534430576641,1.00000000017536,0.516626098740138
26699.999999892,754.634084201855,1.00000000013121,0.486453040147748
26799.9999998905,752.690954228899,1.0000000001021,0.457682988478276
26899.999999889,750.689685770011,1.00000000008136,0.440632434464931
26999.9999998876,748.630118570832,1.00000000008061,0.442482942733753
27099.9999998861,746.522655877491,1.00000000010219,0.4625310654943
27199.9999998847,744.383277895194,1.0000000001418,0.494195658543531
27299.9999998832,742.236336451838,1.00000000018298,0.524146499983924
27399.9999998818,740.099204130377,1.00000000021387,0.545138804237039
27499.9999998803,737.98753648905,1.0000000002522,0.558107439173307
27599.9999998789,735.911248556008,1.00000000025116,0.561362179039437
27699.9999998774,733.871316110909,1.00000000025563,0.561041703691507
27799.9999998759,731.865594883705,1.00000000024036,0.552964036703221
27899.9999998745,729.881868303737,1.00000000022373,0.538968265271747
27999.999999873,727.906493397253,1.00000000018566,0.516533207106865
28099.9999998716,725.921864035396,1.0000000001449,0.485010204510622
28199.9999998701,723.9096458483,1.00000000011804,0.454753055380244
28299.9999998687,721.860185294812,1.00000000008271,0.43023782320041
28399.9999998672,719.767834633372,1.0000000000791,0.423106657715812
28499.9999998658,717.63627984005,1.00000000008594,0.434234750526954
28599.9999998643,715.478557417895,1.00000000011534,0.460966401366972
28699.9999998629,713.307234967318,1.00000000015361,0.49392021057072
28799.9999998614,711.139259911828,1.00000000019794,0.524025481867904
