Time,AGPnorm,Energy,Entropy
0,0,1,3.60385481679177e-18
99.9999999999986,0.00582898752514898,1.00000000000059,0.0174695318614008
199.999999999993,0.0160790653163797,1.00000000000019,0.0506518253972119
300,0.0327177788763616,1.00000000000067,0.0997089045495363
400.000000000022,0.0498647627261594,1.00000000000614,0.165769587417034
500.000000000045,0.0661580482171606,1.00000000012105,0.261456962119419
600.000000000068,0.131681156460736,1.00000000066313,0.376648166492327
700.000000000091,0.40274855550923,1.00000000141299,0.468947860990386
800.000000000113,1.28859307292162,1.00000000197046,0.525946558126524
900.000000000136,2.96996272689456,1.00000000225641,0.557280472043713
1000.00000000016,5.42684894612469,1.00000000240232,0.571579547277429
1100.0000000001,8.44648741449068,1.00000000235254,0.57531550598358
1200,11.6839153833187,1.00000000219146,0.57206736106409
1299.99999999991,14.875376092127,1.00000000227059,0.567379128569297
1399.99999999982,17.7617536463696,1.00000000195094,0.560612893893853
1499.99999999973,20.1991447544712,1.00000000173796,0.54893215097252
1599.99999999964,22.1151562494285,1.00000000166232,0.543932131765805
1699.99999999955,23.4815176737689,1.00000000152772,0.538859330370153
1799.99999999946,24.3743182097022,1.00000000143668,0.52282390344269
1899.99999999937,24.778588447538,1.00000000143101,0.547051931517421
1999.99999999928,24.8857634321791,1.00000000112203,0.499790588454268
2099.99999999919,24.6173928467268,1.00000000132602,0.537634580654829
2199.99999999909,24.2886475961519,1.00000000138866,0.533034944650857
2299.999999999,23.7178239869776,1.00000000080832,0.429642555686996
2399.99999999891,23.0946931208554,1.00000000188314,0.580948607382384
2499.99999999882,22.5366459278672,1.00000000119061,0.476832251898028
2599.99999999873,21.8421866412927,1.00000000075964,0.386063995470618
2699.99999999864,21.1372224138769,1.00000000188602,0.554663851252684
2799.99999999855,20.5372550970523,1.00000000166144,0.553328352685214
2899.99999999846,19.9432001452074,1.00000000080456,0.374444762842594
2999.99999999837,19.3251469267927,1.00000000106877,0.40285603961405
3099.99999999828,18.7154549510088,1.0000000017211,0.530639832455205
3199.99999999819,18.1539180576173,1.00000000188014,0.55554077891315
3299.99999999809,17.645739875937,1.00000000153638,0.51908625055781
3399.999999998,17.1636943473798,1.00000000073576,0.357378486310281
3499.99999999791,16.7339254340225,1.00000000109323,0.406958737758165
3599.99999999782,16.3129215202263,1.00000000155957,0.519933397097008
3699.99999999773,15.8974274211098,1.0000000012764,0.517162770912897
3799.99999999764,15.4930202261764,1.00000000180947,0.527097617291813
3899.99999999755,15.0979134056488,1.00000000183442,0.577600357967758
3999.99999999746,14.7362195757659,1.00000000105072,0.461570237633679
4099.99999999738,14.4544671801562,1.00000000069108,0.351376271410159
4199.99999999775,14.2634368635953,1.00000000112057,0.409389170927527
4299.99999999811,14.0757897934848,1.00000000155547,0.502509326354108
4399.99999999848,13.855375438503,1.00000000150414,0.544961879227883
4499.99999999884,13.6207521790482,1.00000000138998,0.537417176940481
4599.9999999992,13.399057293259,1.00000000129757,0.52516236232267
4699.99999999957,13.1655269047916,1.00000000166829,0.526136657166202
4799.99999999993,12.9122706786672,1.00000000192407,0.561504170002445
4900.00000000029,12.6562084416818,1.00000000160356,0.576477589133082
5000.00000000066,12.4297313529482,1.00000000101964,0.475463263028367
5100.00000000102,12.2980401019456,1.0000000006749,0.377154969050943
5200.00000000139,12.2894466274724,1.00000000099957,0.381038582723632
5300.00000000175,12.3328151127358,1.00000000140736,0.453248206459112
5400.00000000211,12.3381244721243,1.00000000173308,0.523927133902113
5500.00000000248,12.3085584658953,1.00000000133413,0.544008334563045
5600.00000000284,12.2660139497299,1.00000000140844,0.547220901766509
5700.00000000321,12.194081672974,1.00000000150238,0.558830922411176
5800.00000000357,12.093608592854,1.00000000146655,0.542493925287675
5900.00000000393,11.9835062498807,1.00000000140103,0.554698221808035
6000.0000000043,11.8689013696245,1.00000000137087,0.557084308447625
6100.00000000466,11.7613201392525,1.00000000119819,0.554081213773051
6200.00000000502,11.6432090127574,1.00000000140581,0.562618756572507
6300.00000000539,11.5048753309343,1.00000000165847,0.564955048527156
6400.00000000575,11.349403234709,1.00000000197595,0.573448497748254
6500.00000000612,11.1844760668223,1.00000000178568,0.58698729406081
6600.00000000648,11.0249195803523,1.00000000128827,0.542884058156021
6700.00000000684,10.9057420521161,1.00000000087207,0.45886076022372
6800.00000000721,10.8857161498903,1.00000000067742,0.390911573256146
6900.00000000757,10.9937693595204,1.0000000009552,0.392121990173791
7000.00000000793,11.1879239116906,1.0000000012508,0.42336798862878
7100.0000000083,11.3864003793932,1.00000000160969,0.477248983225495
7200.00000000866,11.5513918413965,1.00000000156176,0.51405413779591
7300.00000000903,11.6824981848365,1.00000000150538,0.551104937327305
7400.00000000939,11.7788223735579,1.00000000149354,0.555837004532159
7500.00000000975,11.8452223276965,1.00000000143219,0.57362036667487
7600.00000001012,11.8771678263144,1.00000000158944,0.587725982947982
7700.00000001048,11.8727944186879,1.00000000147354,0.589405986974771
7800.00000001084,11.848816780047,1.00000000142208,0.564180851392321
7900.00000001121,11.8155132782935,1.00000000149973,0.558789067117329
8000.00000001157,11.7771246572682,1.0000000015081,0.555540948789498
8100.00000001194,11.7286803225774,1.00000000149535,0.543768091226699
8200.0000000123,11.678445935819,1.00000000138862,0.556218704882341
8300.00000001266,11.6281935210944,1.00000000137811,0.561611595268981
8400.00000001303,11.5815058946793,1.00000000136151,0.558338903800051
8500.00000001339,11.5343380048925,1.00000000137298,0.564198493770941
8600.00000001376,11.4858267450026,1.00000000142604,0.569255712990082
8700.00000001412,11.430458965315,1.00000000149477,0.568171254740424
8800.00000001448,11.3671276044382,1.00000000156948,0.564259077517725
8900.00000001485,11.2926366986476,1.00000000162244,0.583663766905812
9000.00000001521,11.2096942368673,1.00000000149489,0.607459882614936
9100.00000001557,11.1250968776031,1.00000000120133,0.592895907361727
9200.00000001594,11.0420167253285,1.00000000139549,0.598246699265013
9300.0000000163,10.9538027724617,1.00000000141281,0.59546995570744
9400.00000001667,10.85860615076,1.00000000170149,0.590272116313723
9500.00000001703,10.7593462400588,1.0000000018741,0.594843793580228
9600.00000001739,10.6610029206458,1.00000000189375,0.586172072309868
9700.00000001776,10.5658042897614,1.00000000202026,0.583639525254633
9800.00000001812,10.4686546975784,1.0000000017655,0.580535461344135
9900.00000001848,10.3661395788742,1.0000000013244,0.550022436566087
10000.0000000188,10.2708378535783,1.00000000103866,0.495756495180038
10100.0000000192,10.218050903994,1.00000000083771,0.44663844065473
10200.0000000196,10.2488471511956,1.00000000076388,0.403755825097232
10300.0000000199,10.3930407148895,1.00000000096958,0.398059092088209
10400.0000000203,10.643081835491,1.00000000102357,0.411257890727597
10500.0000000207,10.9556068100764,1.00000000137874,0.436616402727138
10600.000000021,11.283277601411,1.00000000146501,0.467564876035024
10700.0000000214,11.5963414390157,1.00000000165054,0.498098257582633
10800.0000000218,11.8784492741042,1.00000000165837,0.518932892712488
10900.0000000221,12.1339270952837,1.00000000158156,0.542215570248322
11000.0000000225,12.3569888732301,1.00000000152998,0.565336723774545
11100.0000000229,12.5520401597401,1.00000000160012,0.578652486347468
11200.0000000232,12.7151445864679,1.00000000157485,0.586958218667969
11300.0000000236,12.849908215419,1.00000000149678,0.600207470771157
11400.0000000239,12.9575736520549,1.00000000163239,0.614957939255137
11500.0000000243,13.0343893760125,1.00000000167766,0.619787649470591
11600.0000000247,13.0809013911471,1.00000000157872,0.61859470028296
11700.000000025,13.1090507294892,1.0000000015289,0.621653528458959
11800.0000000254,13.1242067097075,1.00000000162634,0.620570166072846
11900.0000000258,13.1281582414219,1.00000000150663,0.611192978004201
12000.0000000261,13.1256055585067,1.0000000015631,0.609682300252239
12100.0000000265,13.1083722284102,1.00000000162065,0.607101957865202
12200.0000000269,13.0817814084249,1.00000000146074,0.594963192662286
12300.0000000272,13.0528800732237,1.00000000162488,0.602518115026755
12400.0000000276,13.0120362268526,1.0000000015862,0.605009842797544
12500.0000000279,12.9652119123466,1.00000000163946,0.611400929265828
12600.0000000283,12.912690290779,1.00000000163772,0.617843356380015
12700.0000000287,12.8551845404469,1.00000000171438,0.627814686470359
12800.000000029,12.7932624431803,1.00000000153065,0.623791574372989
12900.0000000294,12.7333515306028,1.00000000147976,0.614969732603148
13000.0000000298,12.6797795643295,1.00000000149138,0.597797680424489
13100.0000000301,12.6333264011739,1.00000000142834,0.589352647031782
13200.0000000305,12.5915463441087,1.00000000161929,0.591532740101888
13300.0000000309,12.5507464538665,1.00000000157338,0.59805088970586
13400.0000000312,12.512477788514,1.00000000160353,0.597760821642457
13500.0000000316,12.4737244623882,1.00000000154922,0.598065893189174
13600.0000000319,12.4349687320987,1.00000000152362,0.604757113612794
13700.0000000323,12.4009200427589,1.00000000152274,0.596438483600271
13800.0000000327,12.3642869706098,1.00000000168109,0.593407729813262
13900.000000033,12.3266989377042,1.00000000165443,0.597470920150496
14000.0000000334,12.2951945015967,1.00000000140787,0.587802851257534
14100.0000000338,12.2700217307259,1.00000000154515,0.575584689377775
14200.0000000341,12.2469299653632,1.0000000016235,0.564808692325378
14300.0000000345,12.2211336438184,1.00000000161808,0.573372187523605
14400.0000000349,12.1960638747786,1.00000000151593,0.580176538439937
14500.0000000352,12.1711653936027,1.00000000160644,0.601999459226527
14600.0000000356,12.1448935851484,1.00000000164267,0.618961692955746
14700.0000000359,12.1204674646052,1.00000000151636,0.614536061923899
14800.0000000363,12.096532471415,1.00000000178783,0.601834637617168
14900.0000000367,12.0690977194055,1.00000000174539,0.597895869397601
15000.000000037,12.0428996722695,1.00000000152504,0.615002653754103
15100.0000000374,12.0179782385554,1.000000001606,0.615703613337201
15200.0000000378,11.9885234551211,1.000000001781,0.623115154564149
15300.0000000381,11.9551726800987,1.00000000161022,0.624971824355457
15400.0000000385,11.9225246697376,1.00000000149952,0.622907073426962
15500.0000000389,11.8868894351526,1.00000000178459,0.634304390110269
15600.0000000392,11.8467579694092,1.00000000162344,0.620792765853657
15700.0000000396,11.804192351124,1.00000000166035,0.615081331204233
15800.0000000399,11.7598725828692,1.00000000163105,0.614391493845907
15900.0000000403,11.7185497006981,1.00000000150143,0.627143722237294
16000.0000000407,11.683397423924,1.00000000153299,0.627008916224298
16100.000000041,11.6475065006646,1.00000000172142,0.630715599154446
16200.0000000414,11.6054009393156,1.00000000176921,0.628688174232942
16300.0000000418,11.5606173978645,1.00000000152827,0.63003612051032
16400.0000000418,11.5191968352593,1.00000000163019,0.629535853140309
16500.0000000404,11.4747492685952,1.00000000178803,0.632488560610875
16600.0000000389,11.42903414482,1.00000000156951,0.622251161081227
16700.0000000375,11.3855532130781,1.00000000162119,0.626815858055017
16800.000000036,11.3416087564397,1.00000000169425,0.621267714917177
16900.0000000346,11.2970108842662,1.00000000161952,0.631159349288939
17000.0000000331,11.2518449948276,1.00000000164063,0.635063802854501
17100.0000000317,11.2042581180505,1.00000000166266,0.639252984065659
17200.0000000302,11.1534493273686,1.00000000169166,0.6333438692918
17300.0000000287,11.1003462571781,1.00000000167717,0.635657926476186
17400.0000000273,11.0456627226539,1.00000000180991,0.641380239613281
17500.0000000258,10.9897953776895,1.00000000156043,0.641039267130265
17600.0000000244,10.9342190592946,1.00000000165974,0.642959628834907
17700.0000000229,10.8767650591547,1.00000000189168,0.651952949902238
17800.0000000215,10.8175902050124,1.00000000176969,0.640152277351275
17900.00000002,10.7582106042585,1.00000000162161,0.644182392567802
18000.0000000186,10.6992670137318,1.0000000015787,0.631971410571987
18100.0000000171,10.6408054553221,1.00000000170567,0.653133407351647
18200.0000000156,10.5829451193654,1.00000000153744,0.644273764757958
18300.0000000142,10.5255865903832,1.00000000142916,0.635256948937064
18400.0000000127,10.4690012291064,1.0000000015719,0.640842831323687
18500.0000000113,10.4141215883479,1.00000000167064,0.646220010407138
18600.0000000098,10.3615595600844,1.00000000168153,0.643577182581235
18700.0000000084,10.3134321920228,1.00000000177749,0.646516555454987
18800.0000000069,10.2719254838997,1.00000000187345,0.650834513493213
18900.0000000055,10.2381320671105,1.00000000194716,0.648905893299256
19000.000000004,10.2191531769254,1.00000000198541,0.648475207677115
19100.0000000026,10.2100944197861,1.00000000212723,0.643965887528458
19200.0000000011,10.2260675195441,1.00000000200257,0.647630506546634
19299.9999999996,10.2492457707496,1.00000000219083,0.652459076409779
19399.9999999982,10.2979632571579,1.00000000216915,0.644105092087415
19499.9999999967,10.3427316178715,1.00000000209508,0.637288685263755
19599.9999999953,10.396099450958,1.00000000203415,0.624694029491325
19699.9999999938,10.4272173197812,1.00000000173552,0.613922098367205
19799.9999999924,10.4386966913148,1.00000000164954,0.596990462522525
19899.9999999909,10.4221206301769,1.00000000138602,0.565393089937046
19999.9999999895,10.383601887962,1.00000000129715,0.534263805549428
20099.999999988,10.3399872928713,1.00000000111061,0.507375745347314
20199.9999999865,10.3085842110421,1.00000000112313,0.478325631848146
20299.9999999851,10.3152113131478,1.00000000106372,0.45138274531237
20399.9999999836,10.3826088415757,1.00000000104787,0.432724179520356
20499.9999999822,10.5351900503932,1.00000000103306,0.424907873043744
20599.9999999807,10.7751416623312,1.00000000115312,0.425405299969355
20699.9999999793,11.1267824234397,1.00000000130783,0.432401960636088
20799.9999999778,11.5411746140187,1.00000000146132,0.437740457960001
20899.9999999764,12.0481478891325,1.00000000157426,0.448720957247274
20999.9999999749,12.567719801391,1.0000000016142,0.458059518813452
21099.9999999734,13.1387162132002,1.00000000183768,0.466871746191874
21199.999999972,13.6944332330099,1.00000000180049,0.481806738237511
21299.9999999705,14.2581791037462,1.00000000193602,0.488913851260969
21399.9999999691,14.8033388817691,1.00000000193436,0.508154736005093
21499.9999999676,15.3242642552052,1.00000000191929,0.515205537535943
21599.9999999662,15.836190696902,1.00000000181411,0.526206968458504
21699.9999999647,16.314419899181,1.00000000179677,0.537848799043156
21799.9999999633,16.7928871262124,1.00000000176025,0.546717715253206
21899.9999999618,17.2389058412714,1.00000000193814,0.556660118495895
21999.9999999603,17.6664577531277,1.00000000177387,0.561888153405235
22099.9999999589,18.07799529912,1.00000000176643,0.577625776309187
22199.9999999574,18.4608431941697,1.0000000018745,0.582953962012045
22299.999999956,18.82746791642,1.00000000186583,0.604215229324534
22399.9999999545,19.1644725543798,1.00000000177273,0.613109226755011
22499.9999999531,19.4934518685867,1.00000000175261,0.618703617154808
22599.9999999516,19.7815882805501,1.00000000189167,0.621345424082172
22699.9999999502,20.0484758317258,1.00000000159228,0.629018605009043
22799.9999999487,20.2894173815836,1.00000000184589,0.63842057300203
22899.9999999473,20.5065360322347,1.00000000202776,0.632136590123148
22999.9999999458,20.7021376550801,1.000000001877,0.635898856435526
23099.9999999443,20.867868216009,1.00000000173289,0.635034389145805
23199.9999999429,21.0197648472606,1.00000000208851,0.648193955888303
23299.9999999414,21.147452363827,1.00000000168544,0.639369936773191
23399.99999994,21.2637692428254,1.00000000184763,0.641477846275739
23499.9999999385,21.3605608803864,1.00000000202996,0.658508674382631
23599.9999999371,21.4425253876686,1.00000000171853,0.643976653157356
23699.9999999356,21.511597050379,1.00000000193303,0.652976129308498
23799.9999999342,21.5676321926852,1.00000000176885,0.640139249649685
23899.9999999327,21.6234397409793,1.00000000176319,0.653280137266253
23999.9999999312,21.6753931052919,1.00000000174735,0.648993406947271
24099.9999999298,21.7199374633224,1.00000000209168,0.661826667676481
24199.9999999283,21.7429270320931,1.00000000203244,0.657518111815707
24299.9999999269,21.7523652737787,1.00000000187498,0.652207135615345
24399.9999999254,21.7596120226674,1.00000000178698,0.639091021039526
24499.999999924,21.7708573444929,1.00000000188306,0.621222367278462
24599.9999999225,21.7854594445334,1.00000000192059,0.638151246285485
24699.9999999211,21.7933951438896,1.00000000179355,0.634639555445186
24799.9999999196,21.7994993348649,1.00000000184046,0.635127248362868
24899.9999999181,21.795054662892,1.000000001906,0.638855952708041
24999.9999999167,21.7848140763698,1.00000000164845,0.638162895254243
25099.9999999152,21.7679824775466,1.00000000185803,0.637406846687003
25199.9999999138,21.7531012687874,1.00000000173371,0.611223311841546
25299.9999999123,21.7447872960336,1.00000000172854,0.608463797477801
25399.9999999109,21.7343932578767,1.00000000209923,0.630620983667406
25499.9999999094,21.7131903671952,1.00000000194446,0.630333810583484
25599.999999908,21.6838772415824,1.00000000210753,0.633469660129132
25699.9999999065,21.6587972494052,1.00000000158612,0.630691808553207
25799.9999999051,21.6397778493962,1.00000000181657,0.635172191791968
25899.9999999036,21.619268825182,1.00000000189588,0.644293801821023
25999.9999999021,21.5908854461495,1.00000000210081,0.650952577126633
26099.9999999007,21.5582126960901,1.00000000195183,0.641228439757772
26199.9999998992,21.5276076088381,1.00000000200833,0.628487675878158
26299.9999998978,21.500467453995,1.00000000185531,0.619222645447676
26399.9999998963,21.475139918736,1.00000000187231,0.621223345783942
26499.9999998949,21.4461527067067,1.00000000207791,0.634821071615491
26599.9999998934,21.4225388006403,1.00000000150233,0.605142867182032
26699.999999892,21.4094260789801,1.00000000181306,0.614871085682767
26799.9999998905,21.3965502752367,1.00000000199281,0.645189894175543
26899.999999889,21.3764517713572,1.00000000193702,0.636997964215383
26999.9999998876,21.3484162430661,1.00000000194069,0.636533131450283
27099.9999998861,21.321821432004,1.00000000161003,0.625795834685416
27199.9999998847,21.3029680653722,1.00000000183218,0.647459596852404
27299.9999998832,21.2800933199101,1.00000000174449,0.659084259509344
27399.9999998818,21.2501201533723,1.000000001938,0.647325576619094
27499.9999998803,21.2167046558773,1.00000000183129,0.636292972177277
27599.9999998789,21.1844138706285,1.00000000202738,0.641385833495285
27699.9999998774,21.1501605735284,1.00000000187467,0.637475203912146
27799.9999998759,21.1169292144263,1.00000000195574,0.626110561837007
27899.9999998745,21.0841754526851,1.00000000190656,0.636094321312512
27999.999999873,21.050198368891,1.00000000180016,0.621866831931888
28099.9999998716,21.018727051223,1.00000000179623,0.631125823203641
28199.9999998701,20.9893067862571,1.00000000189018,0.637536496298503
28299.9999998687,20.9616800861262,1.00000000182607,0.630845270095761
28399.9999998672,20.9305825686599,1.00000000199771,0.634777421088812
28499.9999998658,20.8970225243514,1.00000000200045,0.636154311598704
28599.9999998643,20.8600818488821,1.00000000188068,0.639005298513258
28699.9999998629,20.8202740816984,1.00000000200645,0.642243231030844
28799.9999998614,20.7793224467147,1.00000000178325,0.635449308548549
28899.9999998599,20.7406174877861,1.00000000166672,0.627492705049187
28999.9999998585,20.703152261281,1.00000000200144,0.630496169700236
29099.999999857,20.6628948767119,1.00000000193537,0.650702748819504
