Time,AGPnorm,Energy,Entropy
0,0,1,-1.49159546583881e-17
99.9999999999986,8.38360687021395e-06,1.00000000000161,0.000409785788287662
199.999999999993,0.000744803703974742,0.999999999998463,0.000654528883012783
300,0.00186959825184253,1.0000000000017,0.00117952443874649
400.000000000022,0.00256838583073159,0.999999999999892,0.00201607775617552
500.000000000045,0.00315243473329795,0.999999999999404,0.00275639263057029
600.000000000068,0.00453838468840305,1.00000000000196,0.00384857015673592
700.000000000091,0.00566385469052622,0.999999999998525,0.00495395421800499
800.000000000113,0.0072547856936765,1.00000000000126,0.00616626613378631
900.000000000136,0.009123203624821,1.00000000000051,0.00757260015730994
1000.00000000016,0.0107437924064058,0.999999999998897,0.00897087497105076
1100.0000000001,0.0128768178068686,1.00000000000212,0.0105430012452104
1200,0.0150865734444136,0.9999999999988,0.0121802493370271
1299.99999999991,0.0174346001833051,1.00000000000068,0.0139039263351131
1399.99999999982,0.0201685918403048,1.00000000000111,0.0157307543599799
1499.99999999973,0.0228747687616913,0.999999999998548,0.0176094393684641
1599.99999999964,0.0258335408297286,1.00000000000205,0.0195941442362128
1699.99999999955,0.0289038682114107,0.999999999999253,0.0216403251686413
1799.99999999946,0.032003140025732,1.00000000000005,0.0237941083325316
1899.99999999937,0.0354723201987848,1.00000000000163,0.0259857947634144
1999.99999999928,0.0391119213077392,0.999999999998402,0.0282637894781074
2099.99999999919,0.0428301133009187,1.00000000000176,0.0306346170057753
2199.99999999909,0.0467037996858138,0.999999999999827,0.033033760081549
2299.999999999,0.0505849367982984,0.999999999999452,0.0355710361583269
2399.99999999891,0.0546682313563217,1.000000000002,0.0381194326258449
2499.99999999882,0.0589752938275847,0.999999999998473,0.0407603009683305
2599.99999999873,0.0633029800878302,1.00000000000127,0.0435128617704661
2699.99999999864,0.0678983461914721,1.00000000000046,0.0462535823419464
2799.99999999855,0.0725807167141339,0.999999999998959,0.0491569487481583
2899.99999999846,0.0772082538877612,1.00000000000214,0.0520810491665066
2999.99999999837,0.0819769416773646,0.999999999998755,0.0550742334644942
3099.99999999828,0.0867787818469864,1.00000000000069,0.0582232259986261
3199.99999999819,0.0919113209608189,1.00000000000108,0.061330007927329
3299.99999999809,0.0972717276158823,0.99999999999861,0.0646167107893344
3399.999999998,0.102359410332253,1.00000000000203,0.0679528718898442
3499.99999999791,0.107537046180974,0.999999999999196,0.0713223935930719
3599.99999999782,0.112756241940778,1.00000000000012,0.0748989248027491
3699.99999999773,0.118231561769711,1.00000000000163,0.0784332261555596
3799.99999999764,0.123973389682264,0.99999999999845,0.0821507823911088
3899.99999999755,0.129390906018259,1.00000000000167,0.0859617864777315
3999.99999999746,0.13495929864775,0.999999999999739,0.0897841301874398
4099.99999999738,0.140605649005525,0.999999999999607,0.0938548307623778
4199.99999999775,0.146296464870936,1.000000000002,0.0979225123050474
4299.99999999811,0.152120548253112,0.999999999998537,0.102158817834782
4399.99999999848,0.157736238039913,1.00000000000115,0.106562822931162
4499.99999999884,0.163585659899044,1.00000000000036,0.110972334736294
4599.9999999992,0.169611870589271,0.999999999999143,0.115689229501586
4699.99999999957,0.175414156157935,1.00000000000212,0.12046639821717
4799.99999999993,0.181187139884762,0.999999999998866,0.125400860749296
4900.00000000029,0.186905102580222,1.00000000000069,0.130611930147385
5000.00000000066,0.19289320071677,1.00000000000108,0.135884578817988
5100.00000000102,0.199059918971135,0.99999999999891,0.141534539477841
5200.00000000139,0.204881004690635,1.00000000000216,0.1473654959369
5300.00000000175,0.210595040731977,0.999999999999617,0.153388827425831
5400.00000000211,0.21642409300377,1.00000000000088,0.159833035639705
5500.00000000248,0.222533964155902,1.00000000000263,0.166457682178753
5600.00000000284,0.228493726901976,1.00000000000027,0.173525465643627
5700.00000000321,0.2345179715357,1.00000000000414,0.180923182829041
5800.00000000357,0.240327695202382,1.00000000000342,0.188521796497274
5900.00000000393,0.246536974989041,1.0000000000054,0.196615208167875
6000.0000000043,0.253725045365807,1.00000000000971,0.204859163181637
6100.00000000466,0.260058078658811,1.00000000000934,0.213393044523074
6200.00000000502,0.268382338467948,1.00000000001469,0.222183857216313
6300.00000000539,0.277536558234182,1.00000000001786,0.230955170526258
6400.00000000575,0.288336701541502,1.00000000002169,0.240013039150743
6500.00000000612,0.304215384963456,1.00000000002978,0.248959171524379
6600.00000000648,0.32141564704635,1.00000000003214,0.257875829062455
6700.00000000684,0.346795052298388,1.00000000004322,0.266797374422156
6800.00000000721,0.380661276043144,1.00000000004816,0.275502946726809
6900.00000000757,0.423573423591366,1.00000000005328,0.284312210969366
7000.00000000793,0.483998609921727,1.00000000006459,0.292849866686215
7100.0000000083,0.559350415618739,1.00000000006872,0.301163991714988
7200.00000000866,0.658899706121062,1.00000000007495,0.309474597553132
7300.00000000903,0.787577578679304,1.00000000009041,0.317389484407024
7400.00000000939,0.947262824198233,1.00000000009126,0.325392028795859
7500.00000000975,1.14924479939231,1.00000000009891,0.333182194729522
7600.00000001012,1.39683588718053,1.0000000001058,0.340586752452753
7700.00000001048,1.69905779295415,1.00000000011741,0.348085896127834
7800.00000001084,2.06440323730037,1.00000000012602,0.355201862215809
7900.00000001121,2.50026477886258,1.00000000013395,0.36223837158635
8000.00000001157,3.01514732594141,1.0000000001496,0.369120379199111
8100.00000001194,3.6196168815629,1.00000000014924,0.375679593948672
8200.0000000123,4.32296708013714,1.00000000015795,0.382333941542058
8300.00000001266,5.13074649807348,1.00000000016447,0.388653538066975
8400.00000001303,6.06023425983464,1.00000000016876,0.394743855488424
8500.00000001339,7.11264310455064,1.00000000017407,0.400830556743936
8600.00000001376,8.30151692423357,1.00000000019329,0.406446211813026
8700.00000001412,9.64147626941846,1.00000000018678,0.41226821873526
8800.00000001448,11.12682500261,1.00000000020449,0.417760001424785
8900.00000001485,12.7853857080647,1.00000000019799,0.422966153912363
9000.00000001521,14.6117729276117,1.00000000021032,0.428267581256409
9100.00000001557,16.6138300890259,1.00000000021808,0.433126636899215
9200.00000001594,18.8177835650396,1.00000000021136,0.438055616253939
9300.0000000163,21.2018465853066,1.00000000022007,0.442819383247925
9400.00000001667,23.7991437977939,1.00000000023807,0.447121132947329
9500.00000001703,26.6049927220058,1.00000000023136,0.451752545581837
9600.00000001739,29.6118798772339,1.00000000024079,0.455921179687306
9700.00000001776,32.860423076043,1.00000000023979,0.460008427387886
9800.00000001812,36.3144079797586,1.00000000024426,0.464085193690177
9900.00000001848,40.0027134304626,1.0000000002414,0.467815296306094
10000.0000000188,43.9320336040003,1.00000000025502,0.471555874927669
10100.0000000192,48.0720585201999,1.00000000024324,0.475294852793558
10200.0000000196,52.475050783699,1.00000000024884,0.478562446782516
10300.0000000199,57.0989874759153,1.00000000026279,0.48202218627467
10400.0000000203,61.9577142194534,1.00000000026392,0.485115142706926
10500.0000000207,67.0768827361942,1.00000000026846,0.488208720678108
10600.000000021,72.4033091590887,1.00000000026179,0.491315387603242
10700.0000000214,77.9927851215914,1.00000000026748,0.493968353923912
10800.0000000218,83.8090747952857,1.00000000026968,0.496928958131026
10900.0000000221,89.8427749663133,1.000000000279,0.499500044078125
11000.0000000225,96.140154833946,1.0000000002737,0.501987529074949
11100.0000000229,102.632007597402,1.00000000026395,0.504626888446085
11200.0000000232,109.366772283393,1.00000000028144,0.506686011062551
11300.0000000236,116.324681365695,1.00000000027023,0.509179779506676
11400.0000000239,123.470582725203,1.00000000028768,0.511221775130958
11500.0000000243,130.865829209077,1.00000000027822,0.513185750247749
11600.0000000247,138.436689748886,1.00000000027673,0.515343094443374
11700.000000025,146.214415614876,1.0000000002757,0.517115595836261
11800.0000000254,154.203102245749,1.00000000028688,0.518883723202954
11900.0000000258,162.343061747611,1.00000000027796,0.520809099034695
12000.0000000261,170.702389547931,1.00000000026541,0.522215186029924
12100.0000000265,179.215383039147,1.00000000028175,0.523997031063406
12200.0000000269,187.888516832485,1.00000000028086,0.525351092881503
12300.0000000272,196.751407649215,1.00000000027608,0.526620220868569
12400.0000000276,205.727688364636,1.00000000028923,0.52816129070381
12500.0000000279,214.880186335517,1.00000000026417,0.529230354570859
12600.0000000283,224.163561437926,1.00000000028022,0.530516983206717
12700.0000000287,233.555114339453,1.00000000028306,0.5318451976163
12800.000000029,243.107492743654,1.00000000026557,0.532598605619394
12900.0000000294,252.737059479935,1.00000000027754,0.533856112674112
13000.0000000298,262.492428026935,1.00000000028409,0.534643165373389
13100.0000000301,272.352541689878,1.00000000026307,0.535573606198794
13200.0000000305,282.272400700807,1.0000000002855,0.536376376883844
13300.0000000309,292.315075982155,1.00000000026698,0.537037869806904
13400.0000000312,302.403839070426,1.00000000027729,0.537867887904527
13500.0000000316,312.563974949688,1.00000000027587,0.53857614868122
13600.0000000319,322.802555998935,1.00000000026224,0.539101802387045
13700.0000000323,333.056108214357,1.0000000002666,0.539856441390957
13800.0000000327,343.389718686514,1.00000000026538,0.540261451939184
13900.000000033,353.740624015637,1.00000000026031,0.540950282558198
14000.0000000334,364.113154125542,1.0000000002698,0.541237207113371
14100.0000000338,374.533296565551,1.00000000025975,0.541432736262474
14200.0000000341,384.931078235205,1.00000000027259,0.542101021075363
14300.0000000345,395.36414625346,1.0000000002497,0.542583647048984
14400.0000000349,405.79072625495,1.00000000026203,0.5425100755629
14500.0000000352,416.190919611335,1.00000000025267,0.543063390135788
14600.0000000356,426.609355270116,1.00000000025896,0.542925562979687
14700.0000000359,436.975588493812,1.00000000024962,0.543326486999293
14800.0000000363,447.329981670815,1.00000000025885,0.543757290124094
14900.0000000367,457.657130062833,1.00000000025336,0.543813529685029
15000.000000037,467.919177956413,1.00000000024944,0.543652802756753
15100.0000000374,478.167232914916,1.0000000002561,0.543480148837266
15200.0000000378,488.340145184199,1.00000000025372,0.543876864519964
15300.0000000381,498.461906821296,1.00000000024915,0.544076576868076
15400.0000000385,508.534460950997,1.00000000023885,0.544057342828509
15500.0000000389,518.511749669545,1.00000000026409,0.544005735896143
15600.0000000392,528.4446557979,1.00000000023688,0.543817978202294
15700.0000000396,538.284137833728,1.00000000024004,0.543797215317955
15800.0000000399,548.037617374989,1.00000000024013,0.543942621778834
15900.0000000403,557.7231354113,1.00000000023339,0.543852874143853
16000.0000000407,567.289458346391,1.00000000023355,0.543996986030667
16100.000000041,576.783474095312,1.00000000023028,0.543807839906345
16200.0000000414,586.170999585428,1.00000000022915,0.543469934517358
16300.0000000418,595.444521912363,1.00000000022678,0.543520799819722
16400.0000000418,604.632353856121,1.00000000023635,0.54296471620526
16500.0000000404,613.686689508798,1.00000000023506,0.543454953570063
16600.0000000389,622.642755835941,1.00000000022078,0.543119776456123
16700.0000000375,631.482590674623,1.00000000023764,0.543136621503057
16800.000000036,640.189029129865,1.00000000022967,0.542805374969252
16900.0000000346,648.79314074084,1.00000000022951,0.542518841247866
17000.0000000331,657.255570395739,1.00000000022673,0.542105557911549
17100.0000000317,665.596372366428,1.00000000022966,0.542098309792142
17200.0000000302,673.816400548848,1.00000000021849,0.541885574865924
17300.0000000287,681.884721151927,1.00000000022335,0.541874320599414
17400.0000000273,689.83972434265,1.00000000021772,0.541378727116769
17500.0000000258,697.644750192424,1.00000000021887,0.541247818982486
17600.0000000244,705.31365257428,1.00000000021049,0.540890815617547
17700.0000000229,712.852855669193,1.00000000021024,0.540426484783051
17800.0000000215,720.232590032173,1.00000000021347,0.540200447752405
17900.00000002,727.486258045102,1.00000000021064,0.540003055845111
18000.0000000186,734.58818535828,1.00000000020983,0.539772253108822
18100.0000000171,741.540576394303,1.00000000020991,0.539698582337991
18200.0000000156,748.358598233859,1.0000000002101,0.53902454298109
18300.0000000142,755.012228096352,1.00000000020216,0.538966605118331
18400.0000000127,761.53062812906,1.0000000001979,0.538428261847478
18500.0000000113,767.897279362742,1.00000000020293,0.537979107996064
18600.0000000098,774.106877117339,1.00000000019808,0.537927612524439
18700.0000000084,780.179303220952,1.00000000019208,0.537571277739293
18800.0000000069,786.087331550065,1.00000000019409,0.537713424866046
18900.0000000055,791.853313237831,1.00000000019126,0.537147812479903
19000.000000004,797.469260746767,1.00000000019658,0.536763106145157
19100.0000000026,802.924561368151,1.00000000018981,0.536284187493639
19200.0000000011,808.240980086725,1.00000000019355,0.535742620477685
19299.9999999996,813.396771011454,1.00000000019024,0.535571985987026
19399.9999999982,818.405904986496,1.00000000018643,0.535501016250281
19499.9999999967,823.269698699228,1.00000000018166,0.535571682253316
19599.9999999953,827.972693870279,1.0000000001827,0.535418411776738
19699.9999999938,832.538143813797,1.00000000018083,0.534996052128278
19799.9999999924,836.947359921259,1.00000000018566,0.534101135230917
19899.9999999909,841.208563211416,1.00000000018152,0.533587915592466
19999.9999999895,845.328198327718,1.00000000018002,0.532793360971731
20099.999999988,849.28982185139,1.00000000017567,0.532920085948951
20199.9999999865,853.116052333952,1.00000000017768,0.533256137881671
20299.9999999851,856.793312025322,1.00000000017465,0.533601963446935
20399.9999999836,860.325912426558,1.00000000017889,0.534096722451604
20499.9999999822,863.723917165517,1.00000000016899,0.533417525620748
20599.9999999807,866.97115877788,1.00000000017121,0.532520337170985
20699.9999999793,870.085919844189,1.00000000016792,0.530798983596081
20799.9999999778,873.057408732996,1.000000000168,0.529320567656468
20899.9999999764,875.884876069896,1.00000000017003,0.529257426005362
20999.9999999749,878.580565320752,1.00000000016582,0.529659086984409
21099.9999999734,881.132039226697,1.00000000016834,0.531690997839035
21199.999999972,883.557401244098,1.00000000016512,0.533465990772323
21299.9999999705,885.854218084476,1.00000000016164,0.534393899237622
21399.9999999691,888.020153166362,1.00000000016346,0.533926931616227
21499.9999999676,890.067652964479,1.00000000016679,0.531187593889159
21599.9999999662,891.981534292381,1.00000000015719,0.528167814790047
21699.9999999647,893.769514940036,1.00000000016046,0.524825256522879
21799.9999999633,895.427190910593,1.00000000015219,0.523437490264029
21899.9999999618,896.949256900606,1.00000000014963,0.525171108559135
21999.9999999603,898.351590450214,1.00000000015753,0.528475712956301
22099.9999999589,899.632070577525,1.00000000015783,0.533361357220903
22199.9999999574,900.804204719739,1.00000000016494,0.536740901962141
22299.999999956,901.877241755147,1.00000000016138,0.538027990425181
22399.9999999545,902.845493778886,1.00000000016187,0.535872176309233
22499.9999999531,903.718214842376,1.00000000015611,0.530359109336134
22599.9999999516,904.480256076287,1.00000000014639,0.52366103643521
22699.9999999502,905.125777354443,1.00000000014342,0.517807130281094
22799.9999999487,905.652550574387,1.00000000013005,0.515317421934676
22899.9999999473,906.053393375531,1.00000000013659,0.518255349707977
22999.9999999458,906.345913466121,1.00000000013931,0.524938317197967
23099.9999999443,906.538221294201,1.00000000014862,0.533388989967469
23199.9999999429,906.645793724585,1.00000000016153,0.540294177751887
23299.9999999414,906.686250541996,1.00000000016671,0.54337950090333
23399.99999994,906.658050370117,1.00000000017046,0.541881822216193
23499.9999999385,906.566085395991,1.00000000016295,0.535148395650076
23599.9999999371,906.396540527139,1.00000000014516,0.524602892917684
23699.9999999356,906.132238764618,1.00000000013538,0.51309835035404
23799.9999999342,905.766250790607,1.00000000012403,0.504454123263316
23899.9999999327,905.284512889282,1.00000000011858,0.50293676338922
23999.9999999312,904.697988196014,1.0000000001229,0.509518131579857
24099.9999999298,904.019078176383,1.00000000013637,0.5214637311903
24199.9999999283,903.265363888814,1.00000000015124,0.534393970691718
24299.9999999269,902.464961873144,1.00000000016743,0.54422130582016
24399.9999999254,901.627292405384,1.00000000018162,0.549011716996626
24499.999999924,900.763736258744,1.00000000017924,0.547741726036444
24599.9999999225,899.869956215775,1.00000000017642,0.53949970722033
24699.9999999211,898.928658950779,1.00000000015906,0.525922468394651
24799.9999999196,897.927364476916,1.0000000001306,0.508544014103372
24899.9999999181,896.839850627354,1.00000000011345,0.49303387699974
24999.9999999167,895.656907694794,1.0000000001,0.485155348022268
25099.9999999152,894.376860275138,1.00000000010086,0.488054955967215
25199.9999999138,893.007520618726,1.00000000011341,0.502261616303707
25299.9999999123,891.576462454505,1.00000000013758,0.520715747952881
25399.9999999109,890.104374899727,1.00000000016584,0.53726230136168
25499.9999999094,888.615005269173,1.00000000018932,0.549383302452132
25599.999999908,887.126353100728,1.00000000019458,0.554316864502651
25699.9999999065,885.638792452566,1.00000000020031,0.552307393139848
25799.9999999051,884.15294344095,1.00000000018918,0.54367831587277
25899.9999999036,882.651273053541,1.00000000016951,0.527169456260328
25999.9999999021,881.111695056373,1.00000000014087,0.505916640333193
26099.9999999007,879.514492155296,1.00000000010956,0.483619065518332
26199.9999998992,877.836565785606,1.00000000009138,0.467677394469812
26299.9999998978,876.076283276824,1.00000000008423,0.464553060838137
26399.9999998963,874.237099265651,1.00000000009608,0.476820136420776
26499.9999998949,872.33675277482,1.0000000001185,0.498975325980697
26599.9999998934,870.402647849427,1.00000000015123,0.522758323080023
26699.999999892,868.455205878407,1.0000000001797,0.541559188863986
26799.9999998905,866.517979925861,1.00000000020198,0.55348352707474
26899.999999889,864.603083000458,1.0000000002122,0.558632748147682
26999.9999998876,862.712726893908,1.00000000021441,0.556571979663718
27099.9999998861,860.845295517857,1.00000000020254,0.548669133846771
27199.9999998847,858.983833011174,1.00000000018372,0.531984489797056
27299.9999998832,857.109827013315,1.00000000014855,0.508972785935711
27399.9999998818,855.201264641784,1.00000000012177,0.481884428956368
27499.9999998803,853.235355595213,1.00000000008874,0.457292507885934
27599.9999998789,851.204668635479,1.00000000007793,0.444331247083447
27699.9999998774,849.104487563116,1.00000000007863,0.447634737402362
27799.9999998759,846.948554361097,1.00000000009519,0.467432081489577
27899.9999998745,844.755798080762,1.00000000012767,0.495889747642167
27999.999999873,842.546976203206,1.0000000001589,0.522002495736998
28099.9999998716,840.345040289108,1.00000000019408,0.542094786958969
28199.9999998701,838.165743238688,1.00000000021478,0.554009772834171
28299.9999998687,836.018272573224,1.00000000022265,0.558723285117562
28399.9999998672,833.909186130265,1.00000000022833,0.559321860926855
28499.9999998658,831.832202773326,1.00000000021009,0.552180560278779
28599.9999998643,829.779718700642,1.00000000020506,0.540917876034551
28699.9999998629,827.736089718624,1.00000000017629,0.519932516402733
28799.9999998614,825.680681997075,1.00000000014162,0.492423370270044
