Time,AGPnorm,Energy,Entropy
0,0,1,-1.23532134553362e-17
99.9999999999986,1.61979244299594e-05,1.00000000000088,0.000736467315406674
199.999999999993,0.00138089652674813,1.00000000000168,0.0011390930141478
300,0.00349927178314244,0.999999999999616,0.00203768064269769
400.000000000022,0.00483628474968222,1.000000000002,0.00349364475902461
500.000000000045,0.00589570035305636,1.00000000000036,0.00464270528956879
600.000000000068,0.00849221364460282,1.00000000000049,0.00655482735973409
700.000000000091,0.0104355631029632,1.00000000000191,0.00834512463749314
800.000000000113,0.0134236854730485,0.999999999999663,0.0103020947383535
900.000000000136,0.0167784914880494,1.00000000000171,0.0127283053733146
1000.00000000016,0.0195917607854521,1.00000000000074,0.0148834767481836
1100.0000000001,0.023634917616881,1.00000000000018,0.0175559071159139
1200,0.0276124099237919,1.00000000000203,0.020231996653153
1299.99999999991,0.0319078347977927,0.999999999999817,0.0229432333780461
1399.99999999982,0.0366021901549642,1.00000000000136,0.026090948992507
1499.99999999973,0.0410608498361639,1.00000000000109,0.0290185790681445
1599.99999999964,0.0464838741771071,0.999999999999985,0.0323265889306043
1699.99999999955,0.0520228835633729,1.000000000002,0.0357402333623597
1799.99999999946,0.0575534531740351,1.00000000000004,0.0391097571208503
1899.99999999937,0.0634352753439706,1.00000000000101,0.0428962401312346
1999.99999999928,0.0692623465677133,1.00000000000139,0.0465376202218477
2099.99999999919,0.0757225871904015,0.999999999999906,0.0504669184308948
2199.99999999909,0.0823700784204775,1.00000000000186,0.0545887573744642
2299.999999999,0.0889530574658674,1.00000000000031,0.0586254298727366
2399.99999999891,0.0958355982072036,1.0000000000007,0.0630722700026844
2499.99999999882,0.102749239858802,1.00000000000161,0.0674672057209963
2599.99999999873,0.109925080516759,0.999999999999927,0.0720821975565412
2699.99999999864,0.117265404595455,1.00000000000165,0.0769773979285948
2799.99999999855,0.124618026344682,1.0000000000006,0.0817937718802151
2899.99999999846,0.132193858389712,1.00000000000044,0.0870262264055343
2999.99999999837,0.139865000558749,1.0000000000017,0.0923243671090979
3099.99999999828,0.147531321348372,1.00000000000003,0.0978040291452003
3199.99999999819,0.155269222572539,1.00000000000143,0.103671901939941
3299.99999999809,0.163056842298201,1.00000000000091,0.109525866247081
3399.999999998,0.170954868501847,1.00000000000027,0.115844411955901
3499.99999999791,0.178962095932096,1.0000000000017,0.122404610205065
3599.99999999782,0.186895478358214,1.00000000000024,0.129174475218242
3699.99999999773,0.194828530063042,1.00000000000129,0.136529695347197
3799.99999999764,0.202713118193788,1.00000000000139,0.14406283420805
3899.99999999755,0.21070416735242,1.00000000000069,0.152212483251587
3999.99999999746,0.218615577239945,1.00000000000261,0.160953180054901
4099.99999999738,0.226526563672251,1.00000000000235,0.170102930080321
4199.99999999775,0.234790560676681,1.00000000000468,0.18015329051697
4299.99999999811,0.242042672214147,1.00000000000806,0.190643457159124
4399.99999999848,0.250849733042503,1.0000000000114,0.201769668416065
4499.99999999884,0.259105457796793,1.00000000001886,0.213541085051364
4599.9999999992,0.267172977490325,1.00000000002673,0.225406186480997
4699.99999999957,0.28034796752108,1.0000000000369,0.237776458441245
4799.99999999993,0.290071334283419,1.00000000004925,0.250076443954794
4900.00000000029,0.309340802568153,1.00000000006485,0.262225871818443
5000.00000000066,0.334579821557422,1.00000000008211,0.274509125104956
5100.00000000102,0.363817519832492,1.00000000009489,0.286319107988464
5200.00000000139,0.418987046849322,1.00000000011102,0.298107584574945
5300.00000000175,0.48110671759436,1.00000000013432,0.309587009216144
5400.00000000211,0.576719142328395,1.00000000015032,0.32067625406954
5500.00000000248,0.710240334374396,1.00000000017539,0.331722316799367
5600.00000000284,0.871653692686429,1.00000000019405,0.342262665596461
5700.00000000321,1.10489194032477,1.00000000021823,0.352565021655659
5800.00000000357,1.38600087706761,1.0000000002408,0.362677211827157
5900.00000000393,1.74501456556194,1.00000000025271,0.37231058447378
6000.0000000043,2.20228472470881,1.00000000027637,0.381845668548152
6100.00000000466,2.73597067840251,1.00000000029623,0.390922723516824
6200.00000000502,3.40347582592168,1.00000000029931,0.399718668000905
6300.00000000539,4.18345853172918,1.0000000003182,0.408328064071952
6400.00000000575,5.09613650360518,1.00000000034299,0.41638321839096
6500.00000000612,6.17668205873715,1.00000000036607,0.42429223531957
6600.00000000648,7.39305958223527,1.00000000037689,0.431924640238252
6700.00000000684,8.80104136484556,1.00000000038514,0.439163233829851
6800.00000000721,10.3868650717933,1.00000000039634,0.446318478136976
6900.00000000757,12.1539588725501,1.00000000041008,0.452995042148246
7000.00000000793,14.1447436246915,1.00000000042115,0.459460840735823
7100.0000000083,16.3220143179618,1.0000000004261,0.465698206694099
7200.00000000866,18.7284535056619,1.00000000043426,0.471513846779231
7300.00000000903,21.3582084472688,1.00000000043993,0.47734238041338
7400.00000000939,24.199646647474,1.00000000042888,0.482771462554176
7500.00000000975,27.2923255484316,1.00000000045264,0.48781171379265
7600.00000001012,30.5993765054343,1.00000000046853,0.492721507863062
7700.00000001048,34.1474425267967,1.00000000047508,0.497353471551824
7800.00000001084,37.9351038587249,1.00000000046779,0.50195447698324
7900.00000001121,41.9404604151786,1.00000000047934,0.506123317439435
8000.00000001157,46.1950370569313,1.00000000049747,0.510060443568292
8100.00000001194,50.6646438567753,1.00000000051226,0.513902837937895
8200.0000000123,55.3619795748486,1.00000000049815,0.517521034719178
8300.00000001266,60.2871303666022,1.0000000004948,0.520987052707178
8400.00000001303,65.4128856158477,1.00000000049768,0.524206220783503
8500.00000001339,70.761865741678,1.00000000048972,0.52723978142063
8600.00000001376,76.3022095215358,1.00000000051513,0.530183548930923
8700.00000001412,82.0381077480947,1.00000000048866,0.532907558150729
8800.00000001448,87.9683189730062,1.00000000049342,0.535442172866202
8900.00000001485,94.0635128274021,1.00000000051204,0.537820098420144
9000.00000001521,100.339308536193,1.00000000050083,0.540017003439062
9100.00000001557,106.766760040336,1.00000000049723,0.542307109458284
9200.00000001594,113.344309910871,1.00000000048934,0.544181784869545
9300.0000000163,120.069849374781,1.00000000050405,0.54599520245479
9400.00000001667,126.912504561963,1.00000000050134,0.547899192021838
9500.00000001703,133.885922588099,1.00000000049379,0.549300576766461
9600.00000001739,140.961811718573,1.00000000048599,0.550978999688202
9700.00000001776,148.135145714977,1.00000000050743,0.552261301050547
9800.00000001812,155.405566234272,1.00000000048717,0.553498248274291
9900.00000001848,162.740643743357,1.0000000004988,0.554875319795801
10000.0000000188,170.15328146518,1.00000000049422,0.555826296074518
10100.0000000192,177.617837016715,1.0000000004878,0.556805300929556
10200.0000000196,185.126185574372,1.00000000049181,0.557970252375554
10300.0000000199,192.680568668455,1.00000000047405,0.558445675501645
10400.0000000203,200.248485088606,1.00000000047901,0.559741378575396
10500.0000000207,207.843166300284,1.00000000047125,0.560200899066353
10600.000000021,215.44228613091,1.00000000047154,0.560493930410006
10700.0000000214,223.033583239848,1.0000000004549,0.561852492844751
10800.0000000218,230.625092666207,1.00000000047334,0.561623293493307
10900.0000000221,238.183748001887,1.00000000045742,0.56222589169464
11000.0000000225,245.721734773669,1.00000000046571,0.562989851938174
11100.0000000229,253.224125855285,1.00000000044054,0.562784190678966
11200.0000000232,260.672423390965,1.00000000045017,0.563394242907647
11300.0000000236,268.080494100975,1.00000000044162,0.563728831809518
11400.0000000239,275.417531746818,1.00000000043408,0.563679883420047
11500.0000000243,282.691564620266,1.00000000045582,0.564092337207976
11600.0000000247,289.896137991776,1.00000000043379,0.563918734949745
11700.000000025,297.010904082786,1.000000000428,0.564004848411483
11800.0000000254,304.049199500246,1.00000000043923,0.564243276602483
11900.0000000258,310.988050386434,1.00000000040476,0.564033845658718
12000.0000000261,317.83017680979,1.00000000043354,0.563883135887653
12100.0000000265,324.574433504841,1.00000000041844,0.564115134081425
12200.0000000269,331.202268728109,1.00000000040955,0.563893419530255
12300.0000000272,337.725175437897,1.00000000042372,0.563704762108867
12400.0000000276,344.127419945221,1.00000000041208,0.563548173262807
12500.0000000279,350.408135482634,1.00000000039794,0.563241465735363
12600.0000000283,356.570867720566,1.00000000039205,0.563339126251036
12700.0000000287,362.597244376626,1.00000000038621,0.563117707518696
12800.000000029,368.500021027181,1.00000000039618,0.562548042618842
12900.0000000294,374.266069064833,1.00000000037534,0.562692194285897
13000.0000000298,379.894443524454,1.00000000038498,0.562115192716234
13100.0000000301,385.389872800806,1.00000000039159,0.56196312461969
13200.0000000305,390.738143308333,1.0000000003898,0.56178087871038
13300.0000000309,395.949842773108,1.00000000038085,0.561053529557988
13400.0000000312,401.015982846037,1.00000000036723,0.561042735015842
13500.0000000316,405.934239966682,1.00000000035179,0.561244704867499
13600.0000000319,410.712546645931,1.00000000035152,0.5602792700679
13700.0000000323,415.33603604538,1.0000000003464,0.560187498469417
13800.0000000327,419.815845696279,1.00000000036462,0.559996487192801
13900.000000033,424.148993583482,1.00000000034726,0.559290902038777
14000.0000000334,428.328385025554,1.00000000035369,0.558895368580684
14100.0000000338,432.365407367447,1.00000000035682,0.558732373101234
14200.0000000341,436.249014249553,1.00000000035282,0.558569061950007
14300.0000000345,439.98648848035,1.00000000035116,0.558023781993795
14400.0000000349,443.577976150454,1.00000000034164,0.557619286193424
14500.0000000352,447.017866398229,1.00000000034215,0.557157564454887
14600.0000000356,450.316594557958,1.0000000003214,0.556852695021593
14700.0000000359,453.464944694273,1.00000000033432,0.557059010164238
14800.0000000363,456.471002697393,1.00000000032169,0.55695132160674
14900.0000000367,459.335279376032,1.00000000031384,0.555612630729226
15000.000000037,462.05226701493,1.00000000031758,0.555208539678436
15100.0000000374,464.632001584127,1.00000000031414,0.555069161537227
15200.0000000378,467.069894245851,1.0000000003086,0.555609714973446
15300.0000000381,469.370047948787,1.00000000031523,0.556006678540303
15400.0000000385,471.536803949047,1.0000000003026,0.554948281159482
15500.0000000389,473.566020300204,1.00000000030305,0.553538381169271
15600.0000000392,475.463392867138,1.00000000030478,0.55200683942318
15700.0000000396,477.228356252102,1.00000000029147,0.553018136124873
15800.0000000399,478.862421515635,1.00000000029774,0.556041623750766
15900.0000000403,480.378571245735,1.00000000029471,0.556079892938455
16000.0000000407,481.76766094341,1.00000000028752,0.554301836227134
16100.000000041,483.038727856283,1.00000000028746,0.549432377656328
16200.0000000414,484.18248418727,1.00000000027814,0.548534941810544
16300.0000000418,485.203788583225,1.00000000027261,0.551113869823088
16400.0000000418,486.111921682865,1.00000000028298,0.555853590102556
16500.0000000404,486.910853560224,1.00000000029089,0.558090670476284
16600.0000000389,487.610176475322,1.00000000028567,0.554926705053133
16700.0000000375,488.20500939804,1.00000000027943,0.548596797103849
16800.000000036,488.685959244613,1.00000000025434,0.543011720150478
16900.0000000346,489.053588869324,1.00000000025513,0.544831430727727
17000.0000000331,489.312941680079,1.00000000026343,0.552737809136251
17100.0000000317,489.485073766866,1.00000000029092,0.560628705604638
17200.0000000302,489.582416876869,1.00000000028808,0.560417284933514
17300.0000000287,489.600852044842,1.00000000027807,0.552040284177099
17400.0000000273,489.532445955805,1.00000000025211,0.540766779241297
17500.0000000258,489.359085234574,1.00000000022338,0.534755935545467
17600.0000000244,489.084664759992,1.00000000023827,0.540574126853915
17700.0000000229,488.72581876571,1.00000000026896,0.553583418381137
17800.0000000215,488.305817158293,1.00000000030071,0.563802636853407
17900.00000002,487.842024763361,1.00000000031034,0.563056467532305
18000.0000000186,487.3280482863,1.00000000029381,0.551907614813819
18100.0000000171,486.746828743981,1.0000000002455,0.535108592416549
18200.0000000156,486.078330551441,1.00000000021596,0.524534591732768
18300.0000000142,485.31797423047,1.00000000021981,0.528646458999345
18400.0000000127,484.485232702832,1.00000000025366,0.545855141829498
18500.0000000113,483.607772501325,1.00000000031291,0.563180737556503
18600.0000000098,482.710354732324,1.00000000032861,0.568730245792221
18700.0000000084,481.796933321202,1.00000000031655,0.559616491646431
18800.0000000069,480.847485116389,1.00000000026621,0.538923874209874
18900.0000000055,479.838516912025,1.00000000021126,0.517881302958246
19000.000000004,478.749719513187,1.00000000018774,0.50843070947881
19100.0000000026,477.586523198079,1.00000000020869,0.520974584867163
19200.0000000011,476.37456770633,1.00000000027475,0.546641794515502
19299.9999999996,475.144430885305,1.00000000034155,0.566689489154286
19399.9999999982,473.92037765196,1.0000000003503,0.571866310134233
19499.9999999967,472.700595532109,1.00000000034031,0.559683806753748
19599.9999999953,471.465450220826,1.00000000027356,0.535354334784895
19699.9999999938,470.187949891025,1.00000000020769,0.507095474435505
19799.9999999924,468.844365377683,1.00000000017439,0.4918649697024
19899.9999999909,467.436826129159,1.00000000018553,0.500637052164914
19999.9999999895,465.984385815205,1.00000000025924,0.530651448401038
20099.999999988,464.51938015073,1.00000000034035,0.56006759017166
20199.9999999865,463.069494515242,1.00000000037567,0.574220511304168
20299.9999999851,461.641624746404,1.00000000037575,0.570113454867122
20399.9999999836,460.227482466084,1.00000000033891,0.55137471717439
20499.9999999822,458.802527007718,1.00000000026578,0.519795294408456
20599.9999999807,457.339994090057,1.00000000019297,0.489163121499529
20699.9999999793,455.824257765915,1.00000000015859,0.475330654717112
20799.9999999778,454.255846281376,1.00000000018204,0.488667784907885
20899.9999999764,452.65840812597,1.00000000025373,0.524813759242933
20999.9999999749,451.059304233679,1.00000000034633,0.558074296107795
21099.9999999734,449.481112391721,1.00000000039718,0.57439127626791
21199.999999972,447.934333520659,1.00000000038987,0.573933865930016
21299.9999999705,446.412379059949,1.00000000036333,0.559440647662021
21399.9999999691,444.898685444074,1.00000000028495,0.530396072797138
21499.9999999676,443.368924488106,1.00000000022505,0.494282903564211
21599.9999999662,441.803470476487,1.00000000016829,0.467841165236707
21699.9999999647,440.197105004321,1.00000000015872,0.465243568324177
21799.9999999633,438.556699733377,1.00000000019943,0.489018077114435
21899.9999999618,436.904237150835,1.00000000027396,0.527470467587933
21999.9999999603,435.261057096194,1.00000000036081,0.558439634046245
22099.9999999589,433.642433141818,1.00000000040469,0.573639571498416
22199.9999999574,432.056407590383,1.0000000004106,0.572541558496261
22299.999999956,430.49777981555,1.00000000037077,0.55876714291644
22399.9999999545,428.953572094052,1.00000000032001,0.533443915822547
22499.9999999531,427.406752839169,1.00000000024197,0.498952683203693
22599.9999999516,425.839803434167,1.00000000018245,0.468679464568439
22699.9999999502,424.246758176489,1.00000000016218,0.456343284013047
22799.9999999487,422.627051363081,1.00000000017682,0.466194446502974
22899.9999999473,420.992594424056,1.00000000023388,0.495081936003692
22999.9999999458,419.358377834917,1.00000000030738,0.530606329565799
23099.9999999443,417.738066130671,1.00000000036514,0.556625629801163
23199.9999999429,416.142438794924,1.00000000039457,0.567997060824079
23299.9999999414,414.574627331943,1.00000000039988,0.56548620646027
23399.99999994,413.031082051686,1.00000000038165,0.553312389046514
23499.9999999385,411.504069885732,1.0000000003234,0.531950279739452
23599.9999999371,409.980992352986,1.00000000025941,0.504278608543659
23699.9999999356,408.45230454941,1.00000000021195,0.476396777193263
23799.9999999342,406.909884480302,1.00000000017859,0.458288793729039
23899.9999999327,405.353284067321,1.00000000018771,0.457601896481122
23999.9999999312,403.786499107522,1.00000000020482,0.471828774070249
24099.9999999298,402.215778156697,1.00000000024082,0.496793493478811
24199.9999999283,400.651175321068,1.00000000031743,0.525361237082099
24299.9999999269,399.100359364817,1.00000000035238,0.545872276650206
24399.9999999254,397.568286631296,1.0000000003831,0.556961352036105
24499.999999924,396.058018461928,1.00000000038236,0.553992786046902
24599.9999999225,394.567250450186,1.00000000037544,0.545533758506955
24699.9999999211,393.091972840889,1.00000000032513,0.529560586126427
24799.9999999196,391.626111577587,1.00000000029454,0.511529218430636
24899.9999999181,390.163177719831,1.00000000026099,0.491986648066782
24999.9999999167,388.699483292388,1.00000000021682,0.474338148290746
25099.9999999152,387.231736141861,1.00000000021166,0.463799229851318
25199.9999999138,385.76177144306,1.00000000020803,0.462659556945247
25299.9999999123,384.290625226382,1.0000000002274,0.473194859898535
25399.9999999109,382.821867157547,1.00000000025117,0.4896653586377
25499.9999999094,381.35986328017,1.0000000002918,0.509383096644806
25599.999999908,379.907785385604,1.00000000033069,0.526839787598565
25699.9999999065,378.468856360566,1.00000000034148,0.538249711439344
25799.9999999051,377.044977932413,1.00000000036239,0.538889877313364
25899.9999999036,375.635284011518,1.00000000035266,0.536596974856069
25999.9999999021,374.239174876827,1.00000000033326,0.528267580803012
26099.9999999007,372.854048014225,1.0000000003142,0.518572140185124
26199.9999998992,371.47736513508,1.00000000029027,0.509384848479712
26299.9999998978,370.107324448588,1.00000000026357,0.49838252516346
26399.9999998963,368.741851176175,1.00000000024912,0.488524060361956
26499.9999998949,367.381212899605,1.00000000022436,0.479057917786991
26599.9999998934,366.024535059782,1.00000000021706,0.474011273990463
26699.999999892,364.673158092707,1.00000000022695,0.473122589822469
26799.9999998905,363.327403170273,1.00000000023891,0.479644646221008
26899.999999889,361.987999691571,1.00000000025098,0.489004222788459
26999.9999998876,360.656758432612,1.00000000028132,0.501449819314741
27099.9999998861,359.33446295918,1.0000000003123,0.511760043143707
27199.9999998847,358.021802638261,1.00000000032101,0.520071877621483
27299.9999998832,356.719679528934,1.00000000033822,0.523222705028341
27399.9999998818,355.427716760057,1.0000000003363,0.523641020398042
27499.9999998803,354.145539883464,1.0000000003132,0.522640598701929
27599.9999998789,352.872961977464,1.00000000031279,0.517671702531343
27699.9999998774,351.608785883238,1.00000000029033,0.512853462031382
27799.9999998759,350.353066153057,1.00000000029251,0.508481211039746
27899.9999998745,349.105191191186,1.00000000026898,0.505573500397109
27999.999999873,347.865494507987,1.00000000027116,0.503890934139925
28099.9999998716,346.634035586084,1.00000000026083,0.499025026787998
28199.9999998701,345.411146579718,1.00000000024082,0.491952374496807
28299.9999998687,344.197251707169,1.00000000024637,0.487029588086076
28399.9999998672,342.991811445038,1.00000000024295,0.482622512391345
28499.9999998658,341.79565147931,1.00000000022987,0.481040200523824
28599.9999998643,340.608414149971,1.00000000023648,0.483019248488878
28699.9999998629,339.430307436165,1.00000000024607,0.488956002757007
28799.9999998614,338.261407069399,1.00000000027804,0.496870127032498
28899.9999998599,337.101126991402,1.00000000029238,0.505404309025341
