Time,AGPnorm,Energy,Entropy
0,0,1,5.76616770686684e-18
99.9999999999986,0.00234144667118337,0.999999999999615,0.00831964694145041
199.999999999993,0.00679029382481451,1.00000000000011,0.0243352957188282
300,0.0143839250783873,0.999999999999588,0.0475883375621254
400.000000000022,0.0231680056687192,1.00000000000036,0.0760537389021402
500.000000000045,0.0335290306131973,0.999999999999821,0.111006899090734
600.000000000068,0.0447507900990861,1.00000000000281,0.153468807912913
700.000000000091,0.0556716981427367,1.00000000001607,0.206769712424878
800.000000000113,0.076472659614133,1.00000000007993,0.272240114812727
900.000000000136,0.123018007579889,1.0000000002349,0.34391238435763
1000.00000000016,0.326034341118529,1.00000000044553,0.409514117845149
1100.0000000001,0.847291612754226,1.00000000064853,0.4615281417544
1200,1.959268510336,1.000000000773,0.498524689515648
1299.99999999991,3.81826306327352,1.00000000088009,0.52348631927638
1399.99999999982,6.53322607778686,1.0000000009867,0.537839258653017
1499.99999999973,10.0479538488008,1.00000000093935,0.546210787059276
1599.99999999964,14.2599734711322,1.00000000100515,0.548479383062425
1699.99999999955,18.9589720740039,1.00000000099854,0.548074377186302
1799.99999999946,23.9658106415723,1.00000000088644,0.543742072659813
1899.99999999937,29.0399514175588,1.00000000097201,0.538605910305898
1999.99999999928,34.0317532124202,1.00000000085048,0.532787410903858
2099.99999999919,38.7426919578249,1.00000000084713,0.52474366040042
2199.99999999909,43.0881645577407,1.00000000080781,0.516627182200892
2299.999999999,46.9532150621836,1.00000000076868,0.515994984562727
2399.99999999891,50.3046165485393,1.00000000074993,0.498856551910053
2499.99999999882,53.0872610687334,1.00000000069307,0.495723795888372
2599.99999999873,55.3454894809836,1.0000000006935,0.510168332534032
2699.99999999864,57.0837259826493,1.00000000055954,0.48134815221139
2799.99999999855,58.2409979161901,1.00000000051298,0.458516441629451
2899.99999999846,58.9511254954802,1.00000000064067,0.509641169160583
2999.99999999837,59.380876099954,1.00000000065295,0.518009703636534
3099.99999999828,59.4539715766057,1.00000000044721,0.436022008374726
3199.99999999819,59.052596186348,1.00000000037218,0.415144613540022
3299.99999999809,58.4148828356046,1.00000000060922,0.511002554331314
3399.999999998,57.8001532764293,1.00000000078367,0.5547492224176
3499.99999999791,57.172024041767,1.00000000060558,0.482475123521527
3599.99999999782,56.3014469611223,1.00000000024445,0.345073118275622
3699.99999999773,55.1708392463285,1.00000000032099,0.36988722081181
3799.99999999764,53.9948090310092,1.0000000006551,0.494307960751742
3899.99999999755,52.9322010446124,1.00000000086475,0.552345000079944
3999.99999999746,52.0225419113888,1.00000000075352,0.547240016109916
4099.99999999738,51.1482497142185,1.00000000057439,0.452316930810762
4199.99999999775,50.1626002163587,1.00000000026772,0.304837705236839
4299.99999999811,49.0830957917735,1.0000000002166,0.282889339658882
4399.99999999848,48.0029693473688,1.00000000052032,0.412059846729467
4499.99999999884,46.9546357097162,1.00000000074061,0.500602522676062
4599.9999999992,45.9648843901463,1.00000000084775,0.510793842643772
4699.99999999957,45.0672477523024,1.0000000008442,0.535833194496143
4799.99999999993,44.2576301795278,1.00000000074755,0.54581863940662
4900.00000000029,43.4736700680953,1.00000000050996,0.467617479547932
5000.00000000066,42.6632185563969,1.00000000029664,0.334346101417155
5100.00000000102,41.8684030411244,1.00000000021654,0.256743979534488
5200.00000000139,41.1620312831544,1.00000000030352,0.299320691768158
5300.00000000175,40.5316200118618,1.00000000051669,0.402250533270069
5400.00000000211,39.8985946210412,1.00000000073306,0.501200554616683
5500.00000000248,39.2394407629517,1.00000000067157,0.532248226102502
5600.00000000284,38.5822063287327,1.00000000054775,0.479049530658815
5700.00000000321,37.9371290837652,1.00000000057057,0.445717516490128
5800.00000000357,37.2945348142661,1.0000000007977,0.500653063554623
5900.00000000393,36.6667949914801,1.00000000089711,0.556553361839528
6000.0000000043,36.0742189302883,1.00000000079694,0.558156031026119
6100.00000000466,35.5049186241562,1.00000000057534,0.498919600612335
6200.00000000502,34.950961550991,1.00000000034266,0.392469433170976
6300.00000000539,34.4644393792912,1.00000000017476,0.288021266177731
6400.00000000575,34.1261179657844,1.00000000021343,0.248246869237803
6500.00000000612,33.9563307861955,1.00000000034521,0.295065418747498
6600.00000000648,33.9010124099872,1.0000000004916,0.379071569940522
6700.00000000684,33.8632626375143,1.00000000064319,0.458726968152635
6800.00000000721,33.7559226503808,1.00000000071273,0.500579500692045
6900.00000000757,33.5461520267951,1.00000000075657,0.511956002318831
7000.00000000793,33.2487144763309,1.00000000076043,0.530664659957813
7100.0000000083,32.9067600145295,1.00000000059952,0.537756167642323
7200.00000000866,32.5677312288174,1.0000000004702,0.494204388907401
7300.00000000903,32.2641246877683,1.00000000038954,0.44984279617766
7400.00000000939,31.982081326135,1.00000000047289,0.464058824582085
7500.00000000975,31.6811957523997,1.00000000062735,0.491148173838076
7600.00000001012,31.3467069072917,1.00000000068874,0.498526000191442
7700.00000001048,30.9827177840933,1.00000000072031,0.501928852809564
7800.00000001084,30.5996763657887,1.00000000083865,0.53027635040231
7900.00000001121,30.2166983962504,1.00000000083702,0.561836683351434
8000.00000001157,29.8474576535424,1.00000000074239,0.56189529129932
8100.00000001194,29.4880446531947,1.00000000057793,0.525275580871056
8200.0000000123,29.1376822925523,1.00000000039019,0.454779479645484
8300.00000001266,28.8298070200789,1.00000000024987,0.368580718095845
8400.00000001303,28.6343344447146,1.00000000017185,0.300153567963744
8500.00000001339,28.6221968592708,1.00000000017974,0.260246902239726
8600.00000001376,28.8258194996555,1.00000000027267,0.26949427858944
8700.00000001412,29.2233471733684,1.00000000036316,0.3161482446588
8800.00000001448,29.7322831310253,1.00000000053609,0.374280858026489
8900.00000001485,30.2446396097553,1.000000000653,0.438445093829558
9000.00000001521,30.6795670071982,1.00000000069648,0.486525385536799
9100.00000001557,31.0057240501456,1.00000000070853,0.512953947184319
9200.00000001594,31.2211863431426,1.00000000066626,0.532538023592062
9300.0000000163,31.3317109559862,1.00000000067616,0.552503956291896
9400.00000001667,31.3644530560837,1.00000000062758,0.549506902075648
9500.00000001703,31.3513132727854,1.00000000054523,0.522886271477585
9600.00000001739,31.3090462772591,1.00000000055168,0.498178491318344
9700.00000001776,31.2276665491221,1.00000000065326,0.50335468279598
9800.00000001812,31.0930684356978,1.00000000070918,0.523660962079688
9900.00000001848,30.9204700236071,1.00000000060606,0.535422726975825
10000.0000000188,30.7436173372835,1.00000000051536,0.518864047706544
10100.0000000192,30.5860407699489,1.00000000045111,0.491517737027846
10200.0000000196,30.44705387038,1.00000000051459,0.479470770135838
10300.0000000199,30.3174491260503,1.00000000055118,0.479321825557287
10400.0000000203,30.1923445745076,1.00000000053963,0.488931237872021
10500.0000000207,30.0670433142656,1.00000000055956,0.497488111237309
10600.000000021,29.9360786710259,1.00000000056366,0.51012431919473
10700.0000000214,29.7933197176119,1.00000000063932,0.526466454959156
10800.0000000218,29.6351801278137,1.00000000054469,0.540158971920087
10900.0000000221,29.4679403111752,1.00000000052823,0.537974580422224
11000.0000000225,29.3003727583734,1.00000000044443,0.534219197459372
11100.0000000229,29.1313670041326,1.00000000049692,0.534133572079679
11200.0000000232,28.9530843731029,1.00000000053275,0.534207909470799
11300.0000000236,28.7584382063976,1.00000000057497,0.53810445930031
11400.0000000239,28.5458156710288,1.00000000064925,0.539108357827894
11500.0000000243,28.3177810338446,1.00000000077026,0.546233099267806
11600.0000000247,28.0824009364045,1.00000000078582,0.551271472135854
11700.000000025,27.8520068900195,1.00000000076626,0.556028603270533
11800.0000000254,27.6382788722355,1.00000000087259,0.566973940659832
11900.0000000258,27.4473852133147,1.00000000083691,0.571247980017904
12000.0000000261,27.2737281566089,1.00000000075977,0.570793663711067
12100.0000000265,27.1003639629125,1.00000000064171,0.551376362560943
12200.0000000269,26.9109037948747,1.00000000050801,0.513374892089762
12300.0000000272,26.7030669882758,1.00000000037812,0.463745852706905
12400.0000000276,26.4980206893316,1.00000000026621,0.407079032426434
12500.0000000279,26.3389114557915,1.00000000020786,0.350373058272798
12600.0000000283,26.2829142053111,1.00000000016678,0.307353696214127
12700.0000000287,26.3851709329951,1.00000000017097,0.28318245756794
12800.000000029,26.691458543304,1.00000000018408,0.271277033286898
12900.0000000294,27.2247337183634,1.00000000024117,0.276392349155497
13000.0000000298,27.9631956361001,1.00000000034653,0.30594446207548
13100.0000000301,28.8534613968639,1.00000000044802,0.344422307955218
13200.0000000305,29.8344664785335,1.0000000005299,0.385382872442866
13300.0000000309,30.8256207574435,1.00000000066617,0.425336938095562
13400.0000000312,31.7590450375431,1.00000000071087,0.46181337628713
13500.0000000316,32.6062409201257,1.00000000068067,0.488537334511727
13600.0000000319,33.3513418379654,1.00000000068915,0.507187200192857
13700.0000000323,33.990640981351,1.00000000069295,0.531180309661829
13800.0000000327,34.5238206426667,1.00000000064218,0.550076244293281
13900.000000033,34.9582464930739,1.00000000067596,0.559369980274171
14000.0000000334,35.3089119938249,1.0000000006053,0.550438335674248
14100.0000000338,35.5932050076515,1.00000000057037,0.543563521017872
14200.0000000341,35.8218723013867,1.00000000059591,0.553090001816187
14300.0000000345,35.9914317821082,1.00000000057465,0.570572318586657
14400.0000000349,36.1044585706752,1.00000000060199,0.573977034510547
14500.0000000352,36.1701588119643,1.00000000057924,0.565954506824716
14600.0000000356,36.1950375000225,1.00000000066345,0.549526708252965
14700.0000000359,36.1855581474708,1.00000000055665,0.536891457959674
14800.0000000363,36.1558276907865,1.00000000056153,0.526699238695751
14900.0000000367,36.1136802820789,1.00000000057607,0.531799945452293
15000.000000037,36.0503585167688,1.00000000061788,0.542304212916137
15100.0000000374,35.9663250301152,1.00000000058117,0.545149225672691
15200.0000000378,35.8699805468178,1.00000000056268,0.550423928262513
15300.0000000381,35.7637826690452,1.00000000058561,0.554243302163218
15400.0000000385,35.6437976564105,1.00000000061868,0.554194642502071
15500.0000000389,35.5116290729477,1.00000000059784,0.549602962809205
15600.0000000392,35.3726078912243,1.00000000057007,0.548295187354353
15700.0000000396,35.2326928814218,1.00000000050855,0.536863284907801
15800.0000000399,35.0991204466111,1.00000000047108,0.528270503336769
15900.0000000403,34.9727091784864,1.0000000004794,0.527418585149095
16000.0000000407,34.8454079154117,1.00000000059054,0.53058171634665
16100.000000041,34.7095213594597,1.00000000061589,0.533511557223098
16200.0000000414,34.565107383682,1.00000000063743,0.537638535120949
16300.0000000418,34.4131277375201,1.00000000070214,0.544807803265688
16400.0000000418,34.2502586437049,1.00000000068603,0.556940404184062
16500.0000000404,34.0799370017576,1.00000000063974,0.561970074561099
16600.0000000389,33.9083494994372,1.00000000058692,0.553492399138789
16700.0000000375,33.7423841821885,1.00000000052327,0.550815274126641
16800.000000036,33.5892681974972,1.0000000004723,0.536531460550421
16900.0000000346,33.456813184088,1.00000000042823,0.520769037563488
17000.0000000331,33.3490066815951,1.00000000040324,0.503611126486504
17100.0000000317,33.2633736325402,1.00000000048465,0.491062920244707
17200.0000000302,33.1894104083415,1.00000000055982,0.483689458670401
17300.0000000287,33.1195918355093,1.00000000056256,0.494033842144424
17400.0000000273,33.0549534249041,1.00000000053633,0.500375069834551
17500.0000000258,32.998068197881,1.00000000050131,0.503694378705402
17600.0000000244,32.9473962710016,1.00000000054551,0.518366507912705
17700.0000000229,32.8988383934355,1.00000000051311,0.534510930939841
17800.0000000215,32.8482602281606,1.00000000056888,0.544126195242014
17900.00000002,32.7888265656726,1.00000000062242,0.547492082701307
18000.0000000186,32.7183286303118,1.00000000063995,0.53893855469253
18100.0000000171,32.6411462032163,1.00000000051718,0.534463891455279
18200.0000000156,32.561775235834,1.0000000005465,0.53959403189076
18300.0000000142,32.4802191053935,1.00000000058007,0.547712241979351
18400.0000000127,32.3927013249657,1.00000000053305,0.559217561243266
18500.0000000113,32.3012399666851,1.00000000057482,0.57328618926822
18600.0000000098,32.209320165573,1.00000000054842,0.576870785140751
18700.0000000084,32.1143982722912,1.00000000056006,0.580089569769935
18800.0000000069,32.0131050617624,1.00000000060445,0.581886695045549
18900.0000000055,31.9041634499702,1.00000000064657,0.585482783192822
19000.000000004,31.7870018854663,1.00000000061613,0.585622484396905
19100.0000000026,31.6639724499188,1.00000000059835,0.586257158118248
19200.0000000011,31.5415472816733,1.00000000051167,0.585787953845634
19299.9999999996,31.4236552260957,1.00000000047699,0.574793071144851
19399.9999999982,31.3096592336649,1.00000000053283,0.56910924483489
19499.9999999967,31.1930431964951,1.00000000062011,0.567306050077621
19599.9999999953,31.0722438538557,1.00000000054856,0.554789131547306
19699.9999999938,30.9523100598081,1.00000000051417,0.547568529536756
19799.9999999924,30.8367121087743,1.00000000049121,0.553825416496253
19899.9999999909,30.7242035561019,1.00000000055334,0.557420205336512
19999.9999999895,30.6113761172786,1.00000000054789,0.561031525058346
20099.999999988,30.4993586780564,1.00000000054918,0.563635082708571
20199.9999999865,30.3888830219321,1.00000000050779,0.570862255245969
20299.9999999851,30.2792265407728,1.00000000052079,0.564674857017105
20399.9999999836,30.1671089578012,1.00000000059388,0.561659416180605
20499.9999999822,30.0489924076643,1.00000000061731,0.572238515844184
20599.9999999807,29.9258439879393,1.00000000064749,0.567224616447515
20699.9999999793,29.8000192973338,1.00000000057883,0.556537105227634
20799.9999999778,29.6728565702088,1.00000000057969,0.557735021565257
20899.9999999764,29.5429949791123,1.00000000063476,0.576260049033478
20999.9999999749,29.4105171488523,1.00000000059478,0.592501876355578
21099.9999999734,29.2772390058332,1.00000000060382,0.592687984088821
21199.999999972,29.144670806165,1.00000000049876,0.580578437244753
21299.9999999705,29.0143300564962,1.00000000053764,0.57558737028579
21399.9999999691,28.8847611238764,1.00000000057048,0.581470739636515
21499.9999999676,28.7538631045931,1.00000000061005,0.587316287433175
21599.9999999662,28.6222384103313,1.00000000059614,0.598215135242879
21699.9999999647,28.4914112248392,1.00000000052085,0.590358219910642
21799.9999999633,28.3616814778705,1.00000000045957,0.570121269989607
21899.9999999618,28.2332770793985,1.00000000045456,0.571608921367828
21999.9999999603,28.1058024177526,1.00000000053078,0.584109611128409
22099.9999999589,27.9793255351022,1.00000000048315,0.584360290680837
22199.9999999574,27.8541196043641,1.00000000049222,0.579538314937055
22299.999999956,27.7306145084314,1.00000000051408,0.577555935376653
22399.9999999545,27.6092184037876,1.00000000054149,0.590076819604501
22499.9999999531,27.4917421093013,1.00000000057431,0.589612411647737
22599.9999999516,27.3797292296857,1.00000000061787,0.577820429656399
22699.9999999502,27.2761246401537,1.0000000006384,0.58529719115539
22799.9999999487,27.185230858189,1.00000000068366,0.596911769025493
22899.9999999473,27.1107458517112,1.00000000072487,0.595842117414107
22999.9999999458,27.0606726891554,1.00000000068899,0.593893349746025
23099.9999999443,27.0360193130232,1.00000000075752,0.600181262358102
23199.9999999429,27.0483764741469,1.00000000084115,0.607260435343035
23299.9999999414,27.0990428190465,1.00000000081285,0.611895210980626
23399.99999994,27.1992843038627,1.00000000081102,0.617333983581654
23499.9999999385,27.3469195277229,1.00000000080978,0.617959401023804
23599.9999999371,27.5435406349804,1.00000000082766,0.614839321938057
23699.9999999356,27.79211508582,1.0000000008815,0.610128734315963
23799.9999999342,28.0837369605737,1.0000000008709,0.604036006534689
23899.9999999327,28.4193254752906,1.00000000083468,0.593597765226795
23999.9999999312,28.7667539968002,1.00000000080697,0.587462275215535
24099.9999999298,29.120007525642,1.00000000073751,0.578202924395633
24199.9999999283,29.4389457960637,1.00000000063939,0.566721409565513
24299.9999999269,29.7167222078386,1.00000000054971,0.548633556627365
24399.9999999254,29.9264122753425,1.00000000048092,0.526199648747921
24499.999999924,30.0643166035637,1.00000000042641,0.500467073393854
24599.9999999225,30.1283529710984,1.00000000037574,0.471288003784168
24699.9999999211,30.1187428928354,1.00000000031591,0.44189824336743
24799.9999999196,30.0592150556073,1.00000000026586,0.412135121259801
24899.9999999181,29.9596167375741,1.00000000022701,0.383036756697526
24999.9999999167,29.8558678997422,1.0000000002006,0.356997596343536
25099.9999999152,29.7717574585721,1.00000000018936,0.33325961889737
25199.9999999138,29.743739720312,1.00000000015579,0.310916012740662
25299.9999999123,29.805715551221,1.00000000015243,0.294750943898449
25399.9999999109,29.991271901957,1.00000000014865,0.281926835643773
25499.9999999094,30.3266056865264,1.00000000014322,0.272362068563662
25599.999999908,30.8470170676173,1.00000000017023,0.273107774545918
25699.9999999065,31.5469257176119,1.00000000020528,0.279531754417372
25799.9999999051,32.4682104309736,1.00000000024411,0.287189978909436
25899.9999999036,33.5636339291408,1.00000000028001,0.297463887465808
25999.9999999021,34.8686290635217,1.00000000034806,0.313764583365816
26099.9999999007,36.3139093744736,1.00000000040328,0.331593247549396
26199.9999998992,37.9043632138165,1.00000000047652,0.350303590784755
26299.9999998978,39.5719651274939,1.00000000052536,0.370548205670239
26399.9999998963,41.2984363611521,1.00000000059208,0.386757072059379
26499.9999998949,43.0495275373094,1.00000000063135,0.406215731647015
26599.9999998934,44.7708538937137,1.00000000069017,0.423780328990486
26699.999999892,46.4780014457433,1.00000000068357,0.438230449687449
26799.9999998905,48.107853486798,1.00000000071553,0.448827363856145
26899.999999889,49.6803037925876,1.00000000075415,0.464636616419031
26999.9999998876,51.1534805005685,1.00000000067342,0.483898571653674
27099.9999998861,52.5512895200462,1.00000000073442,0.496636461275539
27199.9999998847,53.8566414613321,1.00000000068937,0.503122207066817
27299.9999998832,55.0639771166877,1.00000000072011,0.506948532009823
27399.9999998818,56.1833709177827,1.00000000065413,0.522015766076424
27499.9999998803,57.2023744737176,1.00000000067821,0.536172037744072
27599.9999998789,58.1520876253717,1.00000000062903,0.544288018339288
27699.9999998774,59.0174883480014,1.00000000064581,0.546984554656497
27799.9999998759,59.817964577228,1.00000000067768,0.548754001009799
27899.9999998745,60.5398786282095,1.00000000066682,0.555202656952402
27999.999999873,61.1933752252924,1.00000000064014,0.564357156347067
28099.9999998716,61.7860005992044,1.00000000066046,0.575957051270375
28199.9999998701,62.3175137377121,1.00000000060137,0.574528744968574
28299.9999998687,62.8084252768571,1.00000000061243,0.577794585514606
28399.9999998672,63.2435896484779,1.00000000063906,0.572494187460869
28499.9999998658,63.6395770315513,1.00000000061877,0.577324412432474
28599.9999998643,63.9758306236155,1.00000000066115,0.588698122001711
28699.9999998629,64.2639752110658,1.0000000006987,0.597668430184052
28799.9999998614,64.5019654237053,1.00000000058667,0.602874984837721
28899.9999998599,64.7083597599461,1.00000000058823,0.597082952830422
28999.9999998585,64.8912799508487,1.00000000058561,0.589216139363911
