Time,AGPnorm,Energy,Entropy
0,0,1,4.75174931399211e-18
99.9999999999986,0.00560571508999896,0.999999999999571,0.0164125997594978
199.999999999993,0.0150312888827804,1.00000000000003,0.047470315570831
300,0.030953256777988,0.999999999999824,0.0933450995628537
400.000000000022,0.0477216728847009,1.00000000000347,0.153878727667053
500.000000000045,0.0639882434496493,1.00000000006517,0.24037324892753
600.000000000068,0.111137943884806,1.00000000048496,0.349864670527659
700.000000000091,0.294946190973359,1.00000000116991,0.446813853056856
800.000000000113,1.00157761649166,1.00000000157517,0.510515275858788
900.000000000136,2.44854991869842,1.00000000191894,0.547503465881868
1000.00000000016,4.726498925489,1.00000000203301,0.565449468474981
1100.0000000001,7.66600818079825,1.00000000220369,0.572420341847376
1200,10.9710946803778,1.00000000212068,0.571567186712188
1299.99999999991,14.3542560529122,1.00000000201935,0.56827213087642
1399.99999999982,17.5452561848613,1.00000000183376,0.561303099797064
1499.99999999973,20.3532080821305,1.00000000160811,0.550517843911967
1599.99999999964,22.6742869926013,1.00000000170293,0.546066192867047
1699.99999999955,24.4494002329898,1.00000000155518,0.53464331672309
1799.99999999946,25.7228992448945,1.00000000147951,0.537730454531678
1899.99999999937,26.46303634341,1.00000000121796,0.520892123365939
1999.99999999928,26.8451915671917,1.00000000127581,0.537787869795308
2099.99999999919,26.7947309793184,1.00000000093768,0.486726703872229
2199.99999999909,26.559365435739,1.00000000154094,0.570803128101371
2299.999999999,26.1455257541491,1.00000000069841,0.429332275422938
2399.99999999891,25.5060365674088,1.00000000147602,0.534486082378747
2499.99999999882,24.9435695594255,1.0000000016493,0.564322889404821
2599.99999999873,24.298517998894,1.00000000059556,0.370987533381935
2699.99999999864,23.5384448155375,1.00000000134862,0.484316982027139
2799.99999999855,22.8500322539105,1.00000000190153,0.576424417321148
2899.99999999846,22.2438909602238,1.00000000129994,0.485167917422655
2999.99999999837,21.5936231441244,1.00000000060509,0.334405313902427
3099.99999999828,20.9291956104713,1.00000000129841,0.469583359933802
3199.99999999819,20.2907092261446,1.00000000176972,0.536250474896936
3299.99999999809,19.7190073226015,1.00000000178161,0.568428833170585
3399.999999998,19.1857497250028,1.00000000093041,0.451219283386158
3499.99999999791,18.6809492463321,1.00000000073313,0.339299700571353
3599.99999999782,18.2229848006899,1.00000000114915,0.442830138109395
3699.99999999773,17.766065132572,1.00000000146387,0.536567275625115
3799.99999999764,17.321571524892,1.00000000131374,0.505160265732191
3899.99999999755,16.8836965170494,1.00000000189353,0.549131002235801
3999.99999999746,16.4663446873647,1.00000000155804,0.564183553769143
4099.99999999738,16.087868952114,1.00000000079186,0.426352248321391
4199.99999999775,15.8019217106119,1.00000000065017,0.340051035991334
4299.99999999811,15.598484892742,1.00000000122909,0.423618405561109
4399.99999999848,15.3926178369814,1.00000000148126,0.508496437952483
4499.99999999884,15.1486294262038,1.00000000144001,0.547488560405218
4599.9999999992,14.8942738330712,1.00000000118827,0.534351899326644
4699.99999999957,14.6555576558669,1.00000000114421,0.51726933673566
4799.99999999993,14.399871240916,1.00000000159386,0.525955536707493
4900.00000000029,14.1232731178742,1.00000000177704,0.567810329029981
5000.00000000066,13.8481191024978,1.00000000151057,0.571873469729183
5100.00000000102,13.6042562398438,1.00000000085609,0.468466613929577
5200.00000000139,13.4560673046842,1.00000000062059,0.36961893314502
5300.00000000175,13.4358626278098,1.00000000088122,0.369022847415721
5400.00000000211,13.4813935667889,1.00000000130342,0.441288003095294
5500.00000000248,13.489825493983,1.00000000150706,0.515169309448798
5600.00000000284,13.4593595334671,1.00000000132172,0.540804313142657
5700.00000000321,13.4131533527341,1.00000000126878,0.534564347177704
5800.00000000357,13.3335311349155,1.0000000013955,0.554084880868411
5900.00000000393,13.222053053459,1.00000000131473,0.5425474548176
6000.0000000043,13.0998982726421,1.00000000122921,0.542630775355569
6100.00000000466,12.9762691986132,1.00000000117536,0.5451284150001
6200.00000000502,12.8581073915082,1.00000000108433,0.543495181163658
6300.00000000539,12.7311991387539,1.00000000131368,0.548311466805618
6400.00000000575,12.5832345873374,1.00000000150845,0.555293027947029
6500.00000000612,12.4156068192528,1.00000000190197,0.56228634169473
6600.00000000648,12.2381531842328,1.00000000180614,0.585028932391745
6700.00000000684,12.0624819433451,1.00000000134806,0.561467660531149
6800.00000000721,11.9127501291913,1.000000000861,0.480507877811913
6900.00000000757,11.8423687398834,1.00000000063219,0.399204923449823
7000.00000000793,11.9017474586102,1.00000000070634,0.374454765291848
7100.0000000083,12.0793838128338,1.00000000097347,0.393170086020997
7200.00000000866,12.3020967486419,1.00000000131999,0.447097962467085
7300.00000000903,12.5004805807796,1.0000000014161,0.497379603118259
7400.00000000939,12.6594968891673,1.00000000143449,0.535965561634472
7500.00000000975,12.7782836007863,1.00000000134208,0.552765962344377
7600.00000001012,12.8646874479939,1.00000000133084,0.563580292227822
7700.00000001048,12.9157678935221,1.00000000144895,0.583439165888431
7800.00000001084,12.9247377086401,1.00000000139957,0.588879038691588
7900.00000001121,12.9046979558867,1.00000000135798,0.577861151040099
8000.00000001157,12.8708298668248,1.00000000139864,0.561603944008647
8100.00000001194,12.8297786166868,1.000000001415,0.559503478691615
8200.0000000123,12.7772443110791,1.00000000134941,0.551641852778402
8300.00000001266,12.7164877700307,1.0000000013207,0.550108144348469
8400.00000001303,12.6586344475803,1.00000000128263,0.557448280740801
8500.00000001339,12.6059267022612,1.00000000125665,0.552451180835574
8600.00000001376,12.5515519842702,1.00000000133623,0.560319015667902
8700.00000001412,12.4968022739375,1.00000000137436,0.567622714856631
8800.00000001448,12.4386644797523,1.00000000134392,0.56724942183236
8900.00000001485,12.3746649537715,1.00000000137889,0.565344839253783
9000.00000001521,12.2993059993495,1.00000000144936,0.568460745319754
9100.00000001557,12.2132647612367,1.00000000133994,0.595393792098396
9200.00000001594,12.1221352517001,1.00000000126993,0.603273394900359
9300.0000000163,12.0331445957475,1.00000000115683,0.590919255709171
9400.00000001667,11.9424647217417,1.00000000125384,0.595949917084157
9500.00000001703,11.8455886149138,1.00000000141634,0.595209429291187
9600.00000001739,11.7412506281274,1.0000000015497,0.596542504640809
9700.00000001776,11.6336886282248,1.00000000173449,0.601649732007206
9800.00000001812,11.528797640557,1.00000000181454,0.596739828665671
9900.00000001848,11.4275867422834,1.00000000188363,0.59692694032521
10000.0000000188,11.3251060066866,1.00000000159858,0.586987551765847
10100.0000000192,11.2165897013373,1.00000000121155,0.551884945428535
10200.0000000196,11.1148160793925,1.00000000090977,0.491303915675778
10300.0000000199,11.0543334024445,1.00000000077414,0.441046058403636
10400.0000000203,11.0795767681898,1.00000000064449,0.394188366748006
10500.0000000207,11.2192566247417,1.00000000079647,0.389203083529992
10600.000000021,11.4758794860507,1.00000000092742,0.39769128309583
10700.0000000214,11.8072380047258,1.00000000129929,0.424668847838929
10800.0000000218,12.1669124448269,1.00000000130056,0.456530588337636
10900.0000000221,12.5123800259678,1.00000000157886,0.488602140394737
11000.0000000225,12.8281473522102,1.00000000151773,0.508411365082504
11100.0000000229,13.1132097424569,1.00000000156246,0.535112569747929
11200.0000000232,13.3621823828635,1.00000000143181,0.557288308736159
11300.0000000236,13.5821046035841,1.00000000156241,0.57240342463179
11400.0000000239,13.7701608119636,1.00000000140122,0.580322113387198
11500.0000000243,13.9255765228746,1.00000000148571,0.596480770883351
11600.0000000247,14.0461487827593,1.00000000155371,0.607196253170143
11700.000000025,14.1329137022373,1.00000000149844,0.611291107521069
11800.0000000254,14.1892723169695,1.00000000152761,0.612349668886894
11900.0000000258,14.2259090658899,1.00000000134962,0.614166478186694
12000.0000000261,14.2448821646188,1.00000000144646,0.611643537784753
12100.0000000265,14.2486556888092,1.00000000138457,0.603789084414523
12200.0000000269,14.2470179410491,1.0000000014445,0.595873070890516
12300.0000000272,14.2315604974443,1.00000000157802,0.593977081204265
12400.0000000276,14.2044032988887,1.00000000138431,0.585793415914203
12500.0000000279,14.173718648702,1.00000000147785,0.590028573889152
12600.0000000283,14.1297371639695,1.00000000155583,0.594835178182927
12700.0000000287,14.0788887088807,1.00000000148033,0.596933534715799
12800.000000029,14.0225326198764,1.00000000145531,0.604887692834831
12900.0000000294,13.9610018802176,1.00000000154633,0.613115319006418
13000.0000000298,13.8938653660433,1.00000000155029,0.618116317707838
13100.0000000301,13.8269631370801,1.00000000134871,0.602649940787284
13200.0000000305,13.7666214132738,1.00000000134591,0.588501818419225
13300.0000000309,13.7124816726322,1.00000000142778,0.575197376373556
13400.0000000312,13.6646298370257,1.00000000155232,0.576342408275224
13500.0000000316,13.6157238494561,1.00000000149217,0.586434213663577
13600.0000000319,13.5687045400939,1.0000000014321,0.589581083528554
13700.0000000323,13.5198005293686,1.00000000143381,0.5819578614668
13800.0000000327,13.471252501521,1.00000000149239,0.589944954419396
13900.000000033,13.4266863191857,1.00000000131589,0.591589810903893
14000.0000000334,13.3868026975805,1.00000000156586,0.589874940538984
14100.0000000338,13.3452419906589,1.00000000152008,0.579647928792839
14200.0000000341,13.3079109109326,1.00000000136463,0.586076753183464
14300.0000000345,13.2788139732802,1.00000000131988,0.571612731246594
14400.0000000349,13.2543193992671,1.00000000152721,0.557204248477759
14500.0000000352,13.2275134002807,1.00000000152385,0.559556910792534
14600.0000000356,13.1991639970968,1.00000000139319,0.56978653703918
14700.0000000359,13.1737401212934,1.00000000149916,0.582287347164702
14800.0000000363,13.1483873592078,1.00000000140395,0.601384756805488
14900.0000000367,13.1227438566301,1.00000000137261,0.614230702173159
15000.000000037,13.099735310948,1.00000000147989,0.603107242820868
15100.0000000374,13.0751296337389,1.00000000161636,0.591698258035756
15200.0000000378,13.0468323247526,1.00000000147217,0.601639502265393
15300.0000000381,13.0208159291254,1.00000000141869,0.606689163202545
15400.0000000385,12.9919338763788,1.00000000157835,0.617212376065492
15500.0000000389,12.9569530433842,1.00000000156217,0.625606974962521
15600.0000000392,12.9203309445933,1.00000000143218,0.621413643011892
15700.0000000396,12.882550707091,1.00000000151438,0.622296594505374
15800.0000000399,12.8401503513224,1.00000000147037,0.622395943966891
15900.0000000403,12.795261091936,1.00000000158894,0.61306298611733
16000.0000000407,12.7472396830807,1.00000000159642,0.613566773904184
16100.000000041,12.6973540079836,1.00000000155762,0.618835805164031
16200.0000000414,12.6514538401133,1.0000000013077,0.620717930851282
16300.0000000418,12.6107736232923,1.00000000137483,0.613572876437575
16400.0000000418,12.569418496019,1.00000000168256,0.617045164398082
16500.0000000404,12.5224475813721,1.00000000159557,0.614240818834269
16600.0000000389,12.4738097858379,1.00000000140686,0.624044295944408
16700.0000000375,12.4279209476132,1.00000000155229,0.631409639103432
16800.000000036,12.3782204173402,1.00000000178649,0.625810768925758
16900.0000000346,12.3280041462634,1.00000000147911,0.61520039112574
17000.0000000331,12.2807347445011,1.00000000144191,0.620557536050452
17100.0000000317,12.2333775117522,1.00000000156341,0.614109939779214
17200.0000000302,12.1849850905377,1.00000000141723,0.626421659441472
17300.0000000287,12.1348798758451,1.0000000015469,0.625346483459719
17400.0000000273,12.0820411925775,1.0000000015672,0.626544957470846
17500.0000000258,12.0260238635185,1.00000000158581,0.618567294750622
17600.0000000244,11.9680081381272,1.00000000157422,0.628149833721377
17700.0000000229,11.9076953254203,1.00000000158312,0.636993821070893
17800.0000000215,11.8470369841018,1.0000000015051,0.638268110610742
17900.00000002,11.7877453582121,1.00000000148323,0.635921546175204
18000.0000000186,11.7264653952083,1.00000000176154,0.649573006257543
18100.0000000171,11.6634095503504,1.00000000163462,0.633536605885543
18200.0000000156,11.6005889626709,1.00000000146212,0.642495686120384
18300.0000000142,11.5380521253908,1.00000000136501,0.627104109922394
18400.0000000127,11.4760806384746,1.00000000153562,0.645666305916255
18500.0000000113,11.4146701863606,1.00000000141815,0.643783141401456
18600.0000000098,11.3538387772468,1.00000000135147,0.63491147766447
18700.0000000084,11.2936891393747,1.00000000148643,0.634043380630354
18800.0000000069,11.2346333879615,1.00000000144894,0.641181830519009
18900.0000000055,11.1778592689737,1.00000000148103,0.637816703733418
19000.000000004,11.124485310965,1.00000000156358,0.634627456852492
19100.0000000026,11.0768144093942,1.00000000176838,0.645204462619167
19200.0000000011,11.0385055312782,1.00000000158546,0.640548017812388
19299.9999999996,11.0099067753875,1.00000000189127,0.650809778550318
19399.9999999982,11.0005464779625,1.00000000182383,0.645202403659578
19499.9999999967,11.0040011779873,1.00000000206568,0.648164409923043
19599.9999999953,11.0367707144631,1.00000000209731,0.652444528539058
19699.9999999938,11.0790575662797,1.00000000205636,0.644063957542977
19799.9999999924,11.1497081176073,1.00000000215368,0.639042808134442
19899.9999999909,11.217054810951,1.00000000194802,0.626596974509141
19999.9999999895,11.2892331926747,1.00000000184848,0.616470497936051
20099.999999988,11.3349684737473,1.00000000155568,0.603724171985188
20199.9999999865,11.3556655838356,1.00000000147919,0.582819201634457
20299.9999999851,11.3452243809106,1.00000000133354,0.549687230925248
20399.9999999836,11.3095362745191,1.00000000118969,0.518137505438676
20499.9999999822,11.2646493828078,1.00000000100461,0.485936900354164
20599.9999999807,11.2296326539626,1.00000000106684,0.456367018967028
20699.9999999793,11.2310181223251,1.00000000090252,0.432350823880987
20799.9999999778,11.2933977190984,1.0000000009534,0.412809152073319
20899.9999999764,11.4432455191703,1.00000000089752,0.403883298122949
20999.9999999749,11.6834960014321,1.00000000100341,0.398901594172101
21099.9999999734,12.0416028606274,1.00000000116014,0.408916395457402
21199.999999972,12.4756583085894,1.00000000116457,0.414252802488411
21299.9999999705,13.0163427406965,1.00000000142187,0.423246085532076
21399.9999999691,13.5894580162226,1.00000000141377,0.438558853115496
21499.9999999676,14.2205075207519,1.0000000017042,0.445419650461676
21599.9999999662,14.8474143320414,1.00000000166585,0.464413183701719
21699.9999999647,15.4817667556947,1.00000000186538,0.469694919789664
21799.9999999633,16.1072227954155,1.00000000165431,0.493026310003741
21899.9999999618,16.7138804545475,1.00000000173821,0.497739512770697
21999.9999999603,17.3082563035707,1.00000000176149,0.516276232408584
22099.9999999589,17.8695571534195,1.00000000159632,0.526362261279422
22199.9999999574,18.4234378793322,1.00000000169977,0.538653612321324
22299.999999956,18.9433506710736,1.00000000175644,0.549541344384451
22399.9999999545,19.4491226430183,1.00000000171553,0.557539744974548
22499.9999999531,19.9440507525246,1.00000000160387,0.576871645990979
22599.9999999516,20.4074612402011,1.00000000183465,0.579369294910167
22699.9999999502,20.8514499596278,1.00000000164826,0.594712048895513
22799.9999999487,21.2531850777971,1.00000000173817,0.6112721431651
22899.9999999473,21.6374175840775,1.00000000175756,0.61413793069994
22999.9999999458,21.9817034640993,1.00000000168229,0.614656732328813
23099.9999999443,22.2989947955299,1.0000000016449,0.629289807932164
23199.9999999429,22.5828852847854,1.00000000170308,0.638185275847025
23299.9999999414,22.8310976425245,1.00000000174725,0.635372003369052
23399.99999994,23.0590410123214,1.0000000016812,0.639028347318423
23499.9999999385,23.2546869397699,1.00000000173602,0.644770371732915
23599.9999999371,23.433871999858,1.00000000173301,0.650503562453323
23699.9999999356,23.5883873560066,1.00000000163264,0.645311823531926
23799.9999999342,23.7306632348825,1.00000000155952,0.638543292841414
23899.9999999327,23.8506616323911,1.00000000176897,0.650345255727017
23999.9999999312,23.9531119050866,1.00000000174667,0.64445868484584
24099.9999999298,24.0384986652854,1.00000000169328,0.649471795551343
24199.9999999283,24.1090800760644,1.00000000160271,0.640837798089041
24299.9999999269,24.1787445949045,1.00000000169255,0.646391650124955
24399.9999999254,24.2402727495305,1.0000000016297,0.635601282688527
24499.999999924,24.296616686035,1.00000000170491,0.640237377373681
24599.9999999225,24.3310234778514,1.00000000179962,0.650777857720688
24699.9999999211,24.3479366650247,1.00000000157491,0.643370755580889
24799.9999999196,24.3610088588072,1.00000000161258,0.62973275794843
24899.9999999181,24.377472009003,1.00000000162682,0.617819410747291
24999.9999999167,24.3956752173513,1.00000000177521,0.631961134156947
25099.9999999152,24.4027284954478,1.00000000172906,0.628178831941546
25199.9999999138,24.4046562821144,1.00000000179159,0.613556850153931
25299.9999999123,24.4004873176706,1.00000000166437,0.625052977468434
25399.9999999109,24.3920392994813,1.00000000157748,0.628844193545811
25499.9999999094,24.3778939927541,1.00000000167783,0.635786278294904
25599.999999908,24.3628490530142,1.00000000172775,0.614627284145243
25699.9999999065,24.3552880883853,1.00000000158105,0.597890052530015
25799.9999999051,24.3488264374173,1.00000000163574,0.612020024490616
25899.9999999036,24.334420448276,1.00000000185898,0.614586036954296
25999.9999999021,24.3076567891277,1.00000000170084,0.62664091917281
26099.9999999007,24.2789980686481,1.00000000169565,0.620427270274405
26199.9999998992,24.2556892228442,1.0000000015617,0.611090264061665
26299.9999998978,24.2365079182192,1.00000000171339,0.629435401094114
26399.9999998963,24.2115184403083,1.00000000179233,0.634238691359415
26499.9999998949,24.1780492619224,1.00000000180974,0.638860378316136
26599.9999998934,24.1443069341083,1.00000000162435,0.634809616440295
26699.999999892,24.1135955218357,1.00000000156488,0.622199121288276
26799.9999998905,24.0889603205073,1.00000000159745,0.628165223452398
26899.999999889,24.064490726499,1.00000000202721,0.635037369270334
26999.9999998876,24.0390911839548,1.00000000172949,0.625344768499326
27099.9999998861,24.0228933363855,1.00000000145205,0.608238221494113
27199.9999998847,24.0143381520977,1.00000000172421,0.618153857394103
27299.9999998832,23.9990381331474,1.00000000172985,0.633842243674044
27399.9999998818,23.9720486755203,1.00000000194488,0.630675088238929
27499.9999998803,23.9403491710842,1.0000000018809,0.624635379369445
27599.9999998789,23.9155571264861,1.00000000157681,0.61224528927701
27699.9999998774,23.8988576217076,1.00000000168784,0.643796066315254
27799.9999998759,23.8799561248601,1.00000000171473,0.642457180509711
27899.9999998745,23.8534455513945,1.00000000191794,0.638578272809276
27999.999999873,23.8226269590131,1.00000000161556,0.633506469199939
28099.9999998716,23.7951022057518,1.00000000167615,0.62712323092773
28199.9999998701,23.7732143265689,1.00000000164018,0.626360431556772
28299.9999998687,23.7548411234748,1.00000000182189,0.627305517913976
28399.9999998672,23.7297457459029,1.00000000186248,0.634988145168782
28499.9999998658,23.7023132343931,1.00000000157802,0.617946027224662
28599.9999998643,23.6773107698955,1.00000000183005,0.624374543030179
28699.9999998629,23.6521650195988,1.00000000172163,0.628767974582046
28799.9999998614,23.6297610850394,1.00000000170271,0.634897039017859
28899.9999998599,23.6046487449242,1.00000000174253,0.641991480418881
28999.9999998585,23.5745511162136,1.0000000020336,0.632817983935624
