Time,AGPnorm,Energy,Entropy
0,0,1,-3.52376915419643e-18
99.9999999999986,0.0130374050911873,0.999999999995731,0.0329279461711197
199.999999999993,0.0320780036096245,1.00000000000064,0.0975641145160567
300,0.0603879154951164,1.00000000003374,0.206057325529513
400.000000000022,0.10462397412573,1.00000000128544,0.373860112575037
500.000000000045,0.410863389368002,1.00000000323718,0.504883429948331
600.000000000068,1.41450279067011,1.00000000466586,0.569980254358995
700.000000000091,3.21460707169414,1.00000000477912,0.594380953318465
800.000000000113,5.345772634191,1.00000000435327,0.601694919400098
900.000000000136,7.49748855346092,1.00000000419437,0.594642136343439
1000.00000000016,9.27428447981871,1.0000000038817,0.585183920881923
1100.0000000001,10.5843814335721,1.0000000033266,0.569357719559265
1200,11.368488069176,1.00000000302469,0.561816361772112
1299.99999999991,11.6864374445291,1.00000000244492,0.543172086827702
1399.99999999982,11.6802093617619,1.00000000234001,0.523034324625142
1499.99999999973,11.4664324141574,1.00000000292086,0.549742310782199
1599.99999999964,11.0944500127582,1.00000000356516,0.570093288289481
1699.99999999955,10.6872727104038,1.0000000019018,0.453176938446873
1799.99999999946,10.2513275709504,1.00000000386692,0.567753252130546
1899.99999999937,9.82211811157397,1.00000000206357,0.437561899553954
1999.99999999928,9.38548844761702,1.00000000378426,0.557585856644483
2099.99999999919,8.99533608213446,1.00000000201701,0.446600957196954
2199.99999999909,8.61086877205303,1.00000000286199,0.50562519345611
2299.999999999,8.24711246285752,1.00000000345218,0.550096584308035
2399.99999999891,7.93021112045193,1.00000000195385,0.448890159571694
2499.99999999882,7.64104214319387,1.00000000320407,0.519188825053305
2599.99999999873,7.36666066566172,1.00000000281063,0.53174188070969
2699.99999999864,7.10016610803567,1.00000000355239,0.557303900179541
2799.99999999855,6.88360694509753,1.00000000202737,0.45724336409597
2899.99999999846,6.715410668802,1.0000000033022,0.503053559055294
2999.99999999837,6.53667058362712,1.00000000289251,0.54164790506095
3099.99999999828,6.36848059306485,1.00000000312387,0.565146591827144
3199.99999999819,6.19705327228266,1.00000000346323,0.55570133438199
3299.99999999809,6.03662408671059,1.00000000276309,0.536632712159813
3399.999999998,5.9557177822028,1.00000000215975,0.472895446223308
3499.99999999791,5.89057193355763,1.00000000315722,0.529735621600689
3599.99999999782,5.81332325031361,1.00000000303987,0.558036614023842
3699.99999999773,5.74601301936477,1.00000000315978,0.572538146632677
3799.99999999764,5.65539239701633,1.00000000323306,0.602242407249756
3899.99999999755,5.55855655604341,1.00000000282978,0.593011985320188
3999.99999999746,5.45855018255142,1.00000000362912,0.590282487985199
4099.99999999738,5.35916486552879,1.00000000317131,0.573151049661557
4199.99999999775,5.31755660681502,1.00000000232884,0.508083760899312
4299.99999999811,5.3411761968198,1.00000000267649,0.52970231459792
4399.99999999848,5.35149141651485,1.00000000336505,0.560715669236422
4499.99999999884,5.35674647727719,1.00000000322082,0.577009363419031
4599.9999999992,5.34919906580059,1.00000000364359,0.60818735158072
4699.99999999957,5.33147673621417,1.00000000324463,0.607442575012893
4799.99999999993,5.31677676626278,1.00000000318077,0.62606595610963
4900.00000000029,5.28489495629128,1.00000000340684,0.625724149143172
5000.00000000066,5.2413841490635,1.00000000345621,0.61960882692066
5100.00000000102,5.18669188886298,1.00000000317617,0.639388857151965
5200.00000000139,5.129182103543,1.00000000336469,0.643874105954326
5300.00000000175,5.06820135767605,1.00000000371455,0.642098087432742
5400.00000000211,5.00860781081063,1.00000000365155,0.609835200561532
5500.00000000248,4.9550956584231,1.00000000297262,0.572076321187294
5600.00000000284,4.95852562746945,1.00000000231404,0.534905746776744
5700.00000000321,5.02987039152715,1.00000000302261,0.544819179543912
5800.00000000357,5.11160004323798,1.00000000336716,0.570868762444145
5900.00000000393,5.1748164948369,1.00000000366689,0.58718214566535
6000.0000000043,5.2317939982983,1.0000000036757,0.593228571324383
6100.00000000466,5.27807210631249,1.00000000353285,0.616479528956925
6200.00000000502,5.31296103964652,1.00000000372549,0.635180432470088
6300.00000000539,5.33149487388724,1.0000000037273,0.6378602000195
6400.00000000575,5.34376021304325,1.00000000356241,0.63752973479386
6500.00000000612,5.34659415951883,1.00000000370205,0.64415012490531
6600.00000000648,5.34466549006807,1.00000000349573,0.644809523341004
6700.00000000684,5.3504763059301,1.00000000362718,0.650397091491913
6800.00000000721,5.35833287177226,1.00000000366662,0.644296862961601
6900.00000000757,5.35024818428905,1.00000000382155,0.633381564983041
7000.00000000793,5.3442754305224,1.00000000370064,0.646917376759912
7100.0000000083,5.34017177526473,1.00000000365627,0.652435196527628
7200.00000000866,5.32264265052399,1.0000000038504,0.665850019317252
7300.00000000903,5.30366111126679,1.0000000036006,0.645441799002819
7400.00000000939,5.28531885380475,1.00000000366582,0.643790401891818
7500.00000000975,5.26059465367167,1.00000000417686,0.647630512539988
7600.00000001012,5.22414249244554,1.00000000380635,0.675249552816983
7700.00000001048,5.17910546094134,1.00000000374535,0.671481604647414
7800.00000001084,5.13527586957274,1.00000000359161,0.67135332695403
7900.00000001121,5.09336296953436,1.00000000392502,0.669531739085459
8000.00000001157,5.05456891369862,1.00000000400937,0.669303971342646
8100.00000001194,5.01996036566779,1.00000000397989,0.657589171403537
8200.0000000123,4.98655174281655,1.00000000399833,0.616752331291843
8300.00000001266,4.96837787071343,1.00000000338102,0.578865704690341
8400.00000001303,5.0026594446845,1.00000000298102,0.555081877706444
8500.00000001339,5.10305710557474,1.00000000312767,0.559888682172171
8600.00000001376,5.24216900636492,1.00000000364499,0.572265603941382
8700.00000001412,5.38392656991701,1.0000000039158,0.589476129635096
8800.00000001448,5.51639897156223,1.0000000038844,0.60029346152871
8900.00000001485,5.64161465192915,1.00000000399268,0.607147589715217
9000.00000001521,5.75943459909226,1.00000000372266,0.610395712544369
9100.00000001557,5.86919398467291,1.00000000411079,0.634840854226796
9200.00000001594,5.96031600789551,1.00000000410495,0.644397484669955
9300.0000000163,6.04337721741584,1.00000000417133,0.659169680550891
9400.00000001667,6.1168097111819,1.00000000440059,0.664345841244308
9500.00000001703,6.17947358607304,1.00000000416216,0.657509738604228
9600.00000001739,6.23114457507249,1.00000000424872,0.662561106708305
9700.00000001776,6.27258788409293,1.00000000429133,0.690085741691412
9800.00000001812,6.31548163315606,1.00000000396598,0.677023710284732
9900.00000001848,6.35995686046287,1.00000000460455,0.671944238327947
10000.0000000188,6.40171130987604,1.00000000437531,0.68221948868466
10100.0000000192,6.43569807182603,1.00000000436641,0.685703284513714
10200.0000000196,6.47268972628384,1.00000000456198,0.691693676942495
10300.0000000199,6.50567887854275,1.0000000041947,0.705315768791769
10400.0000000203,6.52975568259268,1.00000000398237,0.697774740249133
10500.0000000207,6.54828268635344,1.00000000416322,0.699771570515688
10600.000000021,6.56702999438223,1.00000000412638,0.68570180352132
10700.0000000214,6.5840232088017,1.00000000448186,0.695346551674006
10800.0000000218,6.59792020276119,1.00000000445805,0.690546232461106
10900.0000000221,6.61209385936111,1.00000000441647,0.67756308569387
11000.0000000225,6.63288699676878,1.00000000446087,0.685346873128093
11100.0000000229,6.66663575063307,1.000000004114,0.679558238353014
11200.0000000232,6.71387224825575,1.00000000413246,0.659746658237531
11300.0000000236,6.77316471073984,1.00000000474187,0.670611464436478
11400.0000000239,6.82599629992324,1.00000000511801,0.665064020721281
11500.0000000243,6.883127309828,1.00000000501561,0.655543871873926
11600.0000000247,6.93459995796144,1.0000000047032,0.669290194122163
11700.000000025,6.98926396703989,1.00000000433792,0.682621041828242
11800.0000000254,7.03810145514545,1.00000000503036,0.693363983437097
11900.0000000258,7.08444449483999,1.00000000466255,0.690176094742664
12000.0000000261,7.1296406785546,1.00000000492284,0.714120668372755
12100.0000000265,7.17086133045558,1.00000000514899,0.707786090577786
12200.0000000269,7.20545905535037,1.00000000500777,0.701498333490157
12300.0000000272,7.24621279909448,1.00000000416435,0.684108374171577
12400.0000000276,7.29691938511699,1.00000000451052,0.683551044407321
12500.0000000279,7.35469774420283,1.0000000047707,0.688476983861356
12600.0000000283,7.40581656000511,1.00000000528915,0.70689636739394
12700.0000000287,7.4502974354929,1.00000000496999,0.698377286411502
12800.000000029,7.49512817044529,1.00000000470728,0.688053187768805
12900.0000000294,7.55434402348651,1.00000000516246,0.68797767491452
13000.0000000298,7.62417113515761,1.00000000515518,0.684214863928511
13100.0000000301,7.70184607575511,1.00000000520249,0.681420501902052
13200.0000000305,7.77438227809313,1.00000000556665,0.707350372476753
13300.0000000309,7.83382033218183,1.00000000490981,0.70864341211181
13400.0000000312,7.89844104793584,1.00000000542727,0.721974027995088
13500.0000000316,7.96098449809024,1.00000000486024,0.712585338039313
13600.0000000319,8.02454368729151,1.00000000476075,0.708661205573198
13700.0000000323,8.09301941346319,1.00000000506187,0.7013916447959
13800.0000000327,8.14900000493875,1.00000000540548,0.706309474410317
13900.000000033,8.20141769282625,1.00000000487928,0.713346527135136
14000.0000000334,8.25733802921176,1.00000000462026,0.705583991030167
14100.0000000338,8.31631924750462,1.00000000525381,0.713230050808008
14200.0000000341,8.3792592177767,1.00000000541906,0.703716242276558
14300.0000000345,8.43744772909669,1.00000000534822,0.714150435520164
14400.0000000349,8.49100239648398,1.00000000508,0.692966600610038
14500.0000000352,8.54187652618795,1.00000000564324,0.712843026613981
14600.0000000356,8.59415681704877,1.00000000493709,0.69676171552969
14700.0000000359,8.65039646488894,1.0000000054444,0.707533444047961
14800.0000000363,8.69562468875535,1.0000000051763,0.700681425758218
14900.0000000367,8.73519491637033,1.0000000052274,0.698935285036685
15000.000000037,8.76638146703232,1.00000000520237,0.707685087397643
15100.0000000374,8.79880522051732,1.00000000535806,0.701123641542254
15200.0000000378,8.82717743467815,1.00000000551128,0.697884426613562
15300.0000000381,8.84049769978206,1.0000000056634,0.710640101710696
15400.0000000385,8.84486030055268,1.00000000528905,0.703825057252969
15500.0000000389,8.84416520799143,1.00000000548364,0.718277297027329
15600.0000000392,8.84145911191649,1.00000000555658,0.717726501417671
15700.0000000396,8.84113317473124,1.00000000522476,0.703658483158719
15800.0000000399,8.84142793457244,1.00000000569014,0.719053969582379
15900.0000000403,8.84975850489597,1.0000000051916,0.706877575980105
16000.0000000407,8.85666081632746,1.00000000564808,0.717151444321098
16100.000000041,8.87830866172833,1.00000000639486,0.700816538782505
16200.0000000414,8.90623430467446,1.00000000575875,0.693163612725949
16300.0000000418,8.95135338911502,1.00000000613235,0.682311795831051
16400.0000000418,8.99523816720589,1.00000000529228,0.677161150928149
16500.0000000404,9.06740182774522,1.00000000554451,0.662230842346552
16600.0000000389,9.15296448786781,1.00000000539443,0.648592540856071
16700.0000000375,9.28111642623744,1.00000000519921,0.633135765445032
16800.000000036,9.45974801208185,1.00000000488469,0.62301724346861
16900.0000000346,9.71599749805956,1.00000000473335,0.621198864235037
17000.0000000331,10.0366466427156,1.00000000532974,0.625893131967875
17100.0000000317,10.4404762956283,1.00000000529477,0.630759624837986
17200.0000000302,10.8615843928949,1.00000000556425,0.632107983568711
17300.0000000287,11.3230243543585,1.00000000587419,0.638192407114897
17400.0000000273,11.7669825447319,1.00000000579532,0.639604575118044
17500.0000000258,12.2297125081743,1.00000000588197,0.647303529912053
17600.0000000244,12.6743819308163,1.00000000620393,0.651044151900359
17700.0000000229,13.1132298634708,1.00000000597474,0.651956685719649
17800.0000000215,13.5491964496874,1.00000000602035,0.653283926993223
17900.00000002,13.9801896650251,1.00000000566803,0.654911628204556
18000.0000000186,14.4268729881965,1.00000000518195,0.664568878028197
18100.0000000171,14.8589190670809,1.00000000592718,0.669960919698505
18200.0000000156,15.3001494791642,1.00000000541715,0.676855035540848
18300.0000000142,15.7262077734575,1.00000000564479,0.680873491292609
18400.0000000127,16.1413426183401,1.00000000592956,0.676622612351261
18500.0000000113,16.5414572475133,1.00000000584847,0.689440891068971
18600.0000000098,16.9346280072656,1.00000000594945,0.699933287724191
18700.0000000084,17.3239164509315,1.00000000574855,0.7001960398297
18800.0000000069,17.6916683030284,1.00000000640045,0.703112773120977
18900.0000000055,18.0458175907546,1.00000000630452,0.708605544973662
19000.000000004,18.3818503091865,1.00000000615467,0.715922186592217
19100.0000000026,18.7231439678533,1.00000000624672,0.708468333400122
19200.0000000011,19.0479457987961,1.00000000581757,0.710678602144646
19299.9999999996,19.3564325518891,1.00000000579689,0.717881181709332
19399.9999999982,19.6720901413831,1.00000000604566,0.723136793090719
19499.9999999967,19.96787925902,1.00000000635912,0.719990737900123
19599.9999999953,20.2645482454265,1.00000000646341,0.714421457308216
19699.9999999938,20.5364722689769,1.00000000598416,0.721600482850536
19799.9999999924,20.8059016382652,1.00000000616283,0.704503458298454
19899.9999999909,21.0682995103664,1.00000000566654,0.726942180997667
19999.9999999895,21.3162284334241,1.00000000550222,0.719406295342345
20099.999999988,21.5609684626567,1.00000000607638,0.722418019136617
20199.9999999865,21.8044235946318,1.00000000548931,0.71630291154752
20299.9999999851,22.0811245686522,1.00000000564605,0.729079696560061
20399.9999999836,22.3674143913646,1.00000000585104,0.726385735781639
20499.9999999822,22.6543048552659,1.00000000645372,0.720955035100726
20599.9999999807,22.9397495902606,1.00000000612729,0.731497839352638
20699.9999999793,23.2197070242447,1.0000000060033,0.735277019217578
20799.9999999778,23.4934357502337,1.00000000643498,0.736990889084529
20899.9999999764,23.7444031931591,1.00000000653901,0.73519521609472
20999.9999999749,23.9933560650787,1.00000000655015,0.733281707522553
21099.9999999734,24.2357553414105,1.00000000621505,0.730995460427818
21199.999999972,24.4855679355848,1.00000000647271,0.718379271322881
21299.9999999705,24.7331813936388,1.00000000687313,0.737602642132778
21399.9999999691,24.9736973250776,1.00000000626284,0.734314099267676
21499.9999999676,25.2271540704406,1.00000000629852,0.734266679119801
21599.9999999662,25.4782850205066,1.00000000634975,0.721539037619432
21699.9999999647,25.741424490337,1.00000000575277,0.712935750646341
21799.9999999633,26.0103554506885,1.00000000670132,0.730023506696537
21899.9999999618,26.2837668946369,1.00000000638864,0.730175158443476
21999.9999999603,26.5620904324392,1.00000000619374,0.730684191708018
22099.9999999589,26.8382735148801,1.00000000621217,0.722031363357278
22199.9999999574,27.1100289862985,1.00000000609893,0.726081559813751
22299.999999956,27.369205168144,1.00000000667724,0.731972333401809
22399.9999999545,27.6178354484823,1.00000000649947,0.737185973556172
22499.9999999531,27.8708212698447,1.00000000656766,0.723500044491834
22599.9999999516,28.1356465270749,1.00000000632264,0.725642125448025
22699.9999999502,28.3932796968787,1.00000000765158,0.725598954668782
22799.9999999487,28.6421573650036,1.00000000653801,0.726931070283854
22899.9999999473,28.9047377697696,1.00000000621401,0.71664860864972
22999.9999999458,29.1771296788692,1.0000000073454,0.71378321026104
23099.9999999443,29.4525084631306,1.00000000681937,0.723515228581421
23199.9999999429,29.7262009855547,1.00000000736742,0.725344937962463
23299.9999999414,29.995197459005,1.0000000069998,0.724599915825126
23399.99999994,30.2665668475812,1.00000000614111,0.719298649222574
23499.9999999385,30.5325128771912,1.00000000657732,0.73548602321837
23599.9999999371,30.7930321962071,1.00000000670117,0.728740316420567
23699.9999999356,31.0467924885179,1.00000000641905,0.719615152157859
23799.9999999342,31.3090470803897,1.00000000700349,0.736582619828339
23899.9999999327,31.5676770891186,1.00000000699203,0.731397660377753
23999.9999999312,31.8291279812375,1.00000000678941,0.736254397991129
24099.9999999298,32.0960726986247,1.00000000724519,0.739064320346288
24199.9999999283,32.3612261438585,1.00000000708068,0.736550845606905
24299.9999999269,32.6276639644722,1.00000000628303,0.724220745105726
24399.9999999254,32.894146740788,1.00000000726687,0.728311930561122
24499.999999924,33.1710812703943,1.00000000727079,0.720129182280979
24599.9999999225,33.4519919927363,1.00000000692834,0.729842959596371
24699.9999999211,33.7401127401817,1.00000000634069,0.721522604023312
24799.9999999196,34.0352406092036,1.00000000642846,0.735405343255582
24899.9999999181,34.332040659465,1.0000000071828,0.726491523868573
24999.9999999167,34.6290209233268,1.00000000693142,0.722378659083994
25099.9999999152,34.9209328225928,1.00000000646164,0.729617563614338
25199.9999999138,35.2138009768956,1.00000000691368,0.735639658779644
25299.9999999123,35.5068032895582,1.00000000681011,0.73872834800373
25399.9999999109,35.8013297950812,1.0000000070494,0.734533702071297
25499.9999999094,36.0999734027829,1.00000000675874,0.718844703307508
25599.999999908,36.3979147821742,1.00000000738812,0.733742941499937
25699.9999999065,36.6971967777553,1.0000000066468,0.729245022676724
25799.9999999051,37.0044406762641,1.00000000695217,0.732035847950981
25899.9999999036,37.3134052384771,1.00000000681804,0.728244928532258
25999.9999999021,37.62435782359,1.00000000745087,0.727110389982653
26099.9999999007,37.9471491513229,1.00000000687659,0.72855384594795
26199.9999998992,38.2841541740836,1.00000000732846,0.723860349597353
26299.9999998978,38.6294500391667,1.00000000732608,0.730897061636386
26399.9999998963,38.9825180540257,1.00000000705091,0.732839328461496
26499.9999998949,39.3397760764518,1.00000000701806,0.738773552635661
26599.9999998934,39.6807682418078,1.00000000750117,0.73908811574527
26699.999999892,40.0054997290064,1.00000000787677,0.73190611875052
26799.9999998905,40.3286329982659,1.00000000740434,0.725751520858306
26899.999999889,40.6618318454608,1.0000000071753,0.738167832474158
26999.9999998876,40.9934927792373,1.00000000712779,0.738191331273603
27099.9999998861,41.3234663140078,1.00000000707561,0.722422664523226
27199.9999998847,41.6499473674116,1.00000000748081,0.731881632406716
27299.9999998832,41.9690363016681,1.00000000764379,0.72773187078104
27399.9999998818,42.2875928853487,1.00000000735313,0.727928999345571
27499.9999998803,42.6077217164496,1.00000000790574,0.731511404221524
27599.9999998789,42.9370423060174,1.0000000073625,0.737419462629662
27699.9999998774,43.2755110841054,1.0000000072371,0.725018862403537
27799.9999998759,43.6256006511828,1.00000000711164,0.717643304784888
27899.9999998745,43.9721738770048,1.00000000767425,0.728426673065502
27999.999999873,44.3066999190262,1.00000000753164,0.738268142090324
28099.9999998716,44.6439626107363,1.00000000680353,0.740171640683151
28199.9999998701,44.9822811248626,1.00000000755192,0.735973771859233
28299.9999998687,45.317708390405,1.00000000766108,0.74064440195544
28399.9999998672,45.6493543260502,1.00000000738598,0.730894721659296
28499.9999998658,45.9812606933539,1.00000000729618,0.719760483552868
28599.9999998643,46.3334129398929,1.00000000731551,0.720809274216386
28699.9999998629,46.7025715447717,1.00000000718737,0.72376767699865
28799.9999998614,47.0807372189809,1.00000000737909,0.732696032038141
28899.9999998599,47.4459359203333,1.00000000791965,0.738436032661836
28999.9999998585,47.8029497725808,1.0000000075171,0.728348906082445
29099.999999857,48.1586711648577,1.00000000726846,0.716195095761028
