Time,AGPnorm,Energy,Entropy
0,0,1,-1.11919713477033e-17
99.9999999999986,1.68051087613532e-05,0.999999999999418,0.00074992035478759
199.999999999993,0.00144142634542985,1.0000000000018,0.0011717117337277
300,0.00353141399290794,0.999999999998774,0.00206990910527147
400.000000000022,0.00491665284918093,1.00000000000105,0.00356761385609456
500.000000000045,0.00606710629371122,1.00000000000054,0.00470070652477675
600.000000000068,0.00865440818941425,0.999999999999036,0.00664350576803337
700.000000000091,0.0104951510877155,1.00000000000182,0.00849110544745291
800.000000000113,0.0136265853870999,0.999999999999135,0.0104245125326825
900.000000000136,0.0172689457282674,1.00000000000054,0.012907860493204
1000.00000000016,0.020015482976101,1.00000000000096,0.0150658203956962
1100.0000000001,0.0238312548703459,0.999999999998836,0.0177634103660794
1200,0.0278039889772057,1.00000000000168,0.0205185723834445
1299.99999999991,0.0324779143834308,0.999999999999607,0.0231971160889616
1399.99999999982,0.0374891244241925,1.00000000000001,0.026411870694579
1499.99999999973,0.0416886237734348,1.00000000000123,0.0293696773823598
1599.99999999964,0.0468858177176825,0.999999999998855,0.0326799879958549
1699.99999999955,0.0526495061997037,1.00000000000144,0.036189584758541
1799.99999999946,0.0585506705899299,1.00000000000008,0.039544052061946
1899.99999999937,0.0645054702393162,0.99999999999953,0.0433989198354747
1999.99999999928,0.0700092482233145,1.00000000000135,0.0470900892066516
2099.99999999919,0.0765463553165115,0.999999999999096,0.0510029787431777
2199.99999999909,0.0836661600746805,1.0000000000011,0.0552418677863039
2299.999999999,0.0903590361762467,1.00000000000045,0.0592967936459283
2399.99999999891,0.0969416852657603,0.999999999999174,0.0637933794403576
2499.99999999882,0.103656941209195,1.00000000000138,0.068259123312212
2599.99999999873,0.111296478079826,0.999999999999492,0.0728682052916902
2699.99999999864,0.119194819433323,1.00000000000067,0.0779035601002849
2799.99999999855,0.126303344611444,1.00000000000067,0.0827647486912059
2899.99999999846,0.133386791775259,0.999999999999031,0.0880196476831965
2999.99999999837,0.141137370731657,1.00000000000137,0.0934275352396093
3099.99999999828,0.149443715297916,0.999999999999937,0.0989405203744292
3199.99999999819,0.157520308166595,1.00000000000018,0.104969366786012
3299.99999999809,0.164802773859659,1.00000000000079,0.110897580092106
3399.999999998,0.17238450673272,0.99999999999915,0.117231314834229
3499.99999999791,0.180813671702302,1.00000000000132,0.123970225094681
3599.99999999782,0.189279153567843,1.00000000000032,0.130848640896488
3699.99999999773,0.19710450087252,0.999999999999836,0.13838660852592
3799.99999999764,0.204430812048508,1.00000000000112,0.146057092919582
3899.99999999755,0.21254656673533,0.999999999999986,0.154302663794084
3999.99999999746,0.221106510604415,1.00000000000228,0.163363327988089
4099.99999999738,0.229175902385161,1.00000000000285,0.172728833652139
4199.99999999775,0.237011832575156,1.00000000000384,0.18298973726513
4299.99999999811,0.243863532597981,1.0000000000088,0.193709193414178
4399.99999999848,0.253317491994734,1.00000000001282,0.204999028941258
4499.99999999884,0.262320332856758,1.00000000002021,0.217128718048987
4599.9999999992,0.270231558023637,1.00000000002973,0.229126010248032
4699.99999999957,0.283833343721136,1.00000000003942,0.241498345361144
4799.99999999993,0.2943717339857,1.00000000005561,0.253877822515388
4900.00000000029,0.315949256312566,1.00000000006715,0.266105532893891
5000.00000000066,0.344536641084201,1.00000000008553,0.27852507899276
5100.00000000102,0.376353305133991,1.00000000010671,0.290260139799466
5200.00000000139,0.437722311534538,1.00000000011904,0.301938870838008
5300.00000000175,0.507670232016744,1.00000000014491,0.31350258187603
5400.00000000211,0.61295464500577,1.0000000001605,0.324565772358797
5500.00000000248,0.761185938310853,1.00000000018674,0.335587698175662
5600.00000000284,0.936966958288884,1.00000000020353,0.346095281497765
5700.00000000321,1.191207757699,1.00000000022497,0.356272493119976
5800.00000000357,1.49755232839179,1.00000000024817,0.366503681537877
5900.00000000393,1.88275692243474,1.00000000026272,0.376066952325114
6000.0000000043,2.37651814522007,1.00000000028347,0.38544490712653
6100.00000000466,2.94616840278229,1.00000000029346,0.394575737206216
6200.00000000502,3.6562759480504,1.00000000032108,0.403172532727366
6300.00000000539,4.48708222120988,1.00000000033607,0.411851866942941
6400.00000000575,5.44866907833952,1.00000000033981,0.419889504381479
6500.00000000612,6.59121411902304,1.00000000036649,0.42758489940925
6600.00000000648,7.86859761548826,1.00000000038219,0.435293667110785
6700.00000000684,9.34057566470488,1.00000000039483,0.442379179432411
6800.00000000721,11.0031238501841,1.00000000038834,0.449510437239574
6900.00000000757,12.8409110029476,1.00000000040934,0.456084654294984
7000.00000000793,14.9134627371021,1.00000000043433,0.462311885570022
7100.0000000083,17.1722042987178,1.00000000043521,0.46871857260707
7200.00000000866,19.6576680325491,1.00000000044693,0.474345865963945
7300.00000000903,22.3818678578379,1.0000000004447,0.480016575343345
7400.00000000939,25.3069839827148,1.00000000047214,0.485288964783595
7500.00000000975,28.4894254546175,1.00000000046749,0.490376145840363
7600.00000001012,31.8888384132243,1.00000000047127,0.495380145676667
7700.00000001048,35.5197954112506,1.00000000048646,0.499762188351636
7800.00000001084,39.405460326422,1.00000000047506,0.504194683759786
7900.00000001121,43.4957818034092,1.000000000495,0.508431802056648
8000.00000001157,47.8346883707316,1.0000000004773,0.512370803442326
8100.00000001194,52.3947928081737,1.00000000051829,0.516023244466154
8200.0000000123,57.1681904638928,1.00000000051022,0.519506229384555
8300.00000001266,62.1801914851606,1.00000000050929,0.522860298563712
8400.00000001303,67.3809452444037,1.00000000049715,0.526261934915608
8500.00000001339,72.7970206355431,1.00000000050757,0.529060367334865
8600.00000001376,78.4139595230311,1.00000000050261,0.531956731173148
8700.00000001412,84.2082624384991,1.00000000053975,0.534427125637854
8800.00000001448,90.2019950702033,1.00000000050307,0.537050895400422
8900.00000001485,96.3520512169899,1.00000000053407,0.539406212652857
9000.00000001521,102.670126697105,1.00000000052891,0.541458338304205
9100.00000001557,109.149798421864,1.00000000051213,0.543602382573851
9200.00000001594,115.760880922951,1.00000000050916,0.545606260248617
9300.0000000163,122.518657469962,1.00000000050951,0.547315379326317
9400.00000001667,129.390178095037,1.00000000050514,0.549164960562212
9500.00000001703,136.375558526427,1.000000000494,0.55052505802214
9600.00000001739,143.472404885259,1.00000000048832,0.552069802992802
9700.00000001776,150.650117704657,1.00000000048366,0.553583008428685
9800.00000001812,157.91769492482,1.00000000047608,0.554626473391451
9900.00000001848,165.25037088055,1.0000000004948,0.55589809575046
10000.0000000188,172.644179174913,1.00000000048625,0.55683422982794
10100.0000000192,180.095281709013,1.00000000047204,0.5577442208342
10200.0000000196,187.57690755556,1.0000000004926,0.55886761201924
10300.0000000199,195.094683455961,1.0000000004796,0.55935931840725
10400.0000000203,202.628887757705,1.00000000048915,0.560364813596935
10500.0000000207,210.173113602611,1.00000000046791,0.561025892239371
10600.000000021,217.723992037945,1.00000000047627,0.561166282621799
10700.0000000214,225.259006904444,1.00000000045259,0.56260774253242
10800.0000000218,232.781583067205,1.00000000046559,0.562319365239492
10900.0000000221,240.275624828309,1.00000000045144,0.562828843786908
11000.0000000225,247.735352641085,1.00000000044886,0.56374710123146
11100.0000000229,255.15773342718,1.00000000046008,0.563304263177178
11200.0000000232,262.521898120585,1.00000000044722,0.563988998722165
11300.0000000236,269.833461312761,1.00000000044261,0.564285235617491
11400.0000000239,277.079079488812,1.00000000043651,0.563986692440859
11500.0000000243,284.250051636479,1.00000000044587,0.564538726661376
11600.0000000247,291.348528423777,1.0000000004326,0.564542339112176
11700.000000025,298.355468519756,1.0000000004446,0.564255162581543
11800.0000000254,305.273259885836,1.00000000042776,0.564821202502083
11900.0000000258,312.097281020767,1.00000000043198,0.564209018628408
12000.0000000261,318.816112340327,1.00000000043876,0.56423001628276
12100.0000000265,325.432246956115,1.00000000040451,0.564494857018738
12200.0000000269,331.932870186633,1.00000000041457,0.564139686211109
12300.0000000272,338.319249655875,1.00000000040886,0.56401085122949
12400.0000000276,344.588013346398,1.0000000003995,0.56407023166707
12500.0000000279,350.730764926526,1.00000000040793,0.56349085131964
12600.0000000283,356.748337649321,1.0000000004045,0.563578264908377
12700.0000000287,362.633359008269,1.00000000040145,0.563166880107985
12800.000000029,368.386717446156,1.00000000040194,0.562709589362955
12900.0000000294,374.007092174405,1.00000000038575,0.562882264645725
13000.0000000298,379.486505683703,1.00000000039019,0.562335568338378
13100.0000000301,384.827507481358,1.00000000038556,0.562282756647133
13200.0000000305,390.02434333638,1.0000000003856,0.562025282746122
13300.0000000309,395.080030906552,1.00000000038324,0.561271214376698
13400.0000000312,399.99049868212,1.00000000038428,0.561156567924589
13500.0000000316,404.753618905872,1.00000000036273,0.5612484287108
13600.0000000319,409.371729717857,1.00000000036361,0.560477235053543
13700.0000000323,413.840218729051,1.00000000036553,0.560183633398816
13800.0000000327,418.161778946351,1.00000000036273,0.56010549847711
13900.000000033,422.336358779231,1.00000000035408,0.559516975563631
14000.0000000334,426.359104371356,1.00000000033826,0.559188945986136
14100.0000000338,430.235625483256,1.00000000033783,0.559031653792205
14200.0000000341,433.962835738506,1.00000000033877,0.558705421958689
14300.0000000345,437.542587422683,1.00000000034021,0.558191201160333
14400.0000000349,440.976532388431,1.00000000033958,0.557739373513225
14500.0000000352,444.261206016104,1.00000000033464,0.557304604889179
14600.0000000356,447.402191495768,1.00000000033935,0.557080194781657
14700.0000000359,450.397846002116,1.0000000003315,0.557331261366532
14800.0000000363,453.25072905172,1.00000000033541,0.556712300895275
14900.0000000367,455.961370961657,1.00000000032987,0.555465053137132
15000.000000037,458.528407898064,1.00000000031697,0.555081853166347
15100.0000000374,460.957150840371,1.00000000032551,0.555608317877303
15200.0000000378,463.248237973779,1.00000000030416,0.556065458792888
15300.0000000381,465.402851754862,1.00000000030486,0.556001570864019
15400.0000000385,467.424038299377,1.00000000031626,0.554682390067785
15500.0000000389,469.3111293569,1.00000000029706,0.552729010741497
15600.0000000392,471.066417000268,1.00000000030002,0.552893480178759
15700.0000000396,472.692541391918,1.00000000029425,0.553745979689244
15800.0000000399,474.191379226486,1.00000000030826,0.557480373805518
15900.0000000403,475.573070550303,1.00000000029311,0.555399247893665
16000.0000000407,476.832272592664,1.00000000030209,0.553057663060435
16100.000000041,477.971359500295,1.0000000002792,0.548058027570367
16200.0000000414,478.985291337008,1.00000000028616,0.54953940148451
16300.0000000418,479.880723847223,1.00000000028864,0.553648352371403
16400.0000000418,480.667794126404,1.00000000028886,0.558143209589628
16500.0000000404,481.352991447182,1.00000000029559,0.557771902233095
16600.0000000389,481.938375153181,1.00000000028549,0.552195398248984
16700.0000000375,482.417728767584,1.00000000027164,0.545950788521681
16800.000000036,482.782397710227,1.00000000025608,0.542992961909178
16900.0000000346,483.037155441374,1.00000000025266,0.548530699077379
17000.0000000331,483.194461359472,1.00000000027359,0.557100824529319
17100.0000000317,483.27363545013,1.00000000030116,0.562174088818494
17200.0000000302,483.281508405074,1.00000000028996,0.557514830833038
17300.0000000287,483.207998244117,1.00000000026893,0.546969507104015
17400.0000000273,483.041070904684,1.00000000023941,0.536672512079539
17500.0000000258,482.769578066577,1.00000000022672,0.536041469010871
17600.0000000244,482.40519746025,1.00000000024537,0.546948855810496
17700.0000000229,481.970553477675,1.00000000029084,0.560295626110396
17800.0000000215,481.487042710925,1.00000000031378,0.565395176165849
17900.00000002,480.961790092702,1.00000000030141,0.558482499447896
18000.0000000186,480.380322280988,1.00000000026784,0.543380201657675
18100.0000000171,479.721752391324,1.00000000022657,0.528070911061842
18200.0000000156,478.972506102693,1.00000000021122,0.524534965276278
18300.0000000142,478.140690482644,1.00000000023729,0.536820046797315
18400.0000000127,477.25335521896,1.00000000029046,0.556265007182332
18500.0000000113,476.337977711523,1.00000000032261,0.568155174095374
18600.0000000098,475.408296831757,1.00000000034551,0.565660921679132
18700.0000000084,474.456272126758,1.00000000029072,0.549477815773057
18800.0000000069,473.455888037243,1.00000000024108,0.526416084772263
18900.0000000055,472.385232340754,1.00000000019178,0.510529893287146
19000.000000004,471.235772751374,1.00000000020059,0.512251446576681
19100.0000000026,470.025962897596,1.00000000023684,0.534955460281872
19200.0000000011,468.787142078165,1.00000000032962,0.559653781706845
19299.9999999996,467.546068275592,1.00000000036379,0.571614662173586
19399.9999999982,466.314296246652,1.00000000036529,0.56701252581145
19499.9999999967,465.078322367137,1.00000000030619,0.546703623808362
19599.9999999953,463.812415129706,1.00000000024301,0.51839895041109
19699.9999999938,462.490261179525,1.00000000018732,0.495697047471416
19799.9999999924,461.101253552097,1.00000000017913,0.493935917246267
19899.9999999909,459.659749351165,1.00000000021447,0.51712146201016
19999.9999999895,458.193692292983,1.00000000030255,0.549599097445074
20099.999999988,456.732706462782,1.00000000036806,0.570614487475334
20199.9999999865,455.294479739073,1.00000000038949,0.574132277918149
20299.9999999851,453.875311005041,1.00000000035804,0.560279511430479
20399.9999999836,452.456815662574,1.0000000002913,0.532786472172741
20499.9999999822,451.010947791862,1.00000000021698,0.49972500255111
20599.9999999807,449.517535074594,1.00000000017183,0.478923248113851
20699.9999999793,447.971443557265,1.00000000016568,0.481185699148732
20799.9999999778,446.386210487655,1.00000000022453,0.509478738354746
20899.9999999764,444.790098411809,1.00000000031489,0.546626286513078
20999.9999999749,443.20796884967,1.00000000037692,0.570862913957262
21099.9999999734,441.654849888524,1.00000000040629,0.576066357631203
21199.999999972,440.13063517278,1.00000000038179,0.565431262055812
21299.9999999705,438.621120050111,1.00000000032911,0.541621703855516
21399.9999999691,437.104951343348,1.00000000024128,0.506755176956802
21499.9999999676,435.560097017441,1.00000000019015,0.476161397570415
21599.9999999662,433.975766701723,1.00000000015355,0.464683337105869
21699.9999999647,432.355924203964,1.00000000019562,0.478655513347722
21799.9999999633,430.715565232425,1.00000000026211,0.51369108183661
21899.9999999618,429.07811413203,1.00000000033973,0.54943187043428
21999.9999999603,427.46127963821,1.00000000038956,0.570014025361822
22099.9999999589,425.874243403028,1.0000000004214,0.574282657234408
22199.9999999574,424.317489659052,1.0000000003963,0.56399582626403
22299.999999956,422.779586950259,1.00000000033882,0.541931613570944
22399.9999999545,421.244722250104,1.00000000026979,0.510178423992783
22499.9999999531,419.695931518272,1.00000000021369,0.477109870239434
22599.9999999516,418.122239307632,1.00000000017544,0.459660921309914
22699.9999999502,416.523870901862,1.0000000001686,0.463106060468108
22799.9999999487,414.906596765934,1.00000000021238,0.485444914683588
22899.9999999473,413.285254135683,1.00000000028917,0.519501123677713
22999.9999999458,411.674375401291,1.0000000003417,0.549414195526436
23099.9999999443,410.084548411714,1.0000000003898,0.565584441316855
23199.9999999429,408.52172670733,1.00000000040825,0.56695635429221
23299.9999999414,406.984518901138,1.00000000039026,0.55693709730919
23399.99999994,405.465515893649,1.00000000035175,0.537847580629855
23499.9999999385,403.954708891869,1.00000000028482,0.511947568273474
23599.9999999371,402.440322562888,1.00000000024148,0.484004865302763
23699.9999999356,400.915999886705,1.00000000019423,0.463356553060488
23799.9999999342,399.37746368424,1.00000000017551,0.458382563670809
23899.9999999327,397.828530903332,1.00000000021155,0.469069289581931
23999.9999999312,396.274928959625,1.000000000237,0.490079707561511
24099.9999999298,394.724192819711,1.00000000029973,0.51705093876571
24199.9999999283,393.185358722421,1.00000000035031,0.540741800657828
24299.9999999269,391.664031250705,1.0000000003737,0.552956456298567
24399.9999999254,390.162874736322,1.00000000038843,0.556132268450597
24499.999999924,388.681818497894,1.00000000036896,0.546778288726241
24599.9999999225,387.216929558733,1.00000000035434,0.534111054483037
24699.9999999211,385.762771187066,1.00000000029339,0.515303517115104
24799.9999999196,384.313335452457,1.00000000027483,0.496794308426529
24899.9999999181,382.864001809882,1.00000000023569,0.47888060169971
24999.9999999167,381.412810363958,1.0000000002101,0.467694320236127
25099.9999999152,379.958638053905,1.00000000021152,0.46534160897122
25199.9999999138,378.504425402359,1.00000000021994,0.472091838964875
25299.9999999123,377.051865373531,1.00000000024702,0.486864248490838
25399.9999999109,375.604855485431,1.00000000027834,0.504488865951625
25499.9999999094,374.167311150959,1.00000000032486,0.521280599093456
25599.999999908,372.741827358083,1.00000000033975,0.534390815197907
25699.9999999065,371.330303715149,1.00000000036009,0.539396406016722
25799.9999999051,369.933361089558,1.00000000035115,0.535896633810556
25899.9999999036,368.549317373547,1.00000000034464,0.530347183327752
25999.9999999021,367.176867939196,1.00000000033147,0.519848705034717
26099.9999999007,365.81326928456,1.00000000029326,0.511178703075951
26199.9999998992,364.456625483483,1.00000000027871,0.501369560407536
26299.9999998978,363.105544214357,1.00000000025576,0.491738167526983
26399.9999998963,361.759088202349,1.00000000023633,0.482814943205154
26499.9999998949,360.417952664567,1.00000000022149,0.477273792862577
26599.9999998934,359.081549571079,1.00000000022576,0.476641363751119
26699.999999892,357.751362532695,1.0000000002293,0.479705554441833
26799.9999998905,356.42766846195,1.00000000025838,0.488433501740537
26899.999999889,355.111373506296,1.00000000026203,0.498257144044135
26999.9999998876,353.803989471055,1.00000000030599,0.509141275699164
27099.9999998861,352.506198309337,1.0000000003344,0.51683080123651
27199.9999998847,351.218148967854,1.00000000032608,0.522626333021608
27299.9999998832,349.940419782658,1.00000000034369,0.52263362836402
27399.9999998818,348.672325808226,1.00000000032952,0.522288196072002
27499.9999998803,347.413475451459,1.0000000003298,0.519494094586953
27599.9999998789,346.163530345535,1.00000000028679,0.513442250930623
27699.9999998774,344.921662132162,1.00000000028312,0.509478780961556
27799.9999998759,343.688147039293,1.00000000027646,0.506792372786244
27899.9999998745,342.462554469301,1.00000000026816,0.505121625597581
27999.999999873,341.245626661271,1.00000000027486,0.501921596042577
28099.9999998716,340.037236432461,1.00000000025996,0.495552105163417
28199.9999998701,338.837847679243,1.00000000024603,0.490101346227767
28299.9999998687,337.647642834446,1.00000000023621,0.485663676143045
28399.9999998672,336.466062933133,1.00000000024272,0.483315809877154
28499.9999998658,335.293929504255,1.00000000024034,0.482988080926206
28599.9999998643,334.130998013654,1.00000000024205,0.487106755426928
28699.9999998629,332.977191465788,1.00000000027753,0.494635235637856
28799.9999998614,331.832269786798,1.00000000029624,0.50244899671458
28899.9999998599,330.695443834944,1.00000000033729,0.510909656695122
