Time,AGPnorm,Energy,Entropy
0,0,1,7.76830927175117e-18
99.9999999999986,0.003773448534542,0.999999999994854,0.0118888786229617
199.999999999993,0.0102635690777922,0.999999999999454,0.0342820059052683
300,0.0216214909447702,0.999999999995779,0.0673773368369991
400.000000000022,0.0343095070499309,0.999999999999127,0.108198927554438
500.000000000045,0.048640483414261,1.00000000000054,0.162006436259373
600.000000000068,0.0658160183960904,1.00000000004139,0.231856850191309
700.000000000091,0.0863510096460581,1.00000000024739,0.320195694875684
800.000000000113,0.228703372678832,1.00000000061045,0.405087554778027
900.000000000136,0.652138798832055,1.00000000088033,0.471562652676329
1000.00000000016,1.73072167383203,1.00000000118556,0.514069023965814
1100.0000000001,3.56070996755471,1.00000000138846,0.541132370322466
1200,6.2756382055614,1.00000000144209,0.554100427048934
1299.99999999991,9.646490363323,1.00000000145087,0.561265373938878
1399.99999999982,13.5494848230952,1.00000000152455,0.560401390199272
1499.99999999973,17.62988203691,1.00000000136922,0.556713834724484
1599.99999999964,21.7269695763139,1.00000000126753,0.54965707838576
1699.99999999955,25.5775708865754,1.00000000132013,0.545249738493478
1799.99999999946,29.082018968282,1.00000000112236,0.534578702717621
1899.99999999937,32.1003872109059,1.00000000118082,0.532268794368607
1999.99999999928,34.598836407832,1.00000000102214,0.514457686212989
2099.99999999919,36.543513995744,1.0000000010596,0.525241232182763
2199.99999999909,37.9744082358117,1.00000000090769,0.505113863218614
2299.999999999,38.8557504802231,1.00000000089726,0.495830678778165
2399.99999999891,39.3634021291138,1.00000000095653,0.539680464113646
2499.99999999882,39.5138161950335,1.00000000065625,0.457765880226109
2599.99999999873,39.2269034859558,1.00000000075368,0.486943259271738
2699.99999999864,38.8416472746709,1.0000000011065,0.56513848079459
2799.99999999855,38.3736012470316,1.00000000069417,0.461291420022577
2899.99999999846,37.6029295142549,1.00000000042372,0.385482928321973
2999.99999999837,36.729450364591,1.00000000109706,0.531734876579649
3099.99999999828,35.9772624962922,1.00000000125816,0.570498909226124
3199.99999999819,35.2629604643882,1.00000000073268,0.44781041772703
3299.99999999809,34.3981764244181,1.00000000033207,0.312802699430704
3399.999999998,33.4679232113544,1.00000000077934,0.445042577606281
3499.99999999791,32.5852688125678,1.00000000119552,0.53844105951877
3599.99999999782,31.8206020567475,1.00000000126024,0.56305173285655
3699.99999999773,31.1205740121739,1.00000000082395,0.489335809209198
3799.99999999764,30.3874388349116,1.00000000045605,0.328277650228719
3899.99999999755,29.6537386438126,1.00000000043305,0.321043528946473
3999.99999999746,28.9497591003521,1.00000000087241,0.458146363216099
4099.99999999738,28.2567276054882,1.00000000107064,0.525395434483028
4199.99999999775,27.5900372028712,1.0000000011108,0.500383631000185
4299.99999999811,26.9647493495972,1.00000000123525,0.557565994014077
4399.99999999848,26.3854959927837,1.00000000097441,0.541997854420705
4499.99999999884,25.8264738485641,1.00000000048058,0.40482438929843
4599.9999999992,25.3237963340429,1.00000000035074,0.298440859961651
4699.99999999957,24.9229501333952,1.00000000058158,0.34098244268882
4799.99999999993,24.5759935715627,1.00000000086492,0.446701762383794
4900.00000000029,24.1963111735109,1.0000000010842,0.524784564764098
5000.00000000066,23.7824415937322,1.00000000100137,0.540542201340435
5100.00000000102,23.3839666528111,1.0000000006925,0.474412972562196
5200.00000000139,22.9920871391806,1.00000000091578,0.472461596231275
5300.00000000175,22.5771805117892,1.00000000122212,0.526291651957714
5400.00000000211,22.1618315459002,1.00000000119576,0.56920116283295
5500.00000000248,21.7650807456688,1.00000000093641,0.546286562712371
5600.00000000284,21.3948337244432,1.00000000056111,0.44030243390077
5700.00000000321,21.103141586476,1.00000000037061,0.337268718004216
5800.00000000357,20.9569734974269,1.00000000038303,0.302384809119107
5900.00000000393,20.9431530548366,1.00000000068751,0.360657884600701
6000.0000000043,20.9609352627342,1.00000000090905,0.451656754162114
6100.00000000466,20.9388023841359,1.00000000093892,0.514591274618272
6200.00000000502,20.8654306112453,1.0000000009618,0.521005080261493
6300.00000000539,20.7408664764575,1.00000000098741,0.521475696515956
6400.00000000575,20.5637504265415,1.00000000104068,0.545090731419329
6500.00000000612,20.3610101488326,1.00000000083534,0.534725731711528
6600.00000000648,20.1679607439818,1.00000000071687,0.510130244491442
6700.00000000684,19.9898301959494,1.00000000073594,0.506173258983952
6800.00000000721,19.8077728448686,1.00000000081692,0.519034597984876
6900.00000000757,19.6074510522006,1.00000000090488,0.51596495060413
7000.00000000793,19.3815278225382,1.00000000107106,0.524619931712167
7100.0000000083,19.1298718465662,1.00000000124762,0.543693232698106
7200.00000000866,18.8703167637779,1.0000000011578,0.570227958190823
7300.00000000903,18.6161151037373,1.00000000103229,0.567105925486888
7400.00000000939,18.3717202307553,1.00000000075319,0.510740934414426
7500.00000000975,18.1650238726077,1.00000000044739,0.422626486784544
7600.00000001012,18.0569712612466,1.00000000036211,0.34995304038792
7700.00000001048,18.1069449050363,1.00000000037086,0.319146004984099
7800.00000001084,18.3270626442687,1.00000000054278,0.333587066325669
7900.00000001121,18.6505040881538,1.00000000080065,0.394231603071042
8000.00000001157,18.9895129069366,1.00000000096312,0.452306204328662
8100.00000001194,19.276940772937,1.00000000107771,0.503507191202835
8200.0000000123,19.4890139562359,1.00000000095226,0.530014909985324
8300.00000001266,19.6462545810287,1.00000000083131,0.538338599110204
8400.00000001303,19.7506897409587,1.00000000095975,0.557214923424562
8500.00000001339,19.7939921160161,1.00000000094341,0.577311535296421
8600.00000001376,19.7908972229789,1.0000000008378,0.561089794282172
8700.00000001412,19.7604580971174,1.00000000088173,0.548333745541587
8800.00000001448,19.7056680428935,1.00000000089757,0.541074494901414
8900.00000001485,19.6245457836163,1.00000000101039,0.543755496167273
9000.00000001521,19.5195845798126,1.00000000091042,0.543797968710243
9100.00000001557,19.4166901163924,1.00000000076489,0.537230447948287
9200.00000001594,19.3323001580794,1.00000000072142,0.524760138068778
9300.0000000163,19.2543999221893,1.00000000083633,0.524514663564249
9400.00000001667,19.1687870451532,1.00000000085376,0.530071242806254
9500.00000001703,19.0808552211388,1.00000000085255,0.532457238707043
9600.00000001739,18.9935272864422,1.00000000083948,0.534576765832027
9700.00000001776,18.9031226349294,1.0000000008342,0.540580040238163
9800.00000001812,18.7983937828502,1.00000000094328,0.552110788801161
9900.00000001848,18.6799147359072,1.0000000008648,0.567178802966043
10000.0000000188,18.5564136525472,1.00000000077389,0.572567363426845
10100.0000000192,18.4347882771381,1.00000000066716,0.563057694266181
10200.0000000196,18.3128283652849,1.00000000081186,0.565512240355448
10300.0000000199,18.1806923545138,1.00000000086271,0.573179801233366
10400.0000000203,18.0356467608613,1.0000000009596,0.569058478231997
10500.0000000207,17.88045444743,1.00000000110927,0.579256291315621
10600.000000021,17.7210959810192,1.00000000120134,0.58252157851273
10700.0000000214,17.5674829206707,1.00000000126812,0.584498606949638
10800.0000000218,17.4256364137111,1.00000000126915,0.589967049387886
10900.0000000221,17.2932841441122,1.0000000011603,0.586600404033717
11000.0000000225,17.1586836229462,1.0000000009424,0.565478819581538
11100.0000000229,17.0131251824298,1.00000000068016,0.522435479032265
11200.0000000232,16.8674470940187,1.00000000053103,0.465312659534519
11300.0000000236,16.7558789238468,1.00000000036809,0.407954411653126
11400.0000000239,16.7258110540662,1.00000000035415,0.36141749449337
11500.0000000243,16.8264620450815,1.00000000030482,0.334035946208879
11600.0000000247,17.0875499814276,1.00000000045385,0.338405128147864
11700.000000025,17.4993731707271,1.00000000051847,0.351180059908675
11800.0000000254,18.0321481161589,1.00000000073238,0.379019119054152
11900.0000000258,18.6082598599523,1.00000000091361,0.420651490862129
12000.0000000261,19.1808515366762,1.00000000094926,0.454515867894418
12100.0000000265,19.71465427298,1.00000000098567,0.487202896918877
12200.0000000269,20.1843370697592,1.00000000097529,0.517368081558567
12300.0000000272,20.594526061609,1.000000000967,0.533985392875973
12400.0000000276,20.9503510033792,1.0000000010133,0.539068036134493
12500.0000000279,21.2509830120869,1.00000000090427,0.561170141087369
12600.0000000283,21.49710433412,1.00000000095392,0.579210661135242
12700.0000000287,21.6952636710821,1.00000000092625,0.580339511095849
12800.000000029,21.8458659484002,1.00000000093773,0.577300129933783
12900.0000000294,21.9573057294998,1.00000000087865,0.581374694134463
13000.0000000298,22.0370672927061,1.00000000094378,0.594743268718635
13100.0000000301,22.0784900694063,1.00000000098043,0.603035960655137
13200.0000000305,22.0918689369493,1.0000000009022,0.586047655674085
13300.0000000309,22.0893285502005,1.00000000089592,0.571567576974208
13400.0000000312,22.0661838364977,1.00000000090867,0.562834162259159
13500.0000000316,22.029999446872,1.00000000088085,0.55797786937702
13600.0000000319,21.9907850970473,1.00000000091707,0.55733303507202
13700.0000000323,21.9396731714418,1.00000000095611,0.570519622856635
13800.0000000327,21.8738966828294,1.00000000096894,0.571515078227092
13900.000000033,21.798763697433,1.0000000008935,0.58504485238472
14000.0000000334,21.7156538268258,1.00000000095577,0.578003737905415
14100.0000000338,21.6249028139128,1.00000000095473,0.579339928576093
14200.0000000341,21.5273209617019,1.00000000090191,0.579573224501245
14300.0000000345,21.4266526198767,1.00000000089659,0.57742146447841
14400.0000000349,21.3290351619352,1.00000000077829,0.560907857945694
14500.0000000352,21.2396208198313,1.00000000073661,0.546969286157803
14600.0000000356,21.1553388082237,1.0000000009297,0.550489253503376
14700.0000000359,21.067893757721,1.00000000094007,0.557668737685651
14800.0000000363,20.9796811499549,1.00000000092346,0.564862856990004
14900.0000000367,20.8875468735613,1.0000000010065,0.570989437518499
15000.000000037,20.7888998206689,1.00000000094616,0.57539714314679
15100.0000000374,20.6921854646527,1.00000000084055,0.573447092900584
15200.0000000378,20.604496559787,1.00000000080109,0.5661618654251
15300.0000000381,20.5271004044054,1.00000000083849,0.560132782917444
15400.0000000385,20.4552093573083,1.00000000089077,0.557453507216759
15500.0000000389,20.3914845402705,1.00000000073843,0.5510566625016
15600.0000000392,20.3401427406762,1.00000000081622,0.530985384814367
15700.0000000396,20.2914813050694,1.00000000096587,0.524600820711874
15800.0000000399,20.239364698183,1.00000000087366,0.528564048658181
15900.0000000403,20.1916490111923,1.00000000081827,0.534062526735378
16000.0000000407,20.1529656410142,1.00000000082108,0.547387037585301
16100.000000041,20.1141160820859,1.0000000008509,0.571049270524597
16200.0000000414,20.0734965234579,1.00000000084765,0.584807398036501
16300.0000000418,20.0302035239739,1.00000000095555,0.58567754697724
16400.0000000418,19.9783617137149,1.00000000094257,0.56869863826
16500.0000000404,19.9202919782497,1.00000000090324,0.559714220158937
16600.0000000389,19.8664540469824,1.00000000074354,0.561669846193954
16700.0000000375,19.8173327468344,1.00000000087601,0.575935005557952
16800.000000036,19.7629032637806,1.00000000095557,0.585047773744929
16900.0000000346,19.7050129074932,1.00000000084223,0.599774100116756
17000.0000000331,19.648151335517,1.00000000088114,0.596793977653268
17100.0000000317,19.5866968041517,1.00000000099219,0.608474246978963
17200.0000000302,19.5181878850479,1.00000000090618,0.605808476442724
17300.0000000287,19.4459707128881,1.00000000093994,0.5997196655297
17400.0000000273,19.3695139606047,1.00000000094954,0.599125832341479
17500.0000000258,19.2887179695447,1.00000000098677,0.609130007006077
17600.0000000244,19.2095460887482,1.0000000008164,0.602277095913671
17700.0000000229,19.1364707883097,1.00000000078575,0.593103413692541
17800.0000000215,19.064237405439,1.00000000096166,0.594759383592579
17900.00000002,18.9881686664515,1.00000000093071,0.584465336542657
18000.0000000186,18.9102506797099,1.00000000087414,0.58301266935746
18100.0000000171,18.8341529334504,1.00000000082615,0.595297330435733
18200.0000000156,18.7590095030647,1.00000000090831,0.601395058464207
18300.0000000142,18.6825888605882,1.00000000092923,0.599925044784841
18400.0000000127,18.6075226782086,1.00000000080613,0.59161634347224
18500.0000000113,18.5356171679452,1.00000000084429,0.598072680112415
18600.0000000098,18.4626391390136,1.0000000009554,0.586951431318354
18700.0000000084,18.3855765513528,1.00000000092119,0.596790660993929
18800.0000000069,18.3068217674784,1.00000000090501,0.590884600395165
18900.0000000055,18.2263010861929,1.00000000091535,0.590856200575113
19000.000000004,18.1435456449707,1.00000000093067,0.59415885159023
19100.0000000026,18.0582801421755,1.00000000097078,0.604786495690196
19200.0000000011,17.970266091921,1.00000000099715,0.61745445556876
19299.9999999996,17.8809077102107,1.00000000098246,0.617852057521261
19399.9999999982,17.792716466146,1.00000000082264,0.600807265568233
19499.9999999967,17.7067624552122,1.00000000086806,0.604363698643117
19599.9999999953,17.6193754382829,1.00000000106117,0.617384027182391
19699.9999999938,17.5307328931716,1.00000000099519,0.621637569354989
19799.9999999924,17.4429134958977,1.00000000088525,0.61187205509211
19899.9999999909,17.3558778811206,1.0000000008097,0.591408953100237
19999.9999999895,17.2695813853578,1.00000000083398,0.603787225339842
20099.999999988,17.1841292924846,1.00000000081771,0.615616114800974
20199.9999999865,17.0996541147722,1.00000000078867,0.610806322075471
20299.9999999851,17.0162504989477,1.00000000081823,0.604704289942769
20399.9999999836,16.9342373262033,1.00000000080928,0.60553889040316
20499.9999999822,16.8546871202923,1.00000000087308,0.616253950140295
20599.9999999807,16.7786809621116,1.00000000094176,0.610399739480979
20699.9999999793,16.7086255410084,1.00000000096382,0.604626637963583
20799.9999999778,16.6470947110144,1.00000000102744,0.61856597693303
20899.9999999764,16.5970305917475,1.00000000111835,0.61770147889061
20999.9999999749,16.5657617441242,1.00000000110784,0.619870572033227
21099.9999999734,16.5522464821056,1.00000000114083,0.628408753239412
21199.999999972,16.5696891865482,1.00000000117964,0.630089278030955
21299.9999999705,16.6112933022314,1.00000000117707,0.634096980992359
21399.9999999691,16.694014607608,1.00000000136508,0.636923793161073
21499.9999999676,16.8003646533022,1.00000000128185,0.62950257555917
21599.9999999662,16.9467213886162,1.00000000125578,0.622498470453229
21699.9999999647,17.1106848740852,1.00000000136928,0.615088563358562
21799.9999999633,17.2955584315441,1.00000000123388,0.603629000540493
21899.9999999618,17.4709198583313,1.00000000104176,0.596347608279508
21999.9999999603,17.6262557654701,1.00000000097868,0.585319647336046
22099.9999999589,17.7409110872513,1.00000000087605,0.563180548868647
22199.9999999574,17.8063231386878,1.00000000073192,0.53646042533908
22299.999999956,17.8210425943661,1.00000000067154,0.506517573128226
22399.9999999545,17.7926050741173,1.00000000059928,0.476392634083595
22499.9999999531,17.7323327723929,1.00000000049974,0.445803814686357
22599.9999999516,17.667147815338,1.00000000043331,0.415527577685435
22699.9999999502,17.6167627272049,1.00000000041125,0.391388938777616
22799.9999999487,17.6155841968412,1.00000000036836,0.368702162083128
22899.9999999473,17.6923658057199,1.0000000003532,0.353543454368736
22999.9999999458,17.867545666983,1.00000000039021,0.344183475209457
23099.9999999443,18.1751260940545,1.00000000041271,0.341794833144195
23199.9999999429,18.60582900597,1.00000000047665,0.345796746883507
23299.9999999414,19.1864008504567,1.00000000049128,0.352687492622281
23399.99999994,19.8868561004154,1.00000000062503,0.36605308107353
23499.9999999385,20.7000082091091,1.00000000064142,0.378697233960761
23599.9999999371,21.6025145111269,1.00000000084416,0.392838915293399
23699.9999999356,22.5433705660882,1.00000000090539,0.410205314717346
23799.9999999342,23.5301940029185,1.00000000093399,0.425457043364391
23899.9999999327,24.5018209299903,1.00000000102979,0.440332220977437
23999.9999999312,25.4787926637414,1.00000000101687,0.462422399308726
24099.9999999298,26.4177261925187,1.00000000107851,0.47188847549201
24199.9999999283,27.3267395021108,1.00000000111817,0.477819727080623
24299.9999999269,28.1833978463144,1.00000000109515,0.498893209734945
24399.9999999254,28.9949783406723,1.00000000111478,0.507632107729682
24499.999999924,29.7630917255357,1.00000000098731,0.516611234237561
24599.9999999225,30.4676750097179,1.00000000104139,0.527725664926179
24699.9999999211,31.137703676572,1.00000000097185,0.540408023823869
24799.9999999196,31.7583436386516,1.00000000093022,0.548371156642659
24899.9999999181,32.345962136413,1.00000000108945,0.56063306050826
24999.9999999167,32.8861025337102,1.00000000101973,0.567509303881468
25099.9999999152,33.3834018162707,1.00000000099162,0.572311988523153
25199.9999999138,33.8468591768545,1.00000000105841,0.592752814922152
25299.9999999123,34.2663332295081,1.00000000096714,0.594908062838409
25399.9999999109,34.6644318958675,1.00000000094919,0.591956882193715
25499.9999999094,35.0181108859261,1.00000000102967,0.594881271266292
25599.999999908,35.3355024648559,1.00000000105933,0.617221621862627
25699.9999999065,35.6023184493296,1.00000000107579,0.627253457743733
25799.9999999051,35.8448755487557,1.00000000096641,0.618349947569341
25899.9999999036,36.0642519296205,1.00000000095835,0.612276977757674
25999.9999999021,36.2566933322036,1.00000000107498,0.612061476268344
26099.9999999007,36.4208245135151,1.00000000112802,0.627672368593202
26199.9999998992,36.5432192656732,1.00000000113568,0.63788310189726
26299.9999998978,36.6418839777077,1.00000000100912,0.638758107758746
26399.9999998963,36.7227358383823,1.00000000095516,0.622529111075446
26499.9999998949,36.8025412113219,1.00000000091429,0.609479939444564
26599.9999998934,36.8684001537184,1.00000000108205,0.607395817712565
26699.999999892,36.9141611986546,1.00000000099459,0.623741127403954
26799.9999998905,36.9343417222731,1.00000000104169,0.627816647650267
26899.999999889,36.9341431671869,1.00000000099813,0.628144387347159
26999.9999998876,36.9275652018044,1.0000000009132,0.618592435181488
27099.9999998861,36.9172320957564,1.00000000093577,0.608262681604657
27199.9999998847,36.9069250931504,1.0000000009583,0.61307406142452
27299.9999998832,36.8852135083671,1.00000000103311,0.60216140521665
27399.9999998818,36.8553285429584,1.00000000102564,0.585400221980951
27499.9999998803,36.8159036557575,1.00000000105269,0.597449493763029
27599.9999998789,36.7688913504076,1.00000000111352,0.613730772889078
27699.9999998774,36.714649631429,1.00000000099184,0.628595117468583
27799.9999998759,36.6561464995671,1.0000000009696,0.612358882046166
27899.9999998745,36.6020132539187,1.00000000080858,0.5841013304578
27999.999999873,36.5515720605713,1.00000000090925,0.590241952710128
28099.9999998716,36.4959757571487,1.00000000112449,0.599385105822326
28199.9999998701,36.4258766692617,1.00000000107818,0.593566023003388
28299.9999998687,36.3490166025646,1.00000000100922,0.588062094155815
28399.9999998672,36.2720556410978,1.00000000087471,0.572367160588477
28499.9999998658,36.196152022702,1.00000000088926,0.582079735057976
28599.9999998643,36.1180864380025,1.00000000105105,0.601506617522152
28699.9999998629,36.032636401193,1.00000000116493,0.60837944086351
28799.9999998614,35.9409968618939,1.0000000011304,0.619518490020078
28899.9999998599,35.8473038039123,1.00000000090166,0.604154743871088
28999.9999998585,35.7576059025098,1.00000000087269,0.585115546793283
29099.999999857,35.6711456043123,1.00000000098039,0.594541289695123
