Time,AGPnorm,Energy,Entropy
0,0,1,-3.15003606208469e-18
99.9999999999986,0.00405060312926345,1.00000000000129,0.0129138921791557
199.999999999993,0.0110047679066094,0.999999999999753,0.0371663303058053
300,0.0232598665921284,1.00000000000145,0.0728269009980219
400.000000000022,0.0363650340942404,1.0000000000006,0.117771707109156
500.000000000045,0.0508396137800317,1.00000000000811,0.177308774909411
600.000000000068,0.0709483314576073,1.00000000008826,0.25690081389366
700.000000000091,0.103366845022149,1.00000000040313,0.351577307126716
800.000000000113,0.327105988993913,1.0000000008025,0.435048400747901
900.000000000136,0.950426764088069,1.00000000114363,0.494156502056395
1000.00000000016,2.31688308873377,1.0000000014298,0.530798111740079
1100.0000000001,4.49969943439072,1.00000000146541,0.551921072718231
1200,7.46539680406099,1.00000000168131,0.56094179757265
1299.99999999991,11.0141253773237,1.00000000172614,0.564432880384461
1399.99999999982,14.8763738543352,1.00000000156729,0.562125177225789
1499.99999999973,18.7933001280365,1.00000000161918,0.556292298195997
1599.99999999964,22.5314834083199,1.00000000148903,0.548189213488178
1699.99999999955,25.9286459971362,1.00000000137668,0.541998637141513
1799.99999999946,28.8733441494512,1.00000000124547,0.53357296197986
1899.99999999937,31.2968456766504,1.00000000118267,0.529800945927744
1999.99999999928,33.1744388874798,1.00000000109909,0.512905834152499
2099.99999999919,34.5332991458253,1.00000000105459,0.531355816547687
2199.99999999909,35.3908485615206,1.00000000094769,0.483970026420688
2299.999999999,35.7815854117075,1.00000000098151,0.534875736257013
2399.99999999891,35.9217390796833,1.00000000092238,0.513588654079943
2499.99999999882,35.6500831583619,1.00000000059616,0.439705078171869
2599.99999999873,35.1656062088302,1.00000000115677,0.555152776068528
2699.99999999864,34.6975367609173,1.00000000108139,0.527370347338329
2799.99999999855,34.0105862046798,1.00000000044717,0.370879277491482
2899.99999999846,33.1490916639416,1.00000000102941,0.490182513984938
2999.99999999837,32.3693591774395,1.00000000141107,0.574885777977344
3099.99999999828,31.6884329899052,1.00000000106643,0.498856531543567
3199.99999999819,30.909032771858,1.00000000039226,0.320235614555231
3299.99999999809,30.0481614105135,1.0000000007388,0.409694001713374
3399.999999998,29.2131794713512,1.00000000136987,0.529715650127738
3499.99999999791,28.4769511828991,1.00000000143708,0.561536810835435
3599.99999999782,27.8194422092253,1.00000000099215,0.512754535255042
3699.99999999773,27.1440921558481,1.00000000055186,0.346844080624055
3799.99999999764,26.474363699744,1.00000000048613,0.323046563549596
3899.99999999755,25.8377754142666,1.00000000097544,0.45611277816014
3999.99999999746,25.2083971347789,1.00000000115765,0.528794755661458
4099.99999999738,24.600304406525,1.00000000110692,0.499127323155078
4199.99999999775,24.0240629156171,1.00000000129719,0.560310237355633
4299.99999999811,23.4898596514096,1.00000000108771,0.544522794416401
4399.99999999848,22.9804381510973,1.0000000005082,0.402437486029201
4499.99999999884,22.539616039653,1.0000000004041,0.302551571503346
4599.9999999992,22.2010508095818,1.00000000072845,0.361504207041056
4699.99999999957,21.896801408503,1.00000000104579,0.468714812499527
4799.99999999993,21.5500137984108,1.00000000125891,0.536710390321914
4900.00000000029,21.1777265382359,1.00000000088794,0.533924546652882
5000.00000000066,20.8252147727679,1.00000000077961,0.47608756256222
5100.00000000102,20.4708356255,1.00000000108429,0.491761728571479
5200.00000000139,20.0932637656103,1.0000000012723,0.539390055461431
5300.00000000175,19.7171250230835,1.00000000123766,0.576324833736001
5400.00000000211,19.3590396197727,1.00000000093186,0.529719343228026
5500.00000000248,19.0395236076964,1.00000000051122,0.408628099846868
5600.00000000284,18.8249625042342,1.00000000042404,0.323867758958908
5700.00000000321,18.7607188859364,1.00000000050773,0.323078867183138
5800.00000000357,18.7896004847222,1.00000000096266,0.406933427901263
5900.00000000393,18.7997226783458,1.00000000113941,0.494240720858985
6000.0000000043,18.759306933226,1.00000000098513,0.529166659374006
6100.00000000466,18.6786526045901,1.00000000101175,0.519167225053602
6200.00000000502,18.5510488075377,1.00000000106952,0.540018995132288
6300.00000000539,18.3816581132814,1.00000000104773,0.545265006784903
6400.00000000575,18.2020341421509,1.00000000087524,0.524525402071282
6500.00000000612,18.0354887142182,1.00000000083829,0.513002956363784
6600.00000000648,17.8734353694461,1.00000000085122,0.523965677304112
6700.00000000684,17.7020296026263,1.00000000092741,0.522430546590899
6800.00000000721,17.5103969040812,1.00000000106785,0.530281145745248
6900.00000000757,17.2912336716794,1.00000000128115,0.539208076845028
7000.00000000793,17.0560847517807,1.00000000136675,0.567487073304335
7100.0000000083,16.8210747867595,1.00000000124252,0.578346612032874
7200.00000000866,16.5926960460662,1.00000000087734,0.538028790590861
7300.00000000903,16.3897947777573,1.00000000056075,0.452267070206577
7400.00000000939,16.269500877941,1.00000000040643,0.367505904395259
7500.00000000975,16.2922234351825,1.00000000040925,0.332745338774109
7600.00000001012,16.480035848441,1.00000000052396,0.337671611281138
7700.00000001048,16.774517717673,1.00000000083258,0.393308275394862
7800.00000001084,17.0866615272061,1.00000000098112,0.457328227884994
7900.00000001121,17.347125395774,1.00000000107746,0.507231923795046
8000.00000001157,17.5363427785776,1.00000000105517,0.536796248604257
8100.00000001194,17.6765215995795,1.00000000096386,0.541439881024721
8200.0000000123,17.7718989852622,1.00000000095423,0.56003445856382
8300.00000001266,17.8137309377394,1.00000000110927,0.580355660872892
8400.00000001303,17.8089231143688,1.00000000100025,0.568375801591403
8500.00000001339,17.7761099194121,1.0000000009119,0.556507343239961
8600.00000001376,17.7227289214892,1.00000000095845,0.549792282459923
8700.00000001412,17.6494723409249,1.0000000010874,0.550628139123068
8800.00000001448,17.5555323359631,1.00000000100131,0.545885191675017
8900.00000001485,17.4653594002755,1.00000000084948,0.537029626432772
9000.00000001521,17.3918322814701,1.00000000077317,0.528822126410395
9100.00000001557,17.321738363373,1.00000000098768,0.53177581870704
9200.00000001594,17.2422709040332,1.000000000945,0.538340509820588
9300.0000000163,17.1614251304598,1.00000000091606,0.540663773771847
9400.00000001667,17.0815942317716,1.00000000090632,0.544544806703224
9500.00000001703,16.9976001157718,1.00000000096338,0.548575811981751
9600.00000001739,16.8982984539397,1.00000000104941,0.556324945795892
9700.00000001776,16.7871842734977,1.00000000092975,0.572189944250478
9800.00000001812,16.6716453560403,1.00000000086323,0.577504946211433
9900.00000001848,16.5582568868174,1.00000000077718,0.566985015293766
10000.0000000188,16.4431295241428,1.00000000085966,0.574613717273448
10100.0000000192,16.3181829109607,1.00000000097484,0.578842572871722
10200.0000000196,16.182266771984,1.00000000104744,0.578155558304755
10300.0000000199,16.0392676763823,1.00000000121812,0.591489662646947
10400.0000000203,15.8962499009524,1.00000000135803,0.594647490904519
10500.0000000207,15.7617018640916,1.00000000137854,0.596528601708854
10600.000000021,15.6373277914121,1.00000000138395,0.600613290076352
10700.0000000214,15.5157133621823,1.00000000114889,0.587251623931226
10800.0000000218,15.3854732992432,1.00000000082137,0.551626661246489
10900.0000000221,15.2481591043802,1.00000000063647,0.497189793145631
11000.0000000225,15.1292651455095,1.0000000004859,0.435811389012034
11100.0000000229,15.074255772399,1.00000000041713,0.383935263198247
11200.0000000232,15.1295310818993,1.00000000041021,0.348516276981304
11300.0000000236,15.3341763775704,1.00000000040086,0.343325690875748
11400.0000000239,15.6864429238347,1.00000000067981,0.358912652350684
11500.0000000243,16.1547107486781,1.00000000071943,0.383548957206179
11600.0000000247,16.6785817888328,1.00000000099758,0.41984525596549
11700.000000025,17.1923383572088,1.00000000106511,0.458742385914661
11800.0000000254,17.6702741118806,1.00000000105797,0.487276164602798
11900.0000000258,18.0891705064582,1.00000000110262,0.517699309125177
12000.0000000261,18.4481035286343,1.00000000100948,0.538542390971058
12100.0000000265,18.7603318267846,1.0000000010332,0.542765038159341
12200.0000000269,19.0250022441862,1.0000000009573,0.553437603931645
12300.0000000272,19.2427359231282,1.00000000103301,0.579515944059095
12400.0000000276,19.416335508402,1.00000000094324,0.581533562226835
12500.0000000279,19.550555383735,1.00000000103729,0.584322928106684
12600.0000000283,19.6454193598111,1.00000000100125,0.586422407556565
12700.0000000287,19.7096588309864,1.00000000103736,0.59276334283597
12800.000000029,19.742942181036,1.00000000104336,0.601595636942659
12900.0000000294,19.7489740993697,1.00000000096702,0.587976695812914
13000.0000000298,19.7431772644561,1.0000000008839,0.571689292569449
13100.0000000301,19.7219645973478,1.00000000099597,0.565799107800284
13200.0000000305,19.6860886695335,1.000000001014,0.565602623469186
13300.0000000309,19.6477773425686,1.00000000090697,0.560953331182074
13400.0000000312,19.6005452042144,1.0000000010007,0.569666506143258
13500.0000000316,19.5409819172763,1.00000000101518,0.571509358029745
13600.0000000319,19.4718238092514,1.00000000102832,0.586164284658933
13700.0000000323,19.3943571685159,1.00000000105357,0.576440388710954
13800.0000000327,19.3092848011457,1.00000000102431,0.580950640084693
13900.000000033,19.2177550623734,1.00000000099395,0.586285141687049
14000.0000000334,19.123930065684,1.00000000094615,0.581340652043449
14100.0000000338,19.0327860811195,1.00000000087511,0.565170903925
14200.0000000341,18.9499433541427,1.0000000007969,0.544040847297684
14300.0000000345,18.8724072625384,1.00000000100443,0.548698192889596
14400.0000000349,18.793537335155,1.00000000097774,0.556518617764897
14500.0000000352,18.7141018056008,1.00000000107902,0.562511820202001
14600.0000000356,18.6314907473637,1.00000000102858,0.562464003854156
14700.0000000359,18.5448262428519,1.00000000095197,0.56455523355303
14800.0000000363,18.4630552205576,1.0000000008863,0.568480593139065
14900.0000000367,18.3926531565931,1.00000000082448,0.564289130308704
15000.000000037,18.3300479851554,1.00000000099742,0.551967287434609
15100.0000000374,18.2691258790038,1.00000000109849,0.560957945864625
15200.0000000378,18.2150821472354,1.00000000086858,0.552043300621581
15300.0000000381,18.1698762604427,1.00000000090628,0.536128829185658
15400.0000000385,18.125001154873,1.00000000097315,0.532719993378977
15500.0000000389,18.0787290009564,1.00000000099357,0.538590779019835
15600.0000000392,18.0382088199783,1.00000000085951,0.54638094031042
15700.0000000396,18.0027893275432,1.00000000094576,0.567424182426844
15800.0000000399,17.9640439686197,1.00000000097415,0.588272467461407
15900.0000000403,17.921372354532,1.00000000097372,0.592447476465122
16000.0000000407,17.8752143842188,1.00000000101672,0.58173166162384
16100.000000041,17.8233404463484,1.00000000106481,0.568178395518257
16200.0000000414,17.7700919963869,1.00000000091267,0.566443503880143
16300.0000000418,17.7232627888749,1.00000000092684,0.572115132414472
16400.0000000418,17.6767961737342,1.00000000099251,0.587230312202881
16500.0000000404,17.6256980140639,1.00000000104054,0.595489017190641
16600.0000000389,17.5745057303819,1.00000000090092,0.595168523525179
16700.0000000375,17.5210187874283,1.00000000111727,0.600470088085637
16800.000000036,17.4594027796881,1.00000000105406,0.605649030107912
16900.0000000346,17.393121828843,1.00000000091356,0.603887153075786
17000.0000000331,17.3258506216017,1.00000000098212,0.598936760363407
17100.0000000317,17.2553292670974,1.00000000096825,0.608499569176974
17200.0000000302,17.1834147769235,1.00000000093688,0.609938796962459
17300.0000000287,17.115409824315,1.00000000088691,0.602444371488634
17400.0000000273,17.0502389106738,1.00000000094301,0.597692289404241
17500.0000000258,16.9817968232199,1.0000000010592,0.595715610622008
17600.0000000244,16.9103823050954,1.00000000110014,0.586236652141031
17700.0000000229,16.8398906544625,1.00000000088961,0.598064263363112
17800.0000000215,16.7723369312547,1.00000000095098,0.608374563204126
17900.00000002,16.7040136881658,1.00000000105728,0.607924655361743
18000.0000000186,16.6357967757996,1.00000000097803,0.594583451449326
18100.0000000171,16.5714172677593,1.00000000090907,0.599241673446997
18200.0000000156,16.5060480258436,1.00000000108945,0.594421486130357
18300.0000000142,16.4358282724153,1.00000000110012,0.59737180102357
18400.0000000127,16.363723049222,1.00000000099093,0.596825003350809
18500.0000000113,16.2900347479425,1.00000000106628,0.600140506656363
18600.0000000098,16.2149206114512,1.00000000099448,0.601304095995542
18700.0000000084,16.1381735554016,1.00000000099281,0.611359924486059
18800.0000000069,16.0586717179561,1.00000000118025,0.621322444214225
18900.0000000055,15.9772403190236,1.0000000010551,0.621794352422729
19000.000000004,15.8969149857049,1.00000000089639,0.609193102174272
19100.0000000026,15.8187150202168,1.00000000105573,0.612960981532315
19200.0000000011,15.7389581910234,1.00000000122877,0.628317617153382
19299.9999999996,15.6580063846068,1.00000000113637,0.622934435262421
19399.9999999982,15.5780599573469,1.00000000095368,0.609719622890549
19499.9999999967,15.4987106994324,1.00000000096516,0.592892362429621
19599.9999999953,15.4201152547568,1.00000000094202,0.608030802919205
19699.9999999938,15.3423554773043,1.00000000092784,0.620646859265121
19799.9999999924,15.2655015037534,1.00000000085032,0.613014888132972
19899.9999999909,15.1897851922864,1.00000000086991,0.605845462793211
19999.9999999895,15.1157251036139,1.00000000098028,0.609720500753674
20099.999999988,15.0446973359584,1.00000000098268,0.619016015853206
20199.9999999865,14.9780667709136,1.00000000097818,0.60865098595081
20299.9999999851,14.9183596494974,1.00000000108118,0.61500019638975
20399.9999999836,14.8688110448365,1.0000000011743,0.623124604890029
20499.9999999822,14.8322091334131,1.00000000122562,0.624881186816852
20599.9999999807,14.8167178798735,1.00000000123994,0.632948615517722
20699.9999999793,14.8189941133102,1.00000000129779,0.637511676111297
20799.9999999778,14.8550167609412,1.00000000143899,0.638362004055474
20899.9999999764,14.9124551342034,1.00000000141528,0.639048101398387
20999.9999999749,15.010979680305,1.00000000140529,0.628955214749158
21099.9999999734,15.1265873326952,1.00000000143524,0.617670167098443
21199.999999972,15.2778052481813,1.00000000141343,0.605934681397965
21299.9999999705,15.4319180914726,1.00000000133054,0.594369257963211
21399.9999999691,15.5903240168425,1.00000000127273,0.587188887780069
21499.9999999676,15.7203405105411,1.0000000009997,0.575248986770225
21599.9999999662,15.8158330425144,1.00000000098544,0.557636983607048
21699.9999999647,15.8646865767185,1.00000000082282,0.527824139243408
21799.9999999633,15.8666514920074,1.00000000072194,0.499766030133101
21899.9999999618,15.8305473687717,1.00000000071435,0.467086254048337
21999.9999999603,15.7730149722038,1.00000000055634,0.438175551471495
22099.9999999589,15.7143024176246,1.0000000005228,0.41267048140698
22199.9999999574,15.6863217959346,1.00000000047428,0.388801819457991
22299.999999956,15.7147888743335,1.00000000044822,0.370744121105169
22399.9999999545,15.8267885039662,1.00000000040823,0.355463188572221
22499.9999999531,16.0545255110577,1.00000000047813,0.348617876785026
22599.9999999516,16.3971057444844,1.00000000047705,0.352591288536291
22699.9999999502,16.888621639946,1.00000000058501,0.359306249542894
22799.9999999487,17.4885782882489,1.00000000066084,0.372913850537964
22899.9999999473,18.2143808497916,1.00000000082136,0.382679275043873
22999.9999999458,19.010689192246,1.00000000085836,0.399215576888036
23099.9999999443,19.8695563190474,1.00000000103632,0.410127795344268
23199.9999999429,20.7570708355273,1.00000000110171,0.431851697033844
23299.9999999414,21.6380600754709,1.00000000106375,0.445145173672062
23399.99999994,22.5247656129247,1.00000000111757,0.459382564676121
23499.9999999385,23.3628937487526,1.00000000109991,0.481185773959672
23599.9999999371,24.1906749060756,1.00000000111321,0.489262115944929
23699.9999999356,24.9575467581937,1.00000000130322,0.499891433861081
23799.9999999342,25.6876357899499,1.00000000114953,0.513305734298902
23899.9999999327,26.376060671027,1.00000000114366,0.52450332071937
23999.9999999312,27.0165403595712,1.00000000121515,0.530219847543051
24099.9999999298,27.6189416945065,1.00000000113794,0.544334244028049
24199.9999999283,28.174288256983,1.00000000106026,0.552417243943914
24299.9999999269,28.7073996327253,1.00000000107611,0.563762847976872
24399.9999999254,29.1964907597902,1.00000000109197,0.569953547933982
24499.999999924,29.6554009942672,1.00000000105692,0.572144019263133
24599.9999999225,30.0760678183303,1.00000000104073,0.586267586435787
24699.9999999211,30.4556968863418,1.00000000120531,0.604731299581776
24799.9999999196,30.807599825469,1.00000000108557,0.6060927695864
24899.9999999181,31.12017446652,1.00000000113565,0.597977704732827
24999.9999999167,31.4048224465234,1.00000000113414,0.610660193518225
25099.9999999152,31.6384840878002,1.00000000117671,0.631538351458547
25199.9999999138,31.8426595488106,1.00000000108162,0.631694755024752
25299.9999999123,32.0210894458397,1.0000000011026,0.619706638881693
25399.9999999109,32.1827768348739,1.00000000115781,0.613012531320589
25499.9999999094,32.3220646541613,1.00000000117467,0.621303786783703
25599.999999908,32.4310983222481,1.00000000123721,0.628255893392413
25699.9999999065,32.5143634236523,1.00000000107985,0.634323418557404
25799.9999999051,32.5753083457918,1.00000000103746,0.623978496963112
25899.9999999036,32.6330625230055,1.00000000101208,0.611837765079696
25999.9999999021,32.6799582258403,1.00000000103844,0.601451869187706
26099.9999999007,32.7180483543926,1.00000000107899,0.606059506065402
26199.9999998992,32.7372184209629,1.00000000108704,0.624557822524542
26299.9999998978,32.7355229824348,1.00000000118968,0.627892917812952
26399.9999998963,32.7216352677576,1.00000000102877,0.621639034443307
26499.9999998949,32.7025953191576,1.00000000100811,0.60898863372636
26599.9999998934,32.684186740532,1.00000000101032,0.60751041120461
26699.999999892,32.6587343802949,1.00000000102447,0.60048971166309
26799.9999998905,32.6274675878044,1.00000000104802,0.586956422505998
26899.999999889,32.5882004617344,1.0000000011141,0.597206184607605
26999.9999998876,32.5436717813832,1.00000000115924,0.612675382818398
27099.9999998861,32.4914473288492,1.00000000109934,0.631829025239308
27199.9999998847,32.4339105205865,1.00000000105478,0.622499873547724
27299.9999998832,32.3784811464076,1.00000000098273,0.598712800192718
27399.9999998818,32.3260908570206,1.00000000108641,0.591780365221851
27499.9999998803,32.2722791392955,1.00000000105913,0.600113520035943
27599.9999998789,32.2056264434796,1.00000000117679,0.595118136476236
27699.9999998774,32.1305173218099,1.00000000103701,0.591752860863018
27799.9999998759,32.0532663619297,1.00000000105446,0.580211107698854
27899.9999998745,31.977365493164,1.00000000123015,0.582734170173926
27999.999999873,31.901230825819,1.00000000109414,0.598460435550444
28099.9999998716,31.8197174031384,1.00000000118442,0.610661900091113
28199.9999998701,31.731845634611,1.00000000117879,0.618317572841883
28299.9999998687,31.6424224478508,1.00000000095424,0.607481577159798
28399.9999998672,31.5581235673158,1.00000000102001,0.593299085899629
28499.9999998658,31.47817806515,1.00000000098581,0.604527125412953
28599.9999998643,31.3992554900612,1.00000000116676,0.608314646386712
28699.9999998629,31.3177081560493,1.00000000112862,0.604181413606765
28799.9999998614,31.2379767363845,1.00000000083177,0.577111286309552
28899.9999998599,31.1654850394412,1.00000000093851,0.571431590605717
28999.9999998585,31.0922795267824,1.00000000112757,0.592311369759832
