Time,AGPnorm,Energy,Entropy
0,0,1,-7.45025478315823e-17
99.9999999999986,0.000303031293229534,1.0000000000005,0.0012019652233484
199.999999999993,0.00201467262380147,1.00000000000043,0.0036393145354339
300,0.00419963738193994,0.999999999999964,0.00683176486290052
400.000000000022,0.00659579589394794,0.999999999999896,0.0107804209751649
500.000000000045,0.00931972949079874,1.00000000000021,0.0156408197704089
600.000000000068,0.0131356496297517,1.0000000000005,0.0212484420829102
700.000000000091,0.0172962268241238,1.00000000000017,0.0273545905016419
800.000000000113,0.0220250980130895,0.999999999999999,0.0339079081376551
900.000000000136,0.0268997551132658,1,0.0410874422641961
1000.00000000016,0.0325450821014534,1.00000000000034,0.0488899912321096
1100.0000000001,0.0385275197625586,1.00000000000033,0.0572653966991682
1200,0.0447241037146876,1.00000000000014,0.0660788744378217
1299.99999999991,0.0513934854858365,1.00000000000004,0.0755047684394174
1399.99999999982,0.0581006279793142,1.00000000000008,0.0855885935841959
1499.99999999973,0.0653748071669778,1.00000000000041,0.0964367267402708
1599.99999999964,0.0724825341994669,1.00000000000023,0.10796361227686
1699.99999999955,0.0800544356774011,1.00000000000033,0.120313031271481
1799.99999999946,0.0872682045312929,1.00000000000022,0.133685117687453
1899.99999999937,0.0949520861797338,1.00000000000079,0.148261178820954
1999.99999999928,0.102532409843351,1.00000000000161,0.164257829382526
2099.99999999919,0.110791852239397,1.00000000000365,0.181731000183224
2199.99999999909,0.119042430284277,1.00000000000754,0.20104544797961
2299.999999999,0.126772941127765,1.00000000001439,0.222139665430027
2399.99999999891,0.137242836541761,1.00000000002729,0.244812327547115
2499.99999999882,0.156995821049658,1.00000000004551,0.268287248361648
2599.99999999873,0.190141225707435,1.0000000000701,0.292042290611109
2699.99999999864,0.2411612213331,1.00000000009922,0.315322567702643
2799.99999999855,0.33219718740872,1.00000000012478,0.337737931432876
2899.99999999846,0.500178243862514,1.000000000166,0.358720680130176
2999.99999999837,0.774836811622617,1.0000000001986,0.378153103557438
3099.99999999828,1.18045756784811,1.00000000023116,0.396046715027467
3199.99999999819,1.76065892412434,1.00000000026235,0.412416610557597
3299.99999999809,2.57703934080367,1.00000000030123,0.4271552276698
3399.999999998,3.67903075688326,1.00000000031694,0.440517670536335
3499.99999999791,5.09494760091572,1.00000000032508,0.452707838222755
3599.99999999782,6.85899651770006,1.00000000037979,0.46357054131857
3699.99999999773,9.01679200760558,1.00000000037943,0.47342100288104
3799.99999999764,11.6044630299078,1.00000000041816,0.481906980827229
3899.99999999755,14.6319462795345,1.00000000042034,0.489904413317547
3999.99999999746,18.1063720212626,1.00000000040543,0.49712966785395
4099.99999999738,22.035653888298,1.00000000043342,0.503077409822111
4199.99999999775,26.4248344608748,1.00000000044335,0.508150739694851
4299.99999999811,31.2590583383334,1.00000000046159,0.513232398134092
4399.99999999848,36.5186766149429,1.00000000046783,0.51719888467136
4499.99999999884,42.1859991411868,1.00000000047047,0.520375126545545
4599.9999999992,48.2348203600959,1.00000000044496,0.523572968840026
4699.99999999957,54.6303528284237,1.00000000045962,0.525967708613589
4799.99999999993,61.3415122242656,1.00000000046501,0.527860502902011
4900.00000000029,68.3386659913541,1.00000000046656,0.529570265926232
5000.00000000066,75.5791003713241,1.00000000043743,0.530953897381628
5100.00000000102,83.020511771963,1.00000000046172,0.531532481744519
5200.00000000139,90.6241574312027,1.0000000004361,0.532627764167879
5300.00000000175,98.3602613402009,1.00000000044505,0.532916537273868
5400.00000000211,106.189607853826,1.00000000043172,0.532680621053882
5500.00000000248,114.069437477012,1.00000000044187,0.532983838450786
5600.00000000284,121.960396207858,1.00000000041329,0.533315927025097
5700.00000000321,129.836662351608,1.00000000042566,0.532026198147002
5800.00000000357,137.670316770114,1.00000000042017,0.531557890083145
5900.00000000393,145.424812398542,1.00000000041909,0.53145779966301
6000.0000000043,153.063578980675,1.00000000039216,0.530421190990908
6100.00000000466,160.564235817011,1.00000000040425,0.528422128475748
6200.00000000502,167.910122991448,1.00000000038853,0.527843954386151
6300.00000000539,175.077944165746,1.00000000039953,0.527155109657974
6400.00000000575,182.040894594901,1.00000000036716,0.525886800417239
6500.00000000612,188.777074951047,1.00000000037151,0.523845117584849
6600.00000000648,195.280215420212,1.00000000034505,0.522910492164653
6700.00000000684,201.537727823159,1.00000000035156,0.522128575311202
6800.00000000721,207.535108396745,1.00000000035715,0.520706755150978
6900.00000000757,213.254979717934,1.00000000034622,0.518750492461507
7000.00000000793,218.696868713321,1.00000000034713,0.51726243309364
7100.0000000083,223.858913308435,1.00000000032742,0.516731084096826
7200.00000000866,228.735409241877,1.00000000033772,0.516030414977681
7300.00000000903,233.318547516672,1.00000000030732,0.514009673521181
7400.00000000939,237.602678222343,1.00000000031431,0.511153354281329
7500.00000000975,241.593433810118,1.00000000030594,0.510171710194206
7600.00000001012,245.298950955289,1.00000000029511,0.511502448569424
7700.00000001048,248.720446951968,1.00000000030582,0.512667962970512
7800.00000001084,251.856946371694,1.00000000028406,0.510083726881967
7900.00000001121,254.706876020552,1.00000000027847,0.504090471292194
8000.00000001157,257.269198552204,1.00000000027287,0.499109579762425
8100.00000001194,259.550335069474,1.0000000002709,0.501024054661992
8200.0000000123,261.566581830964,1.00000000028644,0.509405803422594
8300.00000001266,263.341102335807,1.00000000028006,0.515097322607106
8400.00000001303,264.889585029461,1.00000000028634,0.511555510571968
8500.00000001339,266.20398422436,1.00000000025728,0.498762172666868
8600.00000001376,267.259145133341,1.00000000023514,0.484293295800949
8700.00000001412,268.045614336286,1.00000000021436,0.483246669886696
8800.00000001448,268.591297023433,1.0000000002254,0.49894654193619
8900.00000001485,268.954217306643,1.00000000025749,0.517704695974029
9000.00000001521,269.184900121982,1.00000000029095,0.526856797253265
9100.00000001557,269.294035168254,1.00000000027574,0.518920372217807
9200.00000001594,269.249028721795,1.00000000024759,0.493574259545096
9300.0000000163,268.99784846223,1.00000000020142,0.464868739117774
9400.00000001667,268.51337752964,1.00000000017569,0.455700280709735
9500.00000001703,267.826219626216,1.0000000002033,0.477470291627694
9600.00000001739,267.0100035732,1.00000000025325,0.510909563313677
9700.00000001776,266.141983652867,1.00000000031251,0.534783291003016
9800.00000001812,265.267425973752,1.0000000003271,0.540413128183989
9900.00000001848,264.379807366377,1.00000000029611,0.524620330781609
10000.0000000188,263.42351164309,1.00000000023522,0.486117897733909
10100.0000000192,262.326221684189,1.00000000016114,0.438617389288013
10200.0000000196,261.045512889489,1.0000000001229,0.414845044099103
10300.0000000199,259.602342036523,1.0000000001491,0.436500307030021
10400.0000000203,258.067411963105,1.00000000022773,0.482753716302914
10500.0000000207,256.517739528329,1.0000000003134,0.522231596528944
10600.000000021,255.010212640059,1.00000000035013,0.54373713747276
10700.0000000214,253.568833931908,1.00000000035544,0.547015078398116
10800.0000000218,252.179180884886,1.00000000033148,0.530784545210017
10900.0000000221,250.791632956902,1.00000000026805,0.488878707109898
11000.0000000225,249.339197954245,1.00000000017746,0.427296457380215
11100.0000000229,247.770106963792,1.00000000011321,0.374717548969777
11200.0000000232,246.078383430984,1.00000000009916,0.3676378083234
11300.0000000236,244.303573406978,1.00000000016196,0.411255700858518
11400.0000000239,242.501533602146,1.00000000024371,0.470376362111435
11500.0000000243,240.722001048742,1.00000000032164,0.514506809769486
11600.0000000247,239.001168831937,1.00000000038569,0.537287333007302
11700.000000025,237.35773864419,1.00000000039623,0.545325525533346
11800.0000000254,235.790144632537,1.00000000036764,0.542053519959537
11900.0000000258,234.27655195858,1.00000000034087,0.520561280177131
12000.0000000261,232.77787669583,1.00000000025867,0.474107670601984
12100.0000000265,231.248839492507,1.00000000019026,0.409532906451959
12200.0000000269,229.657535952759,1.00000000012135,0.348524222122604
12300.0000000272,227.998820536593,1.00000000008843,0.321283862846559
12400.0000000276,226.29242000227,1.00000000011865,0.344092532196222
12500.0000000279,224.568564942292,1.00000000018613,0.401061629442032
12600.0000000283,222.854507553374,1.00000000026692,0.459876878413682
12700.0000000287,221.169535728119,1.00000000033324,0.500448278582182
12800.000000029,219.52728951998,1.00000000038326,0.521490251874759
12900.0000000294,217.937816801845,1.00000000039253,0.53111098551208
13000.0000000298,216.405521240734,1.00000000037881,0.534330453611148
13100.0000000301,214.926145152197,1.00000000035151,0.530215657347532
13200.0000000305,213.485833558332,1.00000000032217,0.513436739458624
13300.0000000309,212.064229835203,1.00000000027673,0.478676346446731
13400.0000000312,210.640047789138,1.00000000022144,0.428250950977247
13500.0000000316,209.19833537099,1.00000000016495,0.373298259722298
13600.0000000319,207.736004623558,1.00000000012258,0.330520277338318
13700.0000000323,206.261547645976,1.0000000001071,0.316312560385906
13800.0000000327,204.789057759677,1.0000000001209,0.332208230344001
13900.000000033,203.330408629938,1.00000000017111,0.372949102714774
14000.0000000334,201.891206096465,1.00000000022202,0.425860738808122
14100.0000000338,200.471313362517,1.00000000028326,0.471737914090685
14200.0000000341,199.06922602695,1.00000000031564,0.497478111611969
14300.0000000345,197.685472854132,1.00000000034098,0.504260666556864
14400.0000000349,196.322807918528,1.00000000036276,0.504301838671249
14500.0000000352,194.984425621054,1.00000000035509,0.508866128556853
14600.0000000356,193.672602788587,1.00000000033782,0.520374332021089
14700.0000000359,192.387719595422,1.00000000034425,0.52850878218471
14800.0000000363,191.126555744289,1.00000000030897,0.522192213446222
14900.0000000367,189.882626192169,1.00000000026857,0.497003554803346
15000.000000037,188.648723265669,1.00000000021741,0.458152170375873
15100.0000000374,187.421043617463,1.00000000018494,0.413538310074313
15200.0000000378,186.20164781731,1.00000000014779,0.373798149276395
15300.0000000381,184.99756836704,1.00000000014705,0.345958691596687
15400.0000000385,183.817926136361,1.00000000015337,0.334503872910173
15500.0000000389,182.670301508059,1.00000000015942,0.344463375222092
15600.0000000392,181.557958529031,1.00000000017998,0.368659953684897
15700.0000000396,180.478220414704,1.00000000020254,0.396483346822859
15800.0000000399,179.423055760767,1.00000000023731,0.427661331995492
15900.0000000403,178.382024614202,1.00000000028629,0.461208190466558
16000.0000000407,177.347383171619,1.0000000002846,0.490547530360055
16100.000000041,176.316880553376,1.00000000027646,0.503424109650075
16200.0000000414,175.29205504723,1.0000000002648,0.496601215712842
16300.0000000418,174.274540171035,1.00000000025801,0.480918535574172
16400.0000000418,173.263092931977,1.00000000027367,0.471878179475578
16500.0000000404,172.254792467814,1.00000000032454,0.478769849644839
16600.0000000389,171.247557506556,1.00000000034362,0.498905591359501
16700.0000000375,170.242302804837,1.00000000036219,0.520987866245915
16800.000000036,169.241893362168,1.00000000037082,0.533532017150364
16900.0000000346,168.249546328687,1.0000000003323,0.531549117561672
17000.0000000331,167.267853610631,1.00000000031141,0.513277176769222
17100.0000000317,166.299171838536,1.00000000024493,0.481348210735901
17200.0000000302,165.347770475995,1.00000000018621,0.439625250195902
17300.0000000287,164.421280122583,1.00000000014379,0.397673686746166
17400.0000000273,163.530180525611,1.00000000011649,0.364424707580547
17500.0000000258,162.682714197132,1.00000000012531,0.344386150534905
17600.0000000244,161.88147833742,1.0000000001585,0.340573592467341
17700.0000000229,161.1234196483,1.00000000018776,0.348386796681527
17800.0000000215,160.404129672681,1.00000000020174,0.368981242541367
17900.00000002,159.717371044458,1.00000000022896,0.395005106007759
18000.0000000186,159.055826298863,1.00000000024083,0.42156141815337
18100.0000000171,158.40939933309,1.00000000026615,0.443419010012324
18200.0000000156,157.76693721956,1.00000000029631,0.461517293287971
18300.0000000142,157.11988084519,1.00000000030616,0.477614473618046
18400.0000000127,156.462798959274,1.00000000030392,0.491833823686154
18500.0000000113,155.797110501253,1.00000000029537,0.501523107323025
18600.0000000098,155.127771653877,1.00000000026351,0.501487770003103
18700.0000000084,154.462819378368,1.00000000023174,0.49188188355213
18800.0000000069,153.808369566827,1.00000000020547,0.476015080577974
18900.0000000055,153.165918724334,1.0000000002117,0.461663646125211
19000.000000004,152.530246990287,1.00000000023267,0.455297912658557
19100.0000000026,151.891676513703,1.00000000026926,0.459342187747834
19200.0000000011,151.240451840271,1.00000000032139,0.472347903356554
19299.9999999996,150.570665878776,1.00000000035353,0.488886713021027
19399.9999999982,149.882424341487,1.00000000037273,0.507104589003256
19499.9999999967,149.179801961193,1.00000000037119,0.522989587886231
19599.9999999953,148.468898501836,1.00000000036386,0.532001782683134
19699.9999999938,147.756010524053,1.00000000033385,0.530755720928387
19799.9999999924,147.047411404739,1.00000000029293,0.518388596181352
19899.9999999909,146.348979976494,1.00000000024066,0.49551316510173
19999.9999999895,145.667483487944,1.00000000019551,0.46571077986587
20099.999999988,145.01109797422,1.00000000018014,0.434501514749126
20199.9999999865,144.389205292414,1.00000000015226,0.40748254553087
20299.9999999851,143.811682125345,1.00000000014151,0.383917272979622
20399.9999999836,143.286774736347,1.00000000013112,0.364052588588509
20499.9999999822,142.819037338537,1.00000000013467,0.351956211637456
20599.9999999807,142.407325980838,1.00000000016451,0.349010807391426
20699.9999999793,142.043936146737,1.00000000018767,0.360294053124563
20799.9999999778,141.715879423818,1.00000000021692,0.382889751481532
20899.9999999764,141.409791463779,1.00000000025475,0.407041936417456
20999.9999999749,141.116454111443,1.0000000002656,0.428674535482708
21099.9999999734,140.830442303175,1.00000000026713,0.445257880419271
21199.999999972,140.548832277183,1.00000000026622,0.458181573525053
21299.9999999705,140.270147735299,1.00000000025331,0.467242402308856
21399.9999999691,139.991628952695,1.00000000024154,0.472983651486787
21499.9999999676,139.709487293926,1.00000000025904,0.477849449506357
21599.9999999662,139.419295741798,1.00000000028289,0.484067707074858
21699.9999999647,139.115767229779,1.00000000028953,0.492634893245808
21799.9999999633,138.794327184043,1.00000000030088,0.501983422969376
21899.9999999618,138.453284019901,1.00000000028454,0.511270686634627
21999.9999999603,138.094451302173,1.00000000028057,0.518972126372431
22099.9999999589,137.722585266667,1.00000000027048,0.521653349595335
22199.9999999574,137.345265258939,1.00000000023833,0.516776186636743
22299.999999956,136.969466959073,1.00000000022294,0.507667192077242
22399.9999999545,136.599828519386,1.00000000020594,0.498694443876158
22499.9999999531,136.237304807807,1.00000000021282,0.492575265732973
22599.9999999516,135.879212651308,1.00000000022407,0.48933829500414
22699.9999999502,135.520470662064,1.00000000024116,0.485472184488284
22799.9999999487,135.15632727306,1.0000000002526,0.480247188070272
22899.9999999473,134.783513423371,1.00000000026752,0.477546284644192
22999.9999999458,134.399127680201,1.00000000028428,0.47924529485747
23099.9999999443,134.000177833111,1.00000000028963,0.485569756676756
23199.9999999429,133.583601656783,1.00000000033322,0.497495046318157
23299.9999999414,133.147368812361,1.00000000034519,0.512865311804779
23399.99999994,132.692695543439,1.00000000035082,0.527153822773144
23499.9999999385,132.22337571855,1.0000000003457,0.53676599141591
23599.9999999371,131.744913939882,1.0000000003226,0.539488240753505
23699.9999999356,131.263275090287,1.0000000003131,0.534534270272182
23799.9999999342,130.784945898551,1.00000000027115,0.521718856812594
23899.9999999327,130.316925683897,1.00000000024758,0.501291476250935
23999.9999999312,129.867294491115,1.00000000019261,0.477359728317642
24099.9999999298,129.445334002933,1.00000000017031,0.451191627146718
24199.9999999283,129.060718359836,1.00000000014597,0.426135150062054
24299.9999999269,128.722239615248,1.00000000013605,0.406787275890751
24399.9999999254,128.435760737995,1.00000000013952,0.391909112547926
24499.999999924,128.203186818357,1.00000000015618,0.380385214872957
24599.9999999225,128.023221760724,1.00000000015989,0.3735927020955
24699.9999999211,127.893300445395,1.00000000017562,0.371223307957895
24799.9999999196,127.809944790519,1.00000000019527,0.373498210988987
24899.9999999181,127.76773278284,1.00000000019981,0.379245220426476
24999.9999999167,127.758208500813,1.00000000021641,0.389388417822163
25099.9999999152,127.770371976201,1.00000000024026,0.404033128155551
25199.9999999138,127.7922418926,1.00000000026187,0.421288559914283
25299.9999999123,127.812260524972,1.00000000027113,0.438885115099633
25399.9999999109,127.822540219753,1.00000000030681,0.453370572448393
25499.9999999094,127.81912024979,1.0000000002792,0.465140499083943
25599.999999908,127.801887323006,1.00000000029162,0.475631857098703
25699.9999999065,127.773725489298,1.00000000027259,0.485823421152138
25799.9999999051,127.738813066587,1.00000000025548,0.49380432797322
25899.9999999036,127.701673485868,1.00000000024755,0.498334874046219
25999.9999999021,127.666370194765,1.00000000022949,0.499579429240796
26099.9999999007,127.635736134929,1.00000000022464,0.499772847824995
26199.9999998992,127.610180006482,1.00000000022173,0.500287814418244
26299.9999998978,127.586628257311,1.00000000022279,0.500944404301721
26399.9999998963,127.559163895097,1.00000000023975,0.503031817122781
26499.9999998949,127.52022715134,1.00000000027006,0.506566058000317
26599.9999998934,127.462970783614,1.00000000028811,0.512225473037626
26699.999999892,127.382718846739,1.00000000028774,0.517460453719134
26799.9999998905,127.277643540146,1.00000000029896,0.518546970512785
26899.999999889,127.147848561387,1.00000000029309,0.515617405075068
26999.9999998876,126.994556229179,1.00000000029286,0.510748651529203
27099.9999998861,126.819516359897,1.00000000028883,0.508218430732074
27199.9999998847,126.625142095164,1.00000000029056,0.513447321865392
27299.9999998832,126.414820015608,1.00000000028672,0.522256030504881
27399.9999998818,126.193054398651,1.00000000027554,0.526644062426572
27499.9999998803,125.965454286349,1.00000000026206,0.523436232938961
27599.9999998789,125.737790856039,1.0000000002362,0.515678054764228
27699.9999998774,125.514762194861,1.00000000022131,0.507777355980505
27799.9999998759,125.299054458367,1.00000000020566,0.503677332575553
27899.9999998745,125.091446855058,1.00000000020426,0.50333628963081
27999.999999873,124.891460477919,1.0000000002098,0.505109195954644
28099.9999998716,124.697010143309,1.0000000002136,0.507689883197466
28199.9999998701,124.504839413069,1.00000000023143,0.51005776259661
28299.9999998687,124.311212898221,1.00000000023799,0.511594673435686
28399.9999998672,124.112575746841,1.00000000024699,0.513661338888722
28499.9999998658,123.905966473398,1.00000000025254,0.516481011246885
28599.9999998643,123.68896581336,1.00000000026564,0.516462862131059
28699.9999998629,123.459712149388,1.00000000028143,0.51325724684237
28799.9999998614,123.216868845201,1.0000000002985,0.509558336386814
28899.9999998599,122.959666537394,1.00000000031628,0.507680814114165
28999.9999998585,122.687422734899,1.0000000003313,0.508291456347785
