Time,AGPnorm,Energy,Entropy
0,0,1,-7.47084823925418e-17
99.9999999999986,0.0013680492816603,0.99999999999798,0.00449603272967305
199.999999999993,0.00970694160108742,0.999999999999004,0.0130493566080199
300,0.01926746652744,1.00000000000145,0.0242967195219104
400.000000000022,0.028850998153932,1.00000000000135,0.0385695119493084
500.000000000045,0.0408078306971704,0.999999999998203,0.0557374540020099
600.000000000068,0.0570092394876699,0.999999999998067,0.075368740800078
700.000000000091,0.071905732989681,1.00000000000058,0.0980211032353401
800.000000000113,0.0867155619541099,1.00000000000221,0.124289648277884
900.000000000136,0.103206755809397,1.00000000000103,0.156066411319337
1000.00000000016,0.119103554985339,1.00000000001421,0.194887870679698
1100.0000000001,0.136517062828338,1.00000000009256,0.24328172435839
1200,0.162944860269162,1.00000000028696,0.29675561303916
1299.99999999991,0.212023122176558,1.00000000057744,0.34852049111275
1399.99999999982,0.330155173284979,1.00000000092287,0.393615676343363
1499.99999999973,0.619885064392556,1.00000000123161,0.432074540301995
1599.99999999964,1.16592562792499,1.00000000144128,0.465117408765681
1699.99999999955,2.03293224233444,1.0000000016453,0.493310846639268
1799.99999999946,3.31033900987627,1.00000000187442,0.515689560722737
1899.99999999937,5.03541215575046,1.00000000194201,0.533247412937381
1999.99999999928,7.16669943844826,1.00000000187759,0.548403595754178
2099.99999999919,9.67294170361041,1.00000000191611,0.56069592421045
2199.99999999909,12.5480734185438,1.00000000188893,0.569719792327599
2299.999999999,15.7310894971022,1.00000000196429,0.575150383178621
2399.99999999891,19.0925523504596,1.0000000020361,0.580072273522087
2499.99999999882,22.5426554877039,1.00000000198594,0.583768884283154
2599.99999999873,26.0513812626284,1.00000000192674,0.585456035048668
2699.99999999864,29.5697717763041,1.00000000184309,0.585382006050071
2799.99999999855,32.998269280005,1.00000000173395,0.584934746984171
2899.99999999846,36.2579698036192,1.00000000167876,0.584873037005296
2999.99999999837,39.3297170109846,1.00000000159811,0.583098032602225
3099.99999999828,42.2037507927519,1.00000000162058,0.580163586065655
3199.99999999819,44.8465093517962,1.00000000153346,0.578977926573067
3299.99999999809,47.212426499161,1.00000000151597,0.57881093834187
3399.999999998,49.2902482321606,1.00000000146894,0.576357181731994
3499.99999999791,51.0986308176102,1.00000000140069,0.573410432807694
3599.99999999782,52.6425056605008,1.00000000133344,0.571794606142059
3699.99999999773,53.9186422271102,1.00000000127106,0.568202927493725
3799.99999999764,54.9257814408862,1.00000000126299,0.568388528589634
3899.99999999755,55.6796398675074,1.00000000123335,0.568134009126455
3999.99999999746,56.2010488225253,1.00000000113947,0.562772283704593
4099.99999999738,56.5286785685259,1.00000000117281,0.566756423894244
4199.99999999775,56.6475235642124,1.00000000100078,0.554711030294173
4299.99999999811,56.6106665936042,1.00000000123846,0.573092832597
4399.99999999848,56.420671994386,1.0000000009421,0.540844597969194
4499.99999999884,56.09963286462,1.00000000123663,0.575494930310291
4599.9999999992,55.7144311975275,1.00000000110091,0.547949881627327
4699.99999999957,55.205677313301,1.00000000097316,0.534400224423123
4799.99999999993,54.6514983455625,1.00000000140354,0.580954375414574
4900.00000000029,54.0623371326631,1.00000000096836,0.52696244268561
5000.00000000066,53.3834636760483,1.00000000098809,0.526995262922978
5100.00000000102,52.7088617183984,1.00000000147706,0.580917753075513
5200.00000000139,52.0339755301918,1.00000000098737,0.514781668380163
5300.00000000175,51.2956379320886,1.00000000093654,0.498542263444073
5400.00000000211,50.5545978003306,1.00000000153367,0.576196559367583
5500.00000000248,49.8507097960152,1.00000000125592,0.532709580169295
5600.00000000284,49.1281769926212,1.00000000083877,0.478203623561841
5700.00000000321,48.3772322416344,1.00000000110658,0.511992829993409
5800.00000000357,47.6510865264407,1.00000000155778,0.566759329039602
5900.00000000393,46.9561829072071,1.00000000126098,0.510248301978133
6000.0000000043,46.2566962496766,1.00000000084088,0.473222504379667
6100.00000000466,45.5492696917282,1.00000000107989,0.492438270285115
6200.00000000502,44.8570453765894,1.00000000145556,0.542976749024695
6300.00000000539,44.1938721440105,1.00000000142403,0.530695559466909
6400.00000000575,43.5451240956367,1.00000000091431,0.478829822549031
6500.00000000612,42.9032924734769,1.00000000095107,0.487148311114931
6600.00000000648,42.2696924497868,1.00000000112277,0.500113836043705
6700.00000000684,41.6512578463712,1.00000000139697,0.527754251244586
6800.00000000721,41.0524079828448,1.0000000013766,0.528611072694151
6900.00000000757,40.4704941872524,1.00000000104012,0.493593725355429
7000.00000000793,39.9050393621146,1.00000000090169,0.488208556018499
7100.0000000083,39.355201668527,1.00000000116472,0.512424636263875
7200.00000000866,38.819495207556,1.00000000111425,0.505401256421116
7300.00000000903,38.3000730181722,1.00000000118335,0.510926781264757
7400.00000000939,37.7942530156015,1.00000000138015,0.525160180609434
7500.00000000975,37.300987663816,1.00000000115457,0.512361720663489
7600.00000001012,36.8285312109823,1.00000000090983,0.484583606599019
7700.00000001048,36.3766453704241,1.00000000113764,0.508328689810884
7800.00000001084,35.934756153187,1.00000000128064,0.525857320052486
7900.00000001121,35.5076974234349,1.00000000102974,0.50157690667625
8000.00000001157,35.0998112794097,1.00000000113261,0.494970377254894
8100.00000001194,34.7024973218374,1.00000000135707,0.527852751932227
8200.0000000123,34.3098119948308,1.00000000132272,0.521998806737719
8300.00000001266,33.9318859799817,1.00000000103713,0.50046643637041
8400.00000001303,33.5764364886311,1.00000000099088,0.497811780639274
8500.00000001339,33.236946382686,1.00000000117015,0.513639566808127
8600.00000001376,32.9007418426712,1.00000000137389,0.522941104927214
8700.00000001412,32.5737101206032,1.00000000115331,0.52054266472253
8800.00000001448,32.2657412568356,1.00000000100405,0.492931457472883
8900.00000001485,31.9704007856861,1.00000000121249,0.513970272815987
9000.00000001521,31.6808696749186,1.00000000126716,0.534035672472565
9100.00000001557,31.3930990340784,1.00000000133643,0.530204350259171
9200.00000001594,31.1162808736741,1.00000000104578,0.508879361950695
9300.0000000163,30.8579332935169,1.00000000106721,0.508078395898324
9400.00000001667,30.6132571036844,1.00000000118334,0.525224066073854
9500.00000001703,30.3787032128136,1.00000000109771,0.523459732321134
9600.00000001739,30.1481221334026,1.00000000118506,0.521784833839931
9700.00000001776,29.9217056473502,1.00000000123269,0.527553373859702
9800.00000001812,29.7022230734794,1.00000000114433,0.537530947919078
9900.00000001848,29.4925140919473,1.00000000112886,0.523794016961185
10000.0000000188,29.2914048815189,1.00000000113627,0.528769110991059
10100.0000000192,29.097941788276,1.00000000125519,0.542926194468493
10200.0000000196,28.9100214604223,1.00000000127664,0.540154129157474
10300.0000000199,28.724181129294,1.00000000117848,0.534660619025226
10400.0000000203,28.552333005158,1.00000000108275,0.524480648397136
10500.0000000207,28.3973765656209,1.00000000114162,0.520558546462536
10600.000000021,28.2465922178295,1.0000000013065,0.538109617779951
10700.0000000214,28.097581658946,1.00000000121464,0.532203144385849
10800.0000000218,27.9610976490708,1.00000000102275,0.518483881323484
10900.0000000221,27.8349270882002,1.00000000120083,0.529815003341618
11000.0000000225,27.7090141939475,1.00000000132678,0.533682604974534
11100.0000000229,27.5752896700522,1.00000000131285,0.557404752403417
11200.0000000232,27.4377593100999,1.00000000125392,0.565089133278321
11300.0000000236,27.3024889014212,1.00000000116029,0.551509662595957
11400.0000000239,27.1755256029753,1.00000000112605,0.549864761165077
11500.0000000243,27.0556190187753,1.00000000126539,0.556407618221151
11600.0000000247,26.9407544436063,1.00000000123399,0.553342079013509
11700.000000025,26.8293201629371,1.00000000123925,0.544932523828387
11800.0000000254,26.7232987031986,1.00000000116672,0.541773686916704
11900.0000000258,26.628523358617,1.00000000108988,0.542796334898035
12000.0000000261,26.545219845871,1.0000000011613,0.543391393866734
12100.0000000265,26.4696348627238,1.00000000123531,0.544543980236968
12200.0000000269,26.3927498620456,1.00000000129493,0.54917881136565
12300.0000000272,26.3125750692756,1.00000000119609,0.552090705060577
12400.0000000276,26.2414782301463,1.00000000107143,0.533697577775621
12500.0000000279,26.1833282104419,1.00000000110292,0.543174179890658
12600.0000000283,26.1280666650545,1.00000000124875,0.564044489198262
12700.0000000287,26.0699639713564,1.00000000120492,0.556351556469169
12800.000000029,26.0071172679866,1.00000000127028,0.562434433092742
12900.0000000294,25.9374489858385,1.0000000012253,0.564701020245427
13000.0000000298,25.861838406048,1.00000000129924,0.5777342856454
13100.0000000301,25.7797878551743,1.00000000125928,0.583645191567678
13200.0000000305,25.6938930484559,1.00000000124719,0.584898347776442
13300.0000000309,25.6114977224561,1.00000000108193,0.577435131877052
13400.0000000312,25.5374051381802,1.00000000116235,0.570367290951952
13500.0000000316,25.471878417125,1.00000000121812,0.565042932610863
13600.0000000319,25.4128011540748,1.00000000131357,0.559115035137672
13700.0000000323,25.3579799009868,1.00000000122843,0.555783759764349
13800.0000000327,25.3085761943733,1.0000000011657,0.55973813991557
13900.000000033,25.2700036569032,1.00000000110636,0.56384087300937
14000.0000000334,25.2415021299367,1.00000000123074,0.559792845336701
14100.0000000338,25.2112454567541,1.0000000013584,0.564684987806146
14200.0000000341,25.1798766082275,1.00000000122916,0.560749665049434
14300.0000000345,25.1554492457269,1.00000000116204,0.557559478403961
14400.0000000349,25.1362301030169,1.00000000120565,0.553794997636541
14500.0000000352,25.1166619975268,1.00000000117062,0.554979883424776
14600.0000000356,25.0976299317891,1.00000000120008,0.562677171823489
14700.0000000359,25.0805383535467,1.00000000118963,0.574113041709191
14800.0000000363,25.064367054639,1.00000000120311,0.581661031789435
14900.0000000367,25.0460857824671,1.00000000130282,0.592906436327518
15000.000000037,25.0247008197148,1.00000000129404,0.596738637391803
15100.0000000374,25.002497010783,1.00000000116764,0.592873087328932
15200.0000000378,24.9816570986797,1.00000000120347,0.588348029726591
15300.0000000381,24.9580489654118,1.00000000127133,0.592638461117747
15400.0000000385,24.9284458110238,1.00000000128441,0.594143789349326
15500.0000000389,24.8903665834953,1.00000000127348,0.602662685629261
15600.0000000392,24.8418110007849,1.00000000130542,0.60337692972527
15700.0000000396,24.7827692878392,1.00000000134203,0.607481129085232
15800.0000000399,24.7189629395939,1.00000000124273,0.613930921164533
15900.0000000403,24.6571139429772,1.00000000113479,0.608973594441677
16000.0000000407,24.6025152320737,1.00000000114336,0.597086421790264
16100.000000041,24.5566964471065,1.00000000113911,0.589457587974401
16200.0000000414,24.5187443429247,1.0000000012332,0.586838608704734
16300.0000000418,24.4869742922162,1.00000000126964,0.588377208802176
16400.0000000418,24.4612441496238,1.00000000124264,0.582284844768996
16500.0000000404,24.4403774812129,1.00000000126126,0.577805776204418
16600.0000000389,24.4264743576271,1.00000000123918,0.578305875046813
16700.0000000375,24.4199495589561,1.00000000120123,0.584771057593783
16800.000000036,24.4193614843822,1.00000000124759,0.586402824786078
16900.0000000346,24.4206437682645,1.0000000013186,0.582216462858733
17000.0000000331,24.4220748505777,1.00000000124068,0.57628119173779
17100.0000000317,24.4250234376248,1.00000000118328,0.570423530796218
17200.0000000302,24.4308328371942,1.00000000127486,0.571154355483297
17300.0000000287,24.43980382106,1.00000000119124,0.579836388781124
17400.0000000273,24.451730528733,1.00000000121058,0.581251078695804
17500.0000000258,24.4640266870243,1.00000000124654,0.57760389531996
17600.0000000244,24.4740851757645,1.00000000129184,0.579093453945584
17700.0000000229,24.4798952382863,1.00000000132364,0.570549861691325
17800.0000000215,24.4847935638135,1.00000000131657,0.567817831916561
17900.00000002,24.4895520245305,1.00000000128788,0.576161775020442
18000.0000000186,24.4939660390195,1.00000000125281,0.592066453191443
18100.0000000171,24.5004199283978,1.00000000128053,0.598732412272827
18200.0000000156,24.5070805951283,1.00000000136095,0.599805205089574
18300.0000000142,24.5105969839874,1.00000000135556,0.597103048809817
18400.0000000127,24.5094424550597,1.00000000134124,0.602585643652881
18500.0000000113,24.5029348500329,1.00000000131571,0.605553824988366
18600.0000000098,24.4945597388993,1.00000000129597,0.611668053467568
18700.0000000084,24.4868326868663,1.00000000136419,0.62012413037477
18800.0000000069,24.4771192155596,1.00000000131545,0.622886775938907
18900.0000000055,24.4625854749984,1.00000000136808,0.623759166552482
19000.000000004,24.4428121654038,1.0000000013015,0.623584930219394
19100.0000000026,24.420322303722,1.00000000122996,0.615065913104738
19200.0000000011,24.3961027166596,1.00000000128813,0.61586943883178
19299.9999999996,24.3669124417371,1.00000000139877,0.614913478295629
19399.9999999982,24.3296009466345,1.00000000143459,0.61194150115994
19499.9999999967,24.2840128403972,1.00000000143617,0.615207667619314
19599.9999999953,24.2324978702052,1.00000000144032,0.611109469113904
19699.9999999938,24.1781865473773,1.00000000137962,0.61019201517608
19799.9999999924,24.1248665140292,1.00000000129287,0.604695940385772
19899.9999999909,24.0761805074756,1.0000000012442,0.595610301856017
19999.9999999895,24.0339252149413,1.00000000125462,0.591157960826902
20099.999999988,23.9978877519253,1.00000000129576,0.589404644003387
20199.9999999865,23.9680652747767,1.0000000012803,0.586010251828479
20299.9999999851,23.9443855533998,1.00000000138075,0.590032274896937
20399.9999999836,23.9277559146556,1.0000000013623,0.586244157464385
20499.9999999822,23.916130111295,1.00000000131311,0.574288983570766
20599.9999999807,23.9105545475486,1.00000000133979,0.573967999393386
20699.9999999793,23.9105386754063,1.00000000133209,0.576571246015629
20799.9999999778,23.9154529274734,1.00000000133439,0.584617774249327
20899.9999999764,23.9271194034809,1.0000000012874,0.583035077078626
20999.9999999749,23.9436856588382,1.0000000013466,0.590352662348242
21099.9999999734,23.9621823710362,1.00000000137201,0.586081072668273
21199.999999972,23.9802819211523,1.00000000142345,0.583593898336024
21299.9999999705,24.0003092127124,1.00000000132575,0.585504392598231
21399.9999999691,24.0237205126362,1.00000000133406,0.573465980761938
21499.9999999676,24.0481638917057,1.00000000133007,0.574995398310956
21599.9999999662,24.0769199112709,1.00000000132852,0.572015658086308
21699.9999999647,24.1102997913411,1.00000000127448,0.579347623153691
21799.9999999633,24.1442201696136,1.00000000137032,0.582240665349805
21899.9999999618,24.1735628298124,1.0000000014031,0.587415582414475
21999.9999999603,24.2015275791826,1.00000000128151,0.588241896925412
22099.9999999589,24.2303063663382,1.00000000137083,0.587959042835411
22199.9999999574,24.2568033696086,1.00000000142149,0.590127167484036
22299.999999956,24.2787583599983,1.00000000147357,0.599359029286531
22399.9999999545,24.2980408990576,1.00000000135045,0.602500799464092
22499.9999999531,24.3182881548235,1.00000000132768,0.610068834309572
22599.9999999516,24.3413928675505,1.00000000130506,0.620010106864666
22699.9999999502,24.3654432557383,1.00000000138902,0.623495922522492
22799.9999999487,24.3859255944305,1.0000000014343,0.62749089626131
22899.9999999473,24.3999160475647,1.00000000145523,0.628837903233994
22999.9999999458,24.410106372021,1.00000000143044,0.627393363789668
23099.9999999443,24.4185753804814,1.00000000135819,0.631520857294255
23199.9999999429,24.4288333597073,1.00000000133124,0.631371257369556
23299.9999999414,24.4409403673037,1.00000000130804,0.625169950861178
23399.99999994,24.4552635954404,1.00000000127891,0.625355486826398
23499.9999999385,24.4696683306987,1.00000000141238,0.626746245584242
23599.9999999371,24.4768741734144,1.00000000151614,0.634921670440854
23699.9999999356,24.4794942545895,1.00000000139706,0.642034494319242
23799.9999999342,24.4811838928174,1.00000000138434,0.64328253371526
23899.9999999327,24.4821964291747,1.00000000143635,0.647183924816761
23999.9999999312,24.4788622749263,1.0000000014762,0.648984219088966
24099.9999999298,24.4728696630713,1.00000000128395,0.648005445740984
24199.9999999283,24.4697865904074,1.00000000130326,0.6415265933731
24299.9999999269,24.4691136172196,1.00000000135342,0.628883941432561
24399.9999999254,24.4654872985119,1.00000000143337,0.638195540260442
24499.999999924,24.4573817793477,1.00000000138109,0.638016703695013
24599.9999999225,24.4462469915036,1.00000000139207,0.637496552438259
24699.9999999211,24.4303424238286,1.00000000143614,0.635834472303986
24799.9999999196,24.4112940504559,1.00000000142174,0.6383900018035
24899.9999999181,24.3915945739377,1.00000000143598,0.64577252348805
24999.9999999167,24.3709214220152,1.00000000139162,0.641118107698602
25099.9999999152,24.3494593160565,1.0000000014149,0.642821952440687
25199.9999999138,24.3268771254827,1.0000000013361,0.64224800519786
25299.9999999123,24.3020438792942,1.0000000013992,0.649536862244843
25399.9999999109,24.2748414666398,1.00000000138813,0.639794819615081
25499.9999999094,24.2452453308011,1.00000000145487,0.639362107088143
25599.999999908,24.212668637736,1.00000000141295,0.644734814974335
25699.9999999065,24.1772433910173,1.00000000135506,0.64717851681214
25799.9999999051,24.1392840993582,1.00000000148269,0.648286259387343
25899.9999999036,24.0987414753485,1.00000000147027,0.648102815691304
25999.9999999021,24.0548590026618,1.00000000150353,0.648538581507407
26099.9999999007,24.0077485496955,1.00000000148131,0.650055089028255
26199.9999998992,23.9589496885971,1.00000000144475,0.653345808834741
26299.9999998978,23.9091250621455,1.00000000146062,0.658101266453888
26399.9999998963,23.858387106922,1.00000000140516,0.657870588072178
26499.9999998949,23.8095752388124,1.00000000126828,0.650945448291661
26599.9999998934,23.7644894055355,1.00000000132643,0.645420831563629
26699.999999892,23.7247615373321,1.00000000129078,0.639585827600752
26799.9999998905,23.6907379746011,1.00000000135551,0.634052391795921
26899.999999889,23.6614897921613,1.00000000136629,0.637485572952384
26999.9999998876,23.6378262911487,1.00000000146739,0.64058854523294
27099.9999998861,23.6184910967721,1.00000000142896,0.64306091518189
27199.9999998847,23.6031106169877,1.00000000140967,0.640716199156412
27299.9999998832,23.5935976242748,1.00000000138465,0.632296979985464
27399.9999998818,23.5890658331031,1.00000000138372,0.62633450518074
27499.9999998803,23.5902620469643,1.00000000139842,0.619236014141704
27599.9999998789,23.5956957827685,1.00000000138941,0.614596763558302
27699.9999998774,23.6054102551822,1.00000000139987,0.612263562278029
27799.9999998759,23.6198805109089,1.00000000138034,0.615990774518621
27899.9999998745,23.639120079207,1.00000000149161,0.616630688871306
27999.999999873,23.6610293926784,1.00000000146853,0.613400781551676
28099.9999998716,23.6851256291014,1.00000000141941,0.611845538478518
28199.9999998701,23.711607332316,1.00000000146792,0.610175582477751
28299.9999998687,23.7385314420948,1.00000000144699,0.607287245676657
28399.9999998672,23.7659618204136,1.00000000143183,0.609471652267013
28499.9999998658,23.7965090037625,1.00000000143146,0.610231989079498
28599.9999998643,23.8299305014846,1.00000000143273,0.603165421846082
28699.9999998629,23.8646407610181,1.00000000138322,0.593194428736089
28799.9999998614,23.9019644482271,1.00000000142724,0.596332639500128
28899.9999998599,23.9417577467592,1.00000000137385,0.598690773751183
28999.9999998585,23.9833090134891,1.00000000145468,0.603137179817538
