Time,AGPnorm,Energy,Entropy
0,0,1,9.61027951144454e-19
99.9999999999986,0.00462359783750807,1.00000000000101,0.0143705866570753
199.999999999993,0.0129236166366192,1.00000000000116,0.0426633876897494
300,0.0268041582006612,1.00000000000001,0.0831603360072463
400.000000000022,0.0412369004451267,1.00000000000364,0.136736777848153
500.000000000045,0.0573279138888784,1.0000000000242,0.209362991213863
600.000000000068,0.0846854950445495,1.00000000022982,0.30763909306781
700.000000000091,0.181580996619409,1.00000000073559,0.407286855640874
800.000000000113,0.620377800750654,1.00000000135606,0.481421118326009
900.000000000136,1.70898036235531,1.00000000163634,0.527719691524565
1000.00000000016,3.59630373377162,1.00000000174437,0.553547223380177
1100.0000000001,6.31020017592395,1.00000000192853,0.565572435148814
1200,9.56102328985796,1.00000000194283,0.568997611023854
1299.99999999991,13.1470853344898,1.00000000183576,0.567454127520735
1399.99999999982,16.7244325831212,1.00000000182348,0.561316688436983
1499.99999999973,20.0878006894711,1.00000000159135,0.552999033593797
1599.99999999964,23.0612708121254,1.00000000155793,0.547380920446661
1699.99999999955,25.5311462284406,1.00000000135425,0.536514286259238
1799.99999999946,27.4889656292524,1.00000000126513,0.538553411982904
1899.99999999937,28.8973130743731,1.00000000119984,0.513964977884744
1999.99999999928,29.8128054084317,1.00000000124134,0.541088502552306
2099.99999999919,30.2984111340183,1.00000000104933,0.492901439788348
2199.99999999909,30.3422333554846,1.00000000105181,0.527552071076967
2299.999999999,30.2241334060811,1.00000000120105,0.534240147091217
2399.99999999891,29.7826187930643,1.00000000065109,0.429802823769374
2499.99999999882,29.186209558162,1.00000000141152,0.565355161346938
2599.99999999873,28.6450735002059,1.00000000123076,0.523121199061267
2699.99999999864,27.9368883019743,1.00000000050346,0.361718308856269
2799.99999999855,27.1231648364192,1.00000000137397,0.517402661512283
2899.99999999846,26.4141272415138,1.00000000159635,0.573871939496376
2999.99999999837,25.769329372447,1.00000000104858,0.45705753092081
3099.99999999828,25.0451825768283,1.00000000055331,0.326647870521321
3199.99999999819,24.3000481951801,1.00000000118509,0.474124428465223
3299.99999999809,23.5927662797336,1.00000000167095,0.53998511216458
3399.999999998,22.9703157310143,1.00000000153353,0.566048578315747
3499.99999999791,22.3838037003492,1.0000000008385,0.448513977710105
3599.99999999782,21.804454367247,1.00000000057119,0.323224583071281
3699.99999999773,21.2702590976649,1.00000000098597,0.412205360863749
3799.99999999764,20.7440531513921,1.00000000134465,0.525284079382239
3899.99999999755,20.2275858466437,1.00000000108243,0.508153241663692
3999.99999999746,19.7273680000083,1.00000000151324,0.533548837599046
4099.99999999738,19.2539980497184,1.00000000145337,0.572437857218444
4199.99999999775,18.8128338847435,1.00000000088219,0.456280175712784
4299.99999999811,18.4402515738611,1.00000000044915,0.32984677892643
4399.99999999848,18.1712532478941,1.00000000090137,0.370529070739414
4499.99999999884,17.934416607382,1.00000000127938,0.475692384525898
4599.9999999992,17.6589142170328,1.00000000136226,0.535862876737681
4699.99999999957,17.3556859845045,1.0000000011658,0.542112310986695
4799.99999999993,17.0709588605959,1.00000000090429,0.49734718148776
4900.00000000029,16.7838027222891,1.00000000129656,0.508175885198947
5000.00000000066,16.4712113428188,1.00000000160457,0.541630185513104
5100.00000000102,16.1534162517361,1.0000000014607,0.580773729773596
5200.00000000139,15.8525257879871,1.00000000105704,0.526402384412303
5300.00000000175,15.6076470276646,1.00000000054837,0.402400563554444
5400.00000000211,15.4862514098941,1.00000000054276,0.344312124203938
5500.00000000248,15.4931896387126,1.00000000080121,0.371353448511269
5600.00000000284,15.5357568860979,1.00000000131844,0.461097199960104
5700.00000000321,15.5273801723502,1.00000000134906,0.529923646879131
5800.00000000357,15.4837044620508,1.00000000111521,0.53517400257417
5900.00000000393,15.4150745978968,1.00000000117242,0.534089502716609
6000.0000000043,15.3062203747673,1.0000000012872,0.556425084153389
6100.00000000466,15.1703787839669,1.00000000128427,0.537950073554983
6200.00000000502,15.0311418293833,1.00000000104014,0.541707019407143
6300.00000000539,14.8941722222937,1.00000000099266,0.537015566375809
6400.00000000575,14.7589292173285,1.00000000104388,0.541441589347546
6500.00000000612,14.6105093744778,1.00000000118911,0.543416103338518
6600.00000000648,14.4376992336891,1.00000000142255,0.55165624473548
6700.00000000684,14.2436783222438,1.00000000162273,0.565035966825962
6800.00000000721,14.0421584565379,1.00000000151506,0.583682995805087
6900.00000000757,13.8451638146566,1.00000000118618,0.556809475706548
7000.00000000793,13.6733316965182,1.00000000074296,0.477265582172555
7100.0000000083,13.5812887711498,1.00000000054101,0.394418559020025
7200.00000000866,13.6245576086475,1.00000000056171,0.362572071858626
7300.00000000903,13.808552531256,1.00000000076975,0.375128332510108
7400.00000000939,14.0662536441344,1.00000000104251,0.426872760069348
7500.00000000975,14.3120038888293,1.00000000130261,0.484704372512059
7600.00000001012,14.5086652567411,1.00000000130955,0.526976923283665
7700.00000001048,14.6526672935425,1.000000001273,0.548881081276924
7800.00000001084,14.7600240167697,1.0000000012404,0.550860010866203
7900.00000001121,14.8319618381697,1.0000000012214,0.570659323110532
8000.00000001157,14.8602145336971,1.0000000013512,0.585081507226904
8100.00000001194,14.8531470049916,1.00000000117854,0.577993698586017
8200.0000000123,14.823667099867,1.00000000116295,0.562281435663958
8300.00000001266,14.7803674861039,1.00000000116745,0.555286352711352
8400.00000001303,14.7253583821301,1.00000000129637,0.552996762520806
8500.00000001339,14.6581354725931,1.00000000115849,0.547350309180982
8600.00000001376,14.5955699704462,1.00000000107735,0.550061744323705
8700.00000001412,14.5391250065589,1.00000000103403,0.551383710078339
8800.00000001448,14.4798177281014,1.00000000122837,0.552989794643977
8900.00000001485,14.4174588471675,1.00000000114882,0.553643074217474
9000.00000001521,14.3562675061146,1.00000000118381,0.555417339184836
9100.00000001557,14.2910548153514,1.00000000116772,0.555649337769638
9200.00000001594,14.2160234997931,1.00000000131706,0.558796090078167
9300.0000000163,14.1277259627922,1.00000000117669,0.574190229441439
9400.00000001667,14.0311267431674,1.00000000118934,0.594779508782551
9500.00000001703,13.9316442659398,1.00000000099595,0.582907430219337
9600.00000001739,13.8338473300637,1.00000000106248,0.583791179692798
9700.00000001776,13.7296654874767,1.00000000115565,0.587653555874792
9800.00000001812,13.6166538774239,1.00000000130481,0.586153603370975
9900.00000001848,13.4955643163051,1.00000000143801,0.593008484086679
10000.0000000188,13.3722077097094,1.00000000152086,0.592210359546711
10100.0000000192,13.2535339499749,1.00000000171677,0.590499548957146
10200.0000000196,13.1398902808456,1.00000000166583,0.589867579708307
10300.0000000199,13.0255261743857,1.0000000013666,0.578355792007057
10400.0000000203,12.9048179907628,1.0000000010299,0.542667518122424
10500.0000000207,12.7891639456343,1.00000000077731,0.487134817004148
10600.000000021,12.7118713826408,1.00000000064244,0.434133860122148
10700.0000000214,12.7201141020108,1.00000000051652,0.388722810817294
10800.0000000218,12.8480236252368,1.00000000060998,0.37484574045794
10900.0000000221,13.1118053249713,1.00000000068099,0.382255815267331
11000.0000000225,13.4768313473319,1.00000000098116,0.407142335050745
11100.0000000229,13.8970160578983,1.00000000109212,0.437408226922405
11200.0000000232,14.3146762877887,1.00000000131463,0.472614014033035
11300.0000000236,14.6965028087636,1.00000000128088,0.498549102974146
11400.0000000239,15.0430387864541,1.0000000012559,0.525221928272232
11500.0000000243,15.3418798890853,1.00000000132529,0.550622650364896
11600.0000000247,15.6007614530053,1.00000000136774,0.562346443716593
11700.000000025,15.8244202539229,1.00000000122544,0.565634803472451
11800.0000000254,16.0121121977181,1.00000000134687,0.587840818994438
11900.0000000258,16.1673187989775,1.00000000121742,0.600183390900392
12000.0000000261,16.2900501581844,1.00000000127532,0.601327484996168
12100.0000000265,16.3755156100906,1.00000000133738,0.607864231164541
12200.0000000269,16.4324555072456,1.00000000124639,0.611376140618016
12300.0000000272,16.4679903955619,1.000000001253,0.616596376930222
12400.0000000276,16.4834983328513,1.00000000133581,0.612166477746948
12500.0000000279,16.4888810617883,1.00000000114789,0.595224605666565
12600.0000000283,16.4832836973472,1.0000000013395,0.596781579586546
12700.0000000287,16.4593299509487,1.00000000130243,0.591230004925702
12800.000000029,16.4329637413238,1.00000000114991,0.582016868548331
12900.0000000294,16.3984754867906,1.00000000128677,0.596230694776708
13000.0000000298,16.3486576111787,1.00000000133982,0.600746723548155
13100.0000000301,16.2912636386538,1.00000000121664,0.609549214807144
13200.0000000305,16.2284369826564,1.0000000012257,0.601111076184019
13300.0000000309,16.1605276124828,1.00000000127885,0.612296717724855
13400.0000000312,16.0857574495581,1.00000000129496,0.613267651246234
13500.0000000316,16.01135659955,1.00000000113782,0.601382167889297
13600.0000000319,15.9416066050826,1.00000000112117,0.586290629201855
13700.0000000323,15.8795155667094,1.00000000120035,0.573556484388507
13800.0000000327,15.822935681632,1.00000000137695,0.577440402368607
13900.000000033,15.7654146213558,1.00000000129828,0.590979200851546
14000.0000000334,15.7106153477531,1.00000000116553,0.591043404094773
14100.0000000338,15.6544101171486,1.00000000129849,0.59460059818392
14200.0000000341,15.5983003453086,1.00000000133142,0.596083378684981
14300.0000000345,15.5486331243675,1.00000000104402,0.590219406396628
14400.0000000349,15.5067641596606,1.00000000132284,0.588736268408191
14500.0000000352,15.4614622877876,1.00000000139085,0.587383460806095
14600.0000000356,15.4164543469903,1.00000000125326,0.587746976405914
14700.0000000359,15.3796975990725,1.00000000112599,0.571188942118131
14800.0000000363,15.3479926036357,1.00000000121379,0.555604812410322
14900.0000000367,15.314047985769,1.00000000133129,0.556643298894233
15000.000000037,15.2804426976638,1.000000001241,0.562821677185035
15100.0000000374,15.2515343523138,1.00000000118905,0.570598568595177
15200.0000000378,15.2222662001417,1.0000000012772,0.602356365923529
15300.0000000381,15.1895720010805,1.00000000122408,0.612675233445298
15400.0000000385,15.1569849763401,1.00000000127935,0.602905162001674
15500.0000000389,15.1219420967146,1.00000000128517,0.580625549995088
15600.0000000392,15.084672189629,1.00000000131802,0.588021276594776
15700.0000000396,15.0524894668817,1.00000000114369,0.589079468395612
15800.0000000399,15.0216344151467,1.00000000144523,0.60060239227248
15900.0000000403,14.9841705775178,1.00000000133471,0.615234271925307
16000.0000000407,14.9445919842913,1.00000000122606,0.61852963829382
16100.000000041,14.9047671814685,1.0000000011852,0.628635346750417
16200.0000000414,14.8600216368383,1.00000000132385,0.631495131009386
16300.0000000418,14.8107405976882,1.00000000121394,0.620679593687349
16400.0000000418,14.7583765085759,1.00000000138233,0.61148560951993
16500.0000000404,14.7022977735829,1.00000000127037,0.612531051367957
16600.0000000389,14.647296965752,1.00000000118599,0.619210545209851
16700.0000000375,14.5989400918242,1.00000000114391,0.610242635615459
16800.000000036,14.5539847421199,1.00000000126864,0.614524038383955
16900.0000000346,14.5036345500858,1.00000000145612,0.614307228799221
17000.0000000331,14.4479376402969,1.00000000132075,0.609620450025532
17100.0000000317,14.3936324207129,1.00000000106836,0.613457603255018
17200.0000000302,14.339719734667,1.00000000143311,0.626408288591127
17300.0000000287,14.2815361863609,1.00000000125946,0.62222554201388
17400.0000000273,14.2250472845264,1.00000000111502,0.607412778775215
17500.0000000258,14.1726317845019,1.00000000125012,0.614034941175222
17600.0000000244,14.1181330845646,1.00000000130844,0.605056240717089
17700.0000000229,14.0620834509992,1.00000000126935,0.620388057193553
17800.0000000215,14.0051530443265,1.00000000129144,0.620701776139965
17900.00000002,13.9453590329334,1.00000000138683,0.624092677633638
18000.0000000186,13.8834964738077,1.00000000125439,0.614267376385047
18100.0000000171,13.8179043463177,1.00000000142688,0.6319104171885
18200.0000000156,13.7487087858408,1.00000000139636,0.631699594878465
18300.0000000142,13.6799310247893,1.00000000120077,0.623438178383916
18400.0000000127,13.6134216621124,1.00000000126022,0.62053873602093
18500.0000000113,13.5445326727986,1.0000000016054,0.64591454066301
18600.0000000098,13.4732067051701,1.00000000127935,0.630517498127123
18700.0000000084,13.4023790376724,1.00000000125869,0.634164417246906
18800.0000000069,13.3318127005164,1.00000000125016,0.62026858913337
18900.0000000055,13.2619330324585,1.00000000121715,0.63235862412605
19000.000000004,13.1925292311921,1.00000000119707,0.641016443387313
19100.0000000026,13.1239303223868,1.00000000111075,0.628232399069742
19200.0000000011,13.056256155961,1.00000000115666,0.628607647467375
19299.9999999996,12.9903223426222,1.00000000114549,0.63584009620224
19399.9999999982,12.92659764402,1.00000000130656,0.636138070579913
19499.9999999967,12.8668010206331,1.00000000152045,0.626499702077392
19599.9999999953,12.8129676212466,1.00000000136923,0.633570152752694
19699.9999999938,12.7674446962923,1.00000000144353,0.634101452488576
19799.9999999924,12.7359726986079,1.0000000015653,0.628473427096057
19899.9999999909,12.7165877816623,1.00000000154163,0.636935849216812
19999.9999999895,12.7218785655515,1.00000000183192,0.639676068635029
20099.999999988,12.7416107870132,1.00000000165771,0.646095864455172
20199.9999999865,12.792555968986,1.00000000178951,0.654725477936597
20299.9999999851,12.8525896250295,1.0000000017022,0.649372296210763
20399.9999999836,12.9393440132628,1.00000000175005,0.645179846380046
20499.9999999822,13.0229246025093,1.00000000171174,0.630369677930227
20599.9999999807,13.1060461824539,1.00000000153961,0.619794436952565
20699.9999999793,13.161848706031,1.00000000137102,0.60739878118418
20799.9999999778,13.185600644179,1.00000000110989,0.580841474790602
20899.9999999764,13.175309100607,1.000000001,0.550760622990856
20999.9999999749,13.134887182503,1.00000000088789,0.519463261018285
21099.9999999734,13.0816052259783,1.0000000008119,0.488981403908981
21199.999999972,13.0338518617906,1.00000000072751,0.456702671315428
21299.9999999705,13.0163067249915,1.00000000075698,0.429142811805586
21399.9999999691,13.0579385490424,1.00000000068262,0.409545888017742
21499.9999999676,13.1855871111692,1.00000000065017,0.396913700476972
21599.9999999662,13.4105403103863,1.00000000071917,0.390816777220571
21699.9999999647,13.7589305514759,1.00000000083263,0.395905985548476
21799.9999999633,14.1999714016496,1.00000000087279,0.402616512669677
21899.9999999618,14.7630252438175,1.00000000101643,0.410285958702127
21999.9999999603,15.3848327327031,1.00000000111859,0.426523070531411
22099.9999999589,16.0838404251912,1.00000000127288,0.433490275490286
22199.9999999574,16.7977085635378,1.00000000126454,0.448474102787156
22299.999999956,17.5260175194696,1.00000000144025,0.457247400335541
22399.9999999545,18.2455188663742,1.00000000147675,0.481500787807616
22499.9999999531,18.933687416284,1.00000000152927,0.488015895307024
22599.9999999516,19.6106252833513,1.00000000142816,0.498557387783869
22699.9999999502,20.2415064375413,1.00000000144302,0.51546217544271
22799.9999999487,20.8641006247368,1.00000000140672,0.519524805687439
22899.9999999473,21.43189510564,1.00000000145247,0.532844205107923
22999.9999999458,21.975442688718,1.00000000145841,0.53596827437012
23099.9999999443,22.49036380627,1.00000000139422,0.552196040639193
23199.9999999429,22.9679464626562,1.00000000141258,0.555223431706757
23299.9999999414,23.4264857645773,1.00000000134834,0.565118356888609
23399.99999994,23.8465745530773,1.00000000130544,0.581791837642839
23499.9999999385,24.2545532583788,1.00000000142997,0.593814737039228
23599.9999999371,24.6246357878921,1.00000000145397,0.591916699038859
23699.9999999356,24.9710503739404,1.00000000135681,0.600414971058599
23799.9999999342,25.2797643772676,1.00000000142271,0.625890519118122
23899.9999999327,25.5607247444862,1.00000000126345,0.61937008627601
23999.9999999312,25.8246457489307,1.00000000140515,0.615395273871709
24099.9999999298,26.0524894968962,1.00000000149128,0.62597644869805
24199.9999999283,26.2518116944457,1.00000000149484,0.642964943150296
24299.9999999269,26.4137310912654,1.00000000145511,0.64699135647477
24399.9999999254,26.5653424251768,1.00000000157572,0.634944703443823
24499.999999924,26.6962123092798,1.00000000132594,0.638553640190353
24599.9999999225,26.8072199593174,1.00000000132887,0.641274049816335
24699.9999999211,26.8943263985087,1.00000000146023,0.65763041855699
24799.9999999196,26.9578109449607,1.00000000134141,0.651074353406283
24899.9999999181,27.0176312517828,1.00000000131212,0.644689190633305
24999.9999999167,27.0692123331375,1.00000000120024,0.631255704081474
25099.9999999152,27.1166812173434,1.00000000137028,0.635946674236252
25199.9999999138,27.1457592670615,1.00000000142263,0.637448766670292
25299.9999999123,27.1579369779161,1.00000000141541,0.649147490311026
25399.9999999109,27.1516131121304,1.00000000131013,0.646977595753761
25499.9999999094,27.1439401904128,1.00000000125084,0.629595258208748
25599.999999908,27.1395844048173,1.00000000124347,0.620546456524559
25699.9999999065,27.1318219702167,1.00000000129891,0.620832845101179
25799.9999999051,27.1170738229388,1.00000000152341,0.618617809883494
25899.9999999036,27.0915465524982,1.00000000136391,0.609261973803296
25999.9999999021,27.0607892414745,1.00000000139107,0.621905448509122
26099.9999999007,27.0228048342689,1.00000000132582,0.645160719913299
26199.9999998992,26.9798462477896,1.00000000134477,0.647363821526226
26299.9999998978,26.9384521572017,1.00000000129721,0.616209060136658
26399.9999998963,26.9018814416981,1.00000000107243,0.595259757218467
26499.9999998949,26.8650660915637,1.00000000144412,0.615188729725245
26599.9999998934,26.8177060398181,1.00000000136602,0.605129076132256
26699.999999892,26.7638260532337,1.0000000014298,0.605379015277433
26799.9999998905,26.7058265856097,1.00000000136679,0.591709438770931
26899.999999889,26.6502824237642,1.00000000119004,0.593165229021049
26999.9999998876,26.5955001832437,1.00000000142629,0.627604882974882
27099.9999998861,26.5337859477436,1.00000000148645,0.640860919347501
27199.9999998847,26.4655479334474,1.00000000149426,0.647020062912891
27299.9999998832,26.3970492270536,1.00000000130981,0.630942880994333
27399.9999998818,26.3333834456656,1.00000000131346,0.615306272612937
27499.9999998803,26.2717863873971,1.00000000138762,0.619124985426176
27599.9999998789,26.2103433456285,1.00000000136478,0.619051290786931
27699.9999998774,26.149662387274,1.00000000128619,0.608103639042123
27799.9999998759,26.0963627309395,1.00000000118113,0.586883925731003
27899.9999998745,26.0507427446642,1.0000000013633,0.603921503347748
27999.999999873,26.0031458799751,1.00000000142348,0.626567354762807
28099.9999998716,25.9501310418115,1.00000000157397,0.633991175926958
28199.9999998701,25.8913217670523,1.00000000136832,0.631110576235455
28299.9999998687,25.8338185358043,1.00000000122847,0.614690227619471
28399.9999998672,25.7799011357477,1.00000000133391,0.633141248930378
28499.9999998658,25.7224336392815,1.0000000015921,0.643537125889502
28599.9999998643,25.6588008224393,1.00000000154686,0.638122142533222
28699.9999998629,25.5939638501383,1.00000000120835,0.627883720128807
28799.9999998614,25.5340020527831,1.00000000125531,0.613396315968551
28899.9999998599,25.4759605943764,1.00000000158252,0.61079538965593
28999.9999998585,25.4166909654146,1.00000000153549,0.613633986911468
