Time,AGPnorm,Energy,Entropy
0,0,1,-7.56923919615707e-17
99.9999999999986,0.000461867391731101,0.999999999998438,0.00173518438836412
199.999999999993,0.00315517427402091,0.999999999998258,0.0051497709728043
300,0.0064030713365631,0.99999999999984,0.00965624857554739
400.000000000022,0.00989721181798518,1.00000000000052,0.0153158446610259
500.000000000045,0.0140133255035006,0.999999999998958,0.0222165107251729
600.000000000068,0.0199514683053699,0.999999999998025,0.0300176523863586
700.000000000091,0.0258895245919073,0.999999999999065,0.0385541268065433
800.000000000113,0.032687936938919,1.00000000000068,0.047905786508183
900.000000000136,0.0396789676511416,0.999999999999667,0.0582361143611688
1000.00000000016,0.0478833404926475,0.999999999998181,0.0693749601229656
1100.0000000001,0.0563129239183596,0.999999999998407,0.0814338666792331
1200,0.064782191149249,1.00000000000024,0.0944030872816778
1299.99999999991,0.073641513099599,1.0000000000005,0.108723764130942
1399.99999999982,0.0825644172657595,0.999999999998733,0.124249430411779
1499.99999999973,0.0924593741179745,0.999999999998523,0.141406332985494
1599.99999999964,0.101486440879886,1.00000000000059,0.160430025864796
1699.99999999955,0.111437285812556,1.00000000000505,0.182049786317343
1799.99999999946,0.120196940461264,1.00000000001099,0.206564852705497
1899.99999999937,0.129911110454331,1.00000000002623,0.23374636969147
1999.99999999928,0.144747002974781,1.00000000005488,0.262927387125412
2099.99999999919,0.173199342541273,1.00000000010415,0.292661141446542
2199.99999999909,0.220534578468801,1.00000000015216,0.322062061490601
2299.999999999,0.309905780412949,1.000000000211,0.349529917917521
2399.99999999891,0.488030102501697,1.00000000028367,0.374753826156571
2499.99999999882,0.80064956919549,1.00000000034459,0.397528105628285
2599.99999999873,1.28463807853127,1.00000000037931,0.418397464882444
2699.99999999864,1.99831634865964,1.00000000044247,0.436827098555664
2799.99999999855,3.01177852702499,1.00000000049054,0.453134809938939
2899.99999999846,4.37393868506454,1.00000000055828,0.467359777735708
2999.99999999837,6.10895231545813,1.00000000057562,0.480401272993381
3099.99999999828,8.26025107386954,1.00000000061115,0.491770092940597
3199.99999999819,10.8669947546243,1.00000000064567,0.501525863382305
3299.99999999809,13.9317348692393,1.00000000067685,0.509821700741252
3399.999999998,17.4302315634234,1.00000000065231,0.517427678443821
3499.99999999791,21.3620843742839,1.00000000067517,0.523867914726191
3599.99999999782,25.7338014541837,1.00000000067181,0.529402792048697
3699.99999999773,30.5056315464758,1.00000000066138,0.533601961639725
3799.99999999764,35.6149778808216,1.00000000069432,0.536972619506959
3899.99999999755,41.0219119233452,1.00000000068653,0.540744971424531
3999.99999999746,46.7138751776402,1.00000000072782,0.543218702860848
4099.99999999738,52.6471231871236,1.00000000069591,0.544483588970421
4199.99999999775,58.7460306058565,1.00000000064249,0.545767009342732
4299.99999999811,64.9496963831064,1.00000000068817,0.547790322757937
4399.99999999848,71.2389710277431,1.0000000006731,0.547545001520136
4499.99999999884,77.5879644610488,1.00000000061745,0.547862948888334
4599.9999999992,83.9282511279328,1.00000000064775,0.547602672348787
4699.99999999957,90.202890400113,1.00000000067738,0.547183677031593
4799.99999999993,96.3851722850943,1.00000000061556,0.547019134136707
4900.00000000029,102.465183684516,1.00000000057879,0.545622724406196
5000.00000000066,108.404993977669,1.00000000059579,0.544654187049774
5100.00000000102,114.157681386588,1.00000000056774,0.54410322952108
5200.00000000139,119.696857285429,1.00000000060765,0.542360715612268
5300.00000000175,125.020470664265,1.00000000056082,0.540822241789607
5400.00000000211,130.121195426428,1.00000000051955,0.5400026842258
5500.00000000248,134.969070963469,1.00000000052252,0.537966911455347
5600.00000000284,139.5431982262,1.00000000054824,0.536545845629606
5700.00000000321,143.840261410264,1.00000000050211,0.535930732664544
5800.00000000357,147.866955658094,1.00000000050775,0.534573763485236
5900.00000000393,151.613362271839,1.0000000004887,0.531293388122733
6000.0000000043,155.064963357733,1.00000000048767,0.530303610224951
6100.00000000466,158.222152932561,1.00000000046971,0.531515047673909
6200.00000000502,161.095095793985,1.00000000046674,0.530020225615106
6300.00000000539,163.688161081926,1.00000000045333,0.524100096553118
6400.00000000575,165.994936938522,1.0000000004279,0.522541362033144
6500.00000000612,168.023569011862,1.00000000044436,0.528137469970264
6600.00000000648,169.793230915341,1.00000000041684,0.529779692423684
6700.00000000684,171.311921910405,1.00000000041625,0.51968783677249
6800.00000000721,172.566886651443,1.000000000378,0.509744603030823
6900.00000000757,173.560312355885,1.00000000037472,0.518638746208783
7000.00000000793,174.335658517011,1.00000000042074,0.534386879994443
7100.0000000083,174.93432498776,1.00000000041489,0.533396504704244
7200.00000000866,175.342745649109,1.00000000036127,0.510308057271018
7300.00000000903,175.516524244027,1.00000000030659,0.491937985110848
7400.00000000939,175.463130042498,1.00000000034824,0.509505721129793
7500.00000000975,175.26130320218,1.00000000041983,0.539753318198047
7600.00000001012,174.982721946229,1.00000000046224,0.547552936903345
7700.00000001048,174.619360021108,1.00000000040385,0.520932030029598
7800.00000001084,174.095242565356,1.00000000028263,0.477170894734677
7900.00000001121,173.365977812536,1.00000000025444,0.469891554872294
8000.00000001157,172.489251151548,1.0000000003503,0.512284479245423
8100.00000001194,171.571861328575,1.00000000047899,0.550431567324688
8200.0000000123,170.673573158742,1.00000000049915,0.557525285502726
8300.00000001266,169.769930265964,1.00000000042169,0.524343777382202
8400.00000001303,168.776411110839,1.00000000025179,0.462723138691237
8500.00000001339,167.629158547966,1.00000000018991,0.428518177782245
8600.00000001376,166.357634089698,1.00000000026703,0.467140658463223
8700.00000001412,165.051513330903,1.00000000045211,0.52748042339722
8800.00000001448,163.786321798316,1.0000000005787,0.558210227666984
8900.00000001485,162.588287062343,1.00000000053961,0.557193954052368
9000.00000001521,161.424459354107,1.00000000046478,0.519967431606432
9100.00000001557,160.221317231835,1.00000000029301,0.445898951066802
9200.00000001594,158.920310291455,1.00000000017283,0.388288051972988
9300.0000000163,157.525654981683,1.00000000020869,0.409932821961989
9400.00000001667,156.095511739003,1.00000000037568,0.483060113529356
9500.00000001703,154.692425371438,1.00000000052011,0.534987092168336
9600.00000001739,153.353247868896,1.00000000057429,0.554677541548119
9700.00000001776,152.085199925134,1.00000000053526,0.551833314484765
9800.00000001812,150.861770856109,1.00000000047318,0.519770032301742
9900.00000001848,149.636454797821,1.00000000033173,0.452245953001164
10000.0000000188,148.366746620456,1.0000000002111,0.378043383929802
10100.0000000192,147.04284322608,1.00000000016441,0.355237912975992
10200.0000000196,145.688094716534,1.00000000025787,0.401597405053389
10300.0000000199,144.335291756673,1.00000000042768,0.473839742726468
10400.0000000203,143.011293424153,1.00000000051449,0.521178346004983
10500.0000000207,141.732455203393,1.00000000055379,0.539528675654565
10600.000000021,140.505492175446,1.00000000055858,0.543985888753181
10700.0000000214,139.323503229103,1.00000000049153,0.532957861899857
10800.0000000218,138.166973976355,1.00000000044331,0.497576869292367
10900.0000000221,137.012390574043,1.00000000033873,0.441071384725736
11000.0000000225,135.844913571878,1.00000000024954,0.382908506005371
11100.0000000229,134.665720672524,1.00000000019751,0.355490377514084
11200.0000000232,133.486261333482,1.00000000023822,0.374518741933636
11300.0000000236,132.318536441752,1.00000000032331,0.423215553061951
11400.0000000239,131.168119779259,1.00000000041907,0.479079051824108
11500.0000000243,130.036516259424,1.0000000004749,0.510939606867898
11600.0000000247,128.926139021892,1.00000000052474,0.519687322431427
11700.000000025,127.840770423198,1.00000000056047,0.525706245589708
11800.0000000254,126.782044457529,1.00000000052636,0.533110649895092
11900.0000000258,125.746648965348,1.00000000046946,0.524888873803374
12000.0000000261,124.727198148018,1.00000000037136,0.490912221233118
12100.0000000265,123.717208547463,1.00000000029081,0.44411403763173
12200.0000000269,122.716844493741,1.00000000026436,0.403241261818543
12300.0000000272,121.73286863394,1.00000000026203,0.380652670238846
12400.0000000276,120.772765303165,1.00000000027353,0.38224234880168
12500.0000000279,119.839412811603,1.00000000030422,0.408232468567354
12600.0000000283,118.929456062197,1.00000000036307,0.43756936920702
12700.0000000287,118.036537016898,1.00000000039653,0.470437450880879
12800.000000029,117.155370140807,1.00000000042361,0.498020772383029
12900.0000000294,116.284202850402,1.00000000040249,0.503754383432534
13000.0000000298,115.422308027769,1.00000000042752,0.495935822074025
13100.0000000301,114.567499644952,1.00000000047476,0.501472734617359
13200.0000000305,113.7178151683,1.00000000052334,0.518935132383265
13300.0000000309,112.874497769395,1.00000000052763,0.53612108524888
13400.0000000312,112.040876319012,1.00000000049894,0.530088786907825
13500.0000000316,111.220388390425,1.00000000038534,0.49861621340174
13600.0000000319,110.418069377957,1.00000000029038,0.451585206583347
13700.0000000323,109.642281866596,1.00000000022655,0.411840685237552
13800.0000000327,108.90056938837,1.00000000024791,0.389089084578919
13900.000000033,108.194136792619,1.00000000030052,0.388835500639443
14000.0000000334,107.518473355403,1.00000000034607,0.401633954329692
14100.0000000338,106.867355180986,1.00000000036118,0.43042323979473
14200.0000000341,106.234049204798,1.00000000038486,0.456107954606295
14300.0000000345,105.611115716712,1.00000000041859,0.472920617503045
14400.0000000349,104.993618066079,1.00000000043989,0.487119178565683
14500.0000000352,104.380606626243,1.00000000041306,0.496125265374294
14600.0000000356,103.775452774916,1.00000000033995,0.496064472306767
14700.0000000359,103.181969451834,1.00000000033356,0.487425980956075
14800.0000000363,102.597893340439,1.00000000036197,0.481045708514873
14900.0000000367,102.013753368544,1.00000000045087,0.48786834612739
15000.000000037,101.420005107893,1.00000000049715,0.504304026760647
15100.0000000374,100.813319222152,1.00000000055322,0.52266407353695
15200.0000000378,100.198170663841,1.00000000053925,0.534853932669983
15300.0000000381,99.5824997135318,1.00000000046365,0.53045845837033
15400.0000000385,98.9747340150132,1.00000000041906,0.50854487859661
15500.0000000389,98.3837111071656,1.00000000033679,0.473803588077005
15600.0000000392,97.8203148146473,1.00000000025938,0.438736451793107
15700.0000000396,97.2954881996201,1.00000000021234,0.412670818365384
15800.0000000399,96.8154055875603,1.00000000022931,0.396085836005845
15900.0000000403,96.3777210046515,1.00000000029532,0.393703397217932
16000.0000000407,95.9720351364112,1.00000000034465,0.409571676990449
16100.000000041,95.5861465014733,1.00000000039451,0.43300896774679
16200.0000000414,95.2112570256546,1.00000000037893,0.452018828504875
16300.0000000418,94.8431247515489,1.00000000039299,0.467535564222743
16400.0000000418,94.4782620898443,1.00000000041694,0.479014270815432
16500.0000000404,94.1139330089836,1.00000000041683,0.486410881278095
16600.0000000389,93.74741609882,1.00000000042035,0.495189328590422
16700.0000000375,93.3772983921031,1.0000000004298,0.506109058365216
16800.000000036,93.0040982441942,1.00000000040446,0.513009473877812
16900.0000000346,92.6320794867271,1.00000000036381,0.516166060376118
17000.0000000331,92.2653614109563,1.00000000033351,0.514048095148374
17100.0000000317,91.9054459643157,1.00000000032246,0.507419152008236
17200.0000000302,91.5479890656216,1.0000000003661,0.501798786254207
17300.0000000287,91.1875741199377,1.00000000039044,0.494109829434223
17400.0000000273,90.8181199200515,1.0000000004348,0.492101594461763
17500.0000000258,90.4358593753163,1.00000000046104,0.500350748084997
17600.0000000244,90.0386335704226,1.00000000048954,0.51541806680531
17700.0000000229,89.627648104971,1.00000000053081,0.532770912601294
17800.0000000215,89.2087258492946,1.00000000051231,0.541175915817793
17900.00000002,88.7895693515101,1.00000000044019,0.53284672507716
18000.0000000186,88.380959005333,1.00000000037684,0.510271844937228
18100.0000000171,87.9940943740666,1.0000000002904,0.479951512701551
18200.0000000156,87.6399184413858,1.00000000023763,0.449760681488825
18300.0000000142,87.3254624740054,1.00000000025268,0.431455631743197
18400.0000000127,87.0524952992443,1.00000000027542,0.42378016446352
18500.0000000113,86.8193351335685,1.00000000029821,0.421189635461591
18600.0000000098,86.6216998440921,1.00000000030464,0.422175849296642
18700.0000000084,86.4515555897416,1.0000000003348,0.425843701833845
18800.0000000069,86.2973524945494,1.00000000039618,0.437627513615963
18900.0000000055,86.1478816323308,1.00000000042207,0.456030180145002
19000.000000004,85.9957804399165,1.0000000004589,0.476026033030374
19100.0000000026,85.8405195741529,1.00000000038969,0.486641411821225
19200.0000000011,85.6884862148684,1.00000000038385,0.488799002450958
19299.9999999996,85.5479372182572,1.00000000033834,0.48685993190234
19399.9999999982,85.421089366351,1.00000000033992,0.485525467229076
19499.9999999967,85.3038454672159,1.00000000035464,0.491051677945389
19599.9999999953,85.1866442568064,1.00000000039485,0.503761462106356
19699.9999999938,85.056056668217,1.0000000004334,0.516220471483479
19799.9999999924,84.9025430874149,1.00000000047379,0.525311645189113
19899.9999999909,84.7238545828194,1.00000000046346,0.531074163369394
19999.9999999895,84.5223112019757,1.00000000043268,0.534874016151117
20099.999999988,84.3045163795532,1.00000000040264,0.539014031519536
20199.9999999865,84.0799319503632,1.00000000038005,0.540055167582892
20299.9999999851,83.8554108127227,1.00000000034765,0.532063590132478
20399.9999999836,83.6360560897098,1.00000000032112,0.519839837143653
20499.9999999822,83.4245724102071,1.00000000032236,0.512283854306097
20599.9999999807,83.2200609363392,1.00000000034175,0.507882010421186
20699.9999999793,83.017878269422,1.0000000003729,0.504589279321639
20799.9999999778,82.8118876705038,1.00000000039432,0.502561003897874
20899.9999999764,82.5972159762259,1.00000000045811,0.506687862908244
20999.9999999749,82.3686963793171,1.00000000046015,0.514584870431214
21099.9999999734,82.124197728096,1.00000000052303,0.524143405176733
21199.999999972,81.8636900447248,1.00000000051626,0.534487539958055
21299.9999999705,81.5906123012534,1.00000000051393,0.541900660586876
21399.9999999691,81.3114932568483,1.00000000044952,0.544052925028244
21499.9999999676,81.0341876927338,1.00000000041862,0.537718099111775
21599.9999999662,80.7676229226849,1.00000000034708,0.522672120010332
21699.9999999647,80.5203200294925,1.00000000030808,0.497504556773357
21799.9999999633,80.3007140958689,1.00000000027742,0.475966229009705
21899.9999999618,80.1152954308287,1.00000000027127,0.458754532667273
21999.9999999603,79.9679739385777,1.0000000002727,0.444961418657051
22099.9999999589,79.8605115309216,1.00000000027286,0.439769032333327
22199.9999999574,79.790887253158,1.00000000029835,0.436517724031741
22299.999999956,79.7533245626361,1.0000000003008,0.433618263187655
22399.9999999545,79.7387626345589,1.00000000036259,0.436000611688596
22499.9999999531,79.7375404578379,1.00000000040252,0.440799297380063
22599.9999999516,79.7429661560129,1.00000000040265,0.447343362685568
22699.9999999502,79.7530021851234,1.00000000039366,0.451459348189233
22799.9999999487,79.7678567008185,1.00000000036622,0.455068077879391
22899.9999999473,79.7874478472737,1.00000000038324,0.465827349740008
22999.9999999458,79.809452630496,1.00000000038981,0.479797521196998
23099.9999999443,79.8307177596152,1.00000000039205,0.490844756065023
23199.9999999429,79.8479230060886,1.00000000039238,0.499336290484732
23299.9999999414,79.8580240525446,1.0000000004257,0.510874279414848
23399.99999994,79.8598939362952,1.00000000043319,0.523291162336495
23499.9999999385,79.8549499801005,1.0000000003945,0.531851491039661
23599.9999999371,79.8469820743202,1.00000000039686,0.533489140298968
23699.9999999356,79.8394166421846,1.00000000038167,0.532888538515185
23799.9999999342,79.8331286473883,1.0000000003592,0.531706179316239
23899.9999999327,79.8258010750909,1.00000000038375,0.534436755406708
23999.9999999312,79.815000045746,1.00000000038696,0.540255565891429
24099.9999999298,79.7969474443123,1.00000000039433,0.540963145897901
24199.9999999283,79.7681619717928,1.00000000038944,0.539906648435759
24299.9999999269,79.7262622594448,1.00000000040265,0.537120677441891
24399.9999999254,79.6693601870073,1.00000000041039,0.534911357416694
24499.999999924,79.5959884740626,1.00000000042725,0.533005408606525
24599.9999999225,79.5056465528558,1.00000000045376,0.528351909746736
24699.9999999211,79.398709028961,1.00000000043849,0.526723402103162
24799.9999999196,79.2775070551374,1.00000000043208,0.533829748246195
24899.9999999181,79.1458711365916,1.00000000041882,0.540778211036361
24999.9999999167,79.0078587492507,1.00000000039019,0.543852452211424
25099.9999999152,78.8668535009399,1.00000000038477,0.544977500631631
25199.9999999138,78.7251029790089,1.00000000038084,0.545384469183644
25299.9999999123,78.584372991185,1.00000000035743,0.543859516544087
25399.9999999109,78.4466380135653,1.00000000032678,0.542047095833489
25499.9999999094,78.3132665043892,1.00000000031398,0.54155866466311
25599.999999908,78.1838481246339,1.00000000034248,0.543111496260387
25699.9999999065,78.0565213313287,1.00000000035868,0.541893511054334
25799.9999999051,77.9289196804093,1.00000000038232,0.539804076160244
25899.9999999036,77.7991882651299,1.00000000037692,0.539791224369743
25999.9999999021,77.6653055445874,1.00000000039155,0.539849283734291
26099.9999999007,77.5251518909264,1.00000000043608,0.538471021927763
26199.9999998992,77.3768200985078,1.00000000044973,0.535114973353846
26299.9999998978,77.2186475232256,1.00000000047602,0.530928964185023
26399.9999998963,77.0499313445236,1.00000000049389,0.530867138931324
26499.9999998949,76.8704492369714,1.0000000005223,0.535011418632076
26599.9999998934,76.6811707313226,1.00000000049988,0.538959972829199
26699.999999892,76.4849248268313,1.00000000044444,0.542237243562991
26799.9999998905,76.2863657704994,1.00000000043074,0.543607442865678
26899.999999889,76.0915830367977,1.00000000040096,0.541488279462514
26999.9999998876,75.9068998997371,1.00000000035808,0.531206155521775
27099.9999998861,75.7383889256471,1.00000000032198,0.515717427856537
27199.9999998847,75.5914387943511,1.00000000029494,0.501196881166637
27299.9999998832,75.4710127546505,1.00000000026911,0.488674771469525
27399.9999998818,75.3813065461384,1.00000000026696,0.477034721939931
27499.9999998803,75.3248971055496,1.00000000027781,0.468254425646145
27599.9999998789,75.3022307885647,1.00000000027676,0.458874484386731
27699.9999998774,75.3119279896329,1.00000000029664,0.452152745706113
27799.9999998759,75.3505768908063,1.0000000003171,0.450952125030997
27899.9999998745,75.4122689725828,1.00000000034433,0.452763094255258
27999.999999873,75.4904914521621,1.00000000039226,0.459000500584416
28099.9999998716,75.5797267501612,1.00000000036024,0.464190020735491
28199.9999998701,75.676774098383,1.00000000037839,0.466136472556673
28299.9999998687,75.7815463541399,1.00000000038054,0.464482026681371
28399.9999998672,75.8921300297216,1.00000000039259,0.463807907693134
28499.9999998658,76.0049610824989,1.00000000039771,0.469271545610779
28599.9999998643,76.1179561615375,1.00000000039693,0.477418344384379
28699.9999998629,76.231366634552,1.00000000038492,0.486075093744734
28799.9999998614,76.3465712301756,1.00000000039174,0.495535907883264
28899.9999998599,76.4634823051884,1.00000000038948,0.503177825041498
28999.9999998585,76.5801916279676,1.00000000038703,0.508960256186259
