Time,AGPnorm,Energy,Entropy
0,0,1,-7.45254294494666e-17
99.9999999999986,0.000863526514603725,0.999999999997662,0.00310082722978931
199.999999999993,0.00609454794161448,0.999999999995913,0.0090581811304132
300,0.0125692820436705,0.99999999999782,0.0167091147505671
400.000000000022,0.0188498613873648,1.00000000000017,0.0265035601219211
500.000000000045,0.0266871140135966,0.99999999999864,0.0384246478877877
600.000000000068,0.0372038861570573,0.99999999999619,0.0518888295524096
700.000000000091,0.0485518662225572,0.99999999999684,0.0666957607108327
800.000000000113,0.0593011530689664,0.999999999999588,0.0832902682444922
900.000000000136,0.071484930071161,0.999999999999688,0.102327291251068
1000.00000000016,0.0844212337315285,0.999999999996842,0.123614365507287
1100.0000000001,0.0982624993292794,0.999999999997138,0.147846593533005
1200,0.110716994958113,1.00000000000286,0.176270110800549
1299.99999999991,0.12384779116282,1.00000000002268,0.210687050426671
1399.99999999982,0.134797509411077,1.00000000007081,0.250852788216241
1499.99999999973,0.154244657395587,1.00000000018358,0.293025383999088
1599.99999999964,0.207531655397363,1.00000000032323,0.333968466099893
1699.99999999955,0.31470450395101,1.00000000047835,0.371488905790351
1799.99999999946,0.522587128227727,1.00000000068839,0.404986035436817
1899.99999999937,0.929331748218789,1.00000000076806,0.433951951464503
1999.99999999928,1.62095364976263,1.00000000092214,0.458610770482595
2099.99999999919,2.63055194559728,1.00000000107293,0.480086203293936
2199.99999999909,4.00925867569369,1.00000000108597,0.499184562032525
2299.999999999,5.83897038509963,1.00000000118955,0.514423857063578
2399.99999999891,8.13248071705133,1.00000000126433,0.526782277798874
2499.99999999882,10.8399850586326,1.00000000131131,0.537547519567963
2599.99999999873,13.9323741950153,1.00000000135104,0.546792591218492
2699.99999999864,17.4192186680773,1.00000000126926,0.553930277265571
2799.99999999855,21.2544945346929,1.00000000127015,0.559003409210464
2899.99999999846,25.3302406017472,1.00000000135265,0.563072484385185
2999.99999999837,29.5756636857866,1.00000000125349,0.566806244603646
3099.99999999828,33.9655481946794,1.00000000125195,0.568792282604411
3199.99999999819,38.4536857686034,1.00000000121917,0.569436417829151
3299.99999999809,42.9465135827295,1.00000000122116,0.569744383446835
3399.999999998,47.369524998841,1.00000000117074,0.570575593165416
3499.99999999791,51.6951408522114,1.00000000116075,0.570791764156757
3599.99999999782,55.8996532110503,1.00000000115598,0.569577553585613
3699.99999999773,59.9356623222654,1.0000000010623,0.567176806134665
3799.99999999764,63.7505820526816,1.00000000102181,0.565792145547792
3899.99999999755,67.3174424421718,1.00000000100473,0.566953328879401
3999.99999999746,70.6326356167083,1.00000000096519,0.563625033124263
4099.99999999738,73.6961168599365,1.00000000093739,0.559840746176971
4199.99999999775,76.4765355758256,1.00000000097171,0.561203774814145
4299.99999999811,78.9579513460262,1.00000000090277,0.55744996087339
4399.99999999848,81.1569579296123,1.00000000087781,0.556283208206139
4499.99999999884,83.0810981510395,1.00000000082016,0.555730884669428
4599.9999999992,84.7328488678355,1.00000000081597,0.54980841349812
4699.99999999957,86.1110610221265,1.00000000082104,0.555350094601077
4799.99999999993,87.2308179631503,1.00000000076289,0.550142897430314
4900.00000000029,88.0966445145007,1.00000000076459,0.54569822090493
5000.00000000066,88.7427144258882,1.00000000082925,0.559433971705683
5100.00000000102,89.1929498665698,1.00000000077007,0.545021663164883
5200.00000000139,89.4118427888641,1.00000000067313,0.535798236284585
5300.00000000175,89.4563127769277,1.00000000079569,0.564483531683879
5400.00000000211,89.3802424486776,1.00000000079666,0.547456888137583
5500.00000000248,89.1259044896489,1.00000000056999,0.515054957422326
5600.00000000284,88.7187625891099,1.00000000076919,0.555486308346733
5700.00000000321,88.2614861786376,1.00000000088263,0.567196771382025
5800.00000000357,87.7218577160739,1.00000000058888,0.513768826484633
5900.00000000393,87.0311959615373,1.00000000053847,0.502850882516782
6000.0000000043,86.2796610643774,1.00000000093694,0.56791538521464
6100.00000000466,85.5491915117936,1.00000000090208,0.563925510384239
6200.00000000502,84.7745332242611,1.00000000057182,0.493803343711868
6300.00000000539,83.8848992035779,1.00000000049635,0.475311902026586
6400.00000000575,82.9566956389611,1.00000000090808,0.554111457779063
6500.00000000612,82.0757406867398,1.00000000106228,0.574937713931819
6600.00000000648,81.2189090155163,1.00000000070573,0.51493889582902
6700.00000000684,80.3019065212026,1.00000000041613,0.443652338847084
6800.00000000721,79.3229316327197,1.00000000060938,0.479084912449199
6900.00000000757,78.3552192392233,1.00000000105887,0.557474247513805
7000.00000000793,77.4450979543258,1.00000000107961,0.56746204942235
7100.0000000083,76.5667692930696,1.00000000079982,0.510446504990313
7200.00000000866,75.6642131199309,1.00000000049374,0.435387230560341
7300.00000000903,74.7259960366231,1.00000000050023,0.438478520043661
7400.00000000939,73.7857311313406,1.00000000084757,0.512693815851133
7500.00000000975,72.8795844337298,1.00000000105732,0.558191706227977
7600.00000001012,72.0167187031894,1.00000000095611,0.54677884089549
7700.00000001048,71.1753880486023,1.00000000077635,0.494544075878203
7800.00000001084,70.3304522685877,1.00000000054155,0.439222483394686
7900.00000001121,69.4790561285566,1.00000000052407,0.435764398626881
8000.00000001157,68.6314950065345,1.00000000070876,0.476948110012919
8100.00000001194,67.8011915388202,1.00000000091699,0.526893115915907
8200.0000000123,66.997059863697,1.0000000009978,0.542700989151368
8300.00000001266,66.2187227346658,1.00000000089933,0.531211889968788
8400.00000001303,65.4567851258656,1.00000000068564,0.48749731741444
8500.00000001339,64.7054133733186,1.00000000055248,0.454867864785805
8600.00000001376,63.9676693996096,1.00000000059392,0.44777023955626
8700.00000001412,63.2455710011387,1.00000000069174,0.471851037368168
8800.00000001448,62.5392449382657,1.00000000072796,0.488291209838324
8900.00000001485,61.8480507484023,1.00000000085365,0.512257324010358
9000.00000001521,61.1706116442545,1.00000000094584,0.529167941937898
9100.00000001557,60.5065635010286,1.00000000094048,0.533907585763933
9200.00000001594,59.857006233289,1.00000000074031,0.51189965993377
9300.0000000163,59.2261712909638,1.00000000057445,0.468985733738111
9400.00000001667,58.6185319704301,1.00000000061974,0.460756190684057
9500.00000001703,58.0327646741228,1.00000000067667,0.469024840658627
9600.00000001739,57.462654724093,1.00000000077084,0.493287242355036
9700.00000001776,56.9081034765767,1.00000000070851,0.493271939582693
9800.00000001812,56.3713397585448,1.00000000062527,0.487634877276652
9900.00000001848,55.8498032921752,1.00000000075252,0.505761860638608
10000.0000000188,55.3353945054953,1.00000000094975,0.526760421434869
10100.0000000192,54.8203957704175,1.00000000093667,0.534675099240173
10200.0000000196,54.3103070268897,1.00000000079721,0.521064429506674
10300.0000000199,53.8179682598497,1.00000000059478,0.486382634896146
10400.0000000203,53.3545711370159,1.00000000053051,0.461240209132665
10500.0000000207,52.917400310517,1.00000000063661,0.46540639112339
10600.000000021,52.4956957003775,1.00000000083416,0.483570455556368
10700.0000000214,52.0801798622235,1.00000000089824,0.497972704923318
10800.0000000218,51.6719277571991,1.00000000074047,0.506161934265644
10900.0000000221,51.2787801029524,1.00000000064753,0.49030356803048
11000.0000000225,50.9052288327096,1.00000000063446,0.489097582188082
11100.0000000229,50.5431696629254,1.00000000075107,0.509290204364733
11200.0000000232,50.1816417898903,1.00000000089195,0.526067961838085
11300.0000000236,49.8143134371721,1.0000000009909,0.538426857991662
11400.0000000239,49.4419167187057,1.00000000089383,0.53581585177614
11500.0000000243,49.0753888326286,1.00000000076739,0.518472089905591
11600.0000000247,48.7279271078159,1.00000000066388,0.493282677920329
11700.000000025,48.4077445873274,1.00000000063478,0.477828814241395
11800.0000000254,48.1131335356891,1.00000000062705,0.47814693439997
11900.0000000258,47.8369384825537,1.00000000071962,0.484400630104761
12000.0000000261,47.57017737553,1.00000000082573,0.499826740234614
12100.0000000265,47.3070368305808,1.00000000082692,0.498010338561665
12200.0000000269,47.0483730114618,1.00000000076705,0.504851168428107
12300.0000000272,46.7958315786705,1.00000000077407,0.519996553945471
12400.0000000276,46.5493253091114,1.00000000069661,0.52165490880705
12500.0000000279,46.309129167793,1.00000000073302,0.530067758623078
12600.0000000283,46.0726779917014,1.00000000069847,0.534418305906458
12700.0000000287,45.8405043225622,1.00000000078394,0.531010015605079
12800.000000029,45.610539502299,1.0000000007877,0.52613149475064
12900.0000000294,45.3792520201808,1.00000000088907,0.53312153973809
13000.0000000298,45.1402361939727,1.00000000089709,0.542863036652431
13100.0000000301,44.8984367578446,1.00000000083218,0.541540199942694
13200.0000000305,44.6683772622267,1.00000000069308,0.521737540623186
13300.0000000309,44.4631200642486,1.00000000060032,0.499588612124908
13400.0000000312,44.2832355401599,1.00000000064005,0.485730524040074
13500.0000000316,44.1203047588949,1.00000000071325,0.498556956814664
13600.0000000319,43.9642482131956,1.00000000079215,0.507734905831402
13700.0000000323,43.8150226419403,1.00000000072349,0.499092584545524
13800.0000000327,43.6748519786011,1.00000000076064,0.502296866207598
13900.000000033,43.5449931007028,1.00000000070002,0.509763405305219
14000.0000000334,43.4266403704628,1.00000000068439,0.505982916814927
14100.0000000338,43.3156753945203,1.00000000075436,0.515061746146191
14200.0000000341,43.2005202499742,1.00000000081877,0.532612071010714
14300.0000000345,43.072893193142,1.00000000092909,0.549683454489063
14400.0000000349,42.9324567832778,1.00000000084455,0.555341856937976
14500.0000000352,42.783304288844,1.00000000082432,0.558638342281557
14600.0000000356,42.6330495518324,1.00000000071513,0.556315700925912
14700.0000000359,42.4885216878098,1.00000000066162,0.544818312050168
14800.0000000363,42.3521004072009,1.00000000068285,0.538399057871155
14900.0000000367,42.219707648732,1.0000000007854,0.534355425078141
15000.000000037,42.085719090629,1.00000000085601,0.533723301305022
15100.0000000374,41.9461313426517,1.00000000089858,0.543411834625123
15200.0000000378,41.8004420141178,1.00000000090025,0.549542949509539
15300.0000000381,41.6539398153773,1.00000000077213,0.546037412775391
15400.0000000385,41.5173552162725,1.00000000070136,0.537110370383799
15500.0000000389,41.3996535404684,1.00000000064814,0.521924736784567
15600.0000000392,41.3035009520461,1.00000000067904,0.514020884428651
15700.0000000396,41.2257268308647,1.00000000072616,0.508348114612074
15800.0000000399,41.1611647292924,1.00000000072685,0.509510629938766
15900.0000000403,41.1014106993134,1.00000000080241,0.509812689559321
16000.0000000407,41.0404524945826,1.00000000077684,0.509470113457648
16100.000000041,40.9847351812845,1.00000000070708,0.505807827392433
16200.0000000414,40.9392990735928,1.00000000071292,0.510207772379194
16300.0000000418,40.9016411945267,1.0000000007403,0.521178568167002
16400.0000000418,40.8654664049191,1.00000000077599,0.537118602809845
16500.0000000404,40.8276447079017,1.00000000076325,0.544785501698432
16600.0000000389,40.7903094009108,1.00000000074092,0.544887251082867
16700.0000000375,40.7535664419752,1.00000000072624,0.548453918884984
16800.000000036,40.7181336301198,1.00000000080447,0.5476577287612
16900.0000000346,40.6793042301022,1.00000000074248,0.547316418131411
17000.0000000331,40.6319158166158,1.00000000081744,0.556141213774082
17100.0000000317,40.5724404254777,1.00000000087102,0.555092433968789
17200.0000000302,40.4989555468851,1.00000000085114,0.549225776188013
17300.0000000287,40.4114770366381,1.00000000083269,0.554180255685592
17400.0000000273,40.3143169455118,1.00000000081214,0.568264591361612
17500.0000000258,40.2141153673203,1.00000000081221,0.565941504238481
17600.0000000244,40.1166604773407,1.0000000006706,0.552889786301658
17700.0000000229,40.0254303365515,1.00000000066009,0.543659827662797
17800.0000000215,39.9418213188667,1.00000000074676,0.537448623927126
17900.00000002,39.8622826740165,1.00000000079906,0.532208805189819
18000.0000000186,39.7833967957139,1.00000000087858,0.535122338948032
18100.0000000171,39.7031456105002,1.00000000084168,0.543998155278351
18200.0000000156,39.6175778309763,1.00000000086599,0.553587756878604
18300.0000000142,39.5276313471142,1.00000000087105,0.559794355684318
18400.0000000127,39.4409550501862,1.00000000075809,0.558781472687667
18500.0000000113,39.3653552694658,1.00000000067338,0.547534186659611
18600.0000000098,39.3064552036309,1.00000000067954,0.541462876096259
18700.0000000084,39.2650386602478,1.00000000065239,0.529598941230805
18800.0000000069,39.239813964988,1.00000000076372,0.524481323095674
18900.0000000055,39.2260396444715,1.00000000076772,0.515947168845363
19000.000000004,39.2157786798424,1.00000000075044,0.523266309769658
19100.0000000026,39.2090951575368,1.0000000007811,0.524523717798556
19200.0000000011,39.2092821281896,1.00000000072142,0.518102775974861
19299.9999999996,39.2156984012939,1.00000000073502,0.511084297483159
19399.9999999982,39.2270674020848,1.00000000077568,0.513532881212996
19499.9999999967,39.2420913151988,1.00000000073995,0.512906263314987
19599.9999999953,39.2617810413216,1.00000000077014,0.511971302698819
19699.9999999938,39.2857645227529,1.00000000068883,0.516268444329109
19799.9999999924,39.3093181827134,1.00000000080325,0.535331364685474
19899.9999999909,39.3279524849998,1.00000000079326,0.552060049118174
19999.9999999895,39.3388210161732,1.0000000008323,0.556067394432517
20099.999999988,39.3431063943818,1.00000000079922,0.563137940272249
20199.9999999865,39.3457848390281,1.00000000081923,0.564911272819773
20299.9999999851,39.3499475507388,1.00000000070858,0.563308821412425
20399.9999999836,39.3541542649287,1.00000000075665,0.567643732365603
20499.9999999822,39.3535688555116,1.00000000083938,0.576987369615139
20599.9999999807,39.3471394992907,1.00000000080631,0.588641438975223
20699.9999999793,39.336281792033,1.00000000075482,0.592750404942273
20799.9999999778,39.3207942078823,1.00000000082733,0.595619821129141
20899.9999999764,39.2981629522078,1.00000000080742,0.592191617271406
20999.9999999749,39.2699874117813,1.00000000080716,0.589172057280894
21099.9999999734,39.2368371439589,1.00000000079543,0.586327936183809
21199.999999972,39.1967165611905,1.00000000079781,0.57860373551615
21299.9999999705,39.1477664895413,1.00000000080328,0.56856615077373
21399.9999999691,39.0886421531552,1.00000000082908,0.569016567603711
21499.9999999676,39.0196610421399,1.00000000088343,0.583899818930095
21599.9999999662,38.9418426910115,1.00000000083697,0.587467895718382
21699.9999999647,38.8588257395818,1.00000000081962,0.589299509379072
21799.9999999633,38.7751815552994,1.00000000076704,0.587256579363276
21899.9999999618,38.6943699496571,1.000000000733,0.585001846868447
21999.9999999603,38.6177638660781,1.00000000069034,0.583088657102423
22099.9999999589,38.5465126430228,1.00000000070736,0.585066882038791
22199.9999999574,38.4786693388195,1.00000000075426,0.581950591570749
22299.999999956,38.4144047764456,1.00000000080074,0.576946693903713
22399.9999999545,38.3529745148905,1.00000000080983,0.577834271705902
22499.9999999531,38.2929292566958,1.00000000081851,0.57972502338306
22599.9999999516,38.2333396177324,1.00000000087024,0.577248496424976
22699.9999999502,38.1725922054032,1.00000000084206,0.573580218474165
22799.9999999487,38.1109675583282,1.0000000008864,0.571010703300744
22899.9999999473,38.0481065564263,1.0000000008186,0.568724806492151
22999.9999999458,37.9879544518011,1.00000000073509,0.569934524474159
23099.9999999443,37.9358458556484,1.00000000074048,0.5675805337842
23199.9999999429,37.8964866077524,1.00000000070517,0.5659022346414
23299.9999999414,37.8721270543715,1.00000000072176,0.556121609904721
23399.99999994,37.8616089880765,1.00000000072554,0.552435855897583
23499.9999999385,37.862792416292,1.00000000071058,0.550997993941651
23599.9999999371,37.8729080891273,1.00000000079307,0.545840294598929
23699.9999999356,37.8876275622908,1.00000000082186,0.540726007008879
23799.9999999342,37.906320015526,1.00000000073385,0.537726819164794
23899.9999999327,37.9301508598451,1.00000000079996,0.53443810699609
23999.9999999312,37.9605972641615,1.00000000078318,0.535934018568
24099.9999999298,37.9953202232751,1.00000000076381,0.535573004250904
24199.9999999283,38.0332290883511,1.00000000075832,0.536101538066764
24299.9999999269,38.0760412657692,1.00000000073484,0.533932428558828
24399.9999999254,38.1235161219005,1.0000000007442,0.531872812421579
24499.999999924,38.1744875658689,1.00000000079254,0.535999145460388
24599.9999999225,38.2258935849132,1.00000000080702,0.542454226898393
24699.9999999211,38.2744461010634,1.0000000008085,0.556419874069989
24799.9999999196,38.3188493136755,1.00000000083555,0.567796089559076
24899.9999999181,38.3584367722951,1.00000000078096,0.572375730023668
24999.9999999167,38.3939624475883,1.00000000082125,0.580430318229533
25099.9999999152,38.4243416515455,1.00000000081861,0.584403322843747
25199.9999999138,38.4500761204044,1.00000000082206,0.590295000315733
25299.9999999123,38.4713349568914,1.00000000075592,0.589559982013242
25399.9999999109,38.4904632393712,1.00000000082361,0.591454278382666
25499.9999999094,38.5087158953065,1.00000000075909,0.5929043401259
25599.999999908,38.5272190255266,1.00000000082043,0.597897367547401
25699.9999999065,38.5446937967581,1.00000000082445,0.601212241655368
25799.9999999051,38.5600048053187,1.00000000079169,0.595349338767907
25899.9999999036,38.5726236833168,1.00000000079549,0.59531104380989
25999.9999999021,38.5805775949971,1.00000000089911,0.592920344171468
26099.9999999007,38.5823199357958,1.00000000081247,0.595492307025872
26199.9999998992,38.5784388313123,1.0000000008342,0.607585444007256
26299.9999998978,38.5710185439009,1.00000000083542,0.604963617470705
26399.9999998963,38.5623708730579,1.00000000077601,0.60645017726582
26499.9999998949,38.5527900023133,1.00000000078569,0.60622577677467
26599.9999998934,38.5407911757215,1.00000000082286,0.608685432828857
26699.999999892,38.5262207299363,1.00000000080166,0.606632283866035
26799.9999998905,38.5102542462199,1.00000000078622,0.597859985065858
26899.999999889,38.4913350748362,1.00000000083104,0.594748933507817
26999.9999998876,38.4690177088582,1.00000000082292,0.593084798458941
27099.9999998861,38.4435911813287,1.00000000080911,0.592378259636409
27199.9999998847,38.4131344072588,1.00000000082832,0.599938874722317
27299.9999998832,38.3775937101933,1.0000000008538,0.601046639473903
27399.9999998818,38.3392019786919,1.00000000079406,0.601714640850443
27499.9999998803,38.3005250992185,1.00000000078755,0.603709938803279
27599.9999998789,38.2624241381621,1.00000000076889,0.604644251791002
27699.9999998774,38.2242234953129,1.00000000077125,0.606739498805329
27799.9999998759,38.1833501686223,1.00000000080849,0.614231520658465
27899.9999998745,38.1388441896583,1.00000000081473,0.611935298318136
27999.999999873,38.0921519259031,1.00000000075717,0.604257216651092
28099.9999998716,38.0440502016679,1.00000000075532,0.602388043455226
28199.9999998701,37.993768710842,1.0000000008148,0.603071519501164
28299.9999998687,37.9404574424042,1.00000000086647,0.606056550501902
28399.9999998672,37.8841645726507,1.00000000081545,0.608875628889957
28499.9999998658,37.8243388359639,1.00000000088264,0.609672932817487
28599.9999998643,37.7606223972076,1.000000000859,0.609825821173867
28699.9999998629,37.6917866683812,1.00000000089467,0.612363190323282
28799.9999998614,37.6188200724521,1.00000000084146,0.616471938052001
28899.9999998599,37.5427887000814,1.00000000079271,0.622843425726479
28999.9999998585,37.4646568868013,1.00000000082935,0.625709606392108
