Time,AGPnorm,Energy,Entropy
0,0,1,-7.05897911733511e-17
99.9999999999986,0.00227592826222908,0.999999999998068,0.00679226422179956
199.999999999993,0.0157714570924439,0.999999999996652,0.0193187717209218
300,0.0306514326318858,0.999999999998622,0.0355313860010927
400.000000000022,0.0452892776022656,1.00000000000036,0.05656674346018
500.000000000045,0.0625797558250727,0.999999999998412,0.0823897698295531
600.000000000068,0.0854363710957315,0.999999999996902,0.113207118867063
700.000000000091,0.105025299761489,0.999999999999017,0.150386071031981
800.000000000113,0.12580249373165,1.00000000003001,0.199636461449232
900.000000000136,0.142109302871304,1.0000000002419,0.263623312822848
1000.00000000016,0.164714952958419,1.00000000070859,0.330917417956028
1100.0000000001,0.269905287306732,1.00000000139082,0.390320467038936
1200,0.534748905532109,1.0000000018705,0.440482931805635
1299.99999999991,1.03067844982236,1.00000000240522,0.482245857358235
1399.99999999982,1.89759976782685,1.00000000262515,0.515221923326225
1499.99999999973,3.20892172625335,1.00000000286194,0.540035242909693
1599.99999999964,4.91322855614819,1.00000000312667,0.559945141799063
1699.99999999955,6.96982890251981,1.00000000307226,0.575623243148034
1799.99999999946,9.36179249388202,1.0000000031465,0.585812404451594
1899.99999999937,11.9912704546041,1.00000000301029,0.592293591432502
1999.99999999928,14.7130303060225,1.00000000298662,0.59719820905917
2099.99999999919,17.4418107229522,1.00000000289525,0.600415352956572
2199.99999999909,20.1370437689617,1.0000000026298,0.600749984499042
2299.999999999,22.7291925157391,1.0000000026556,0.599592787909875
2399.99999999891,25.1302564887524,1.0000000025763,0.597245214976942
2499.99999999882,27.2910552501657,1.00000000259736,0.597014764703323
2599.99999999873,29.2042439631137,1.00000000233696,0.59506133740968
2699.99999999864,30.8692013565341,1.00000000214123,0.591499195439364
2799.99999999855,32.2687711854892,1.0000000020671,0.588160139053538
2899.99999999846,33.3930246983374,1.00000000203349,0.586779652078745
2999.99999999837,34.2521664051852,1.00000000186003,0.584598420078982
3099.99999999828,34.8725066185069,1.00000000176051,0.580986557891101
3199.99999999819,35.2764506885752,1.00000000183867,0.584782555287091
3299.99999999809,35.4734530823444,1.00000000177648,0.582959791916272
3399.999999998,35.4982472965809,1.00000000157821,0.570773254892559
3499.99999999791,35.3724740693247,1.00000000191278,0.586132027373912
3599.99999999782,35.1181681953362,1.00000000156908,0.561923355817264
3699.99999999773,34.7897279494262,1.00000000173752,0.570472169968162
3799.99999999764,34.3684761974368,1.00000000171177,0.5626706453008
3899.99999999755,33.9088827507414,1.00000000184262,0.561355913972209
3999.99999999746,33.3879153599503,1.00000000171108,0.550655227387364
4099.99999999738,32.8569534210766,1.00000000208401,0.558536663670339
4199.99999999775,32.2990463556461,1.00000000166282,0.531207698993621
4299.99999999811,31.730304094492,1.00000000216501,0.569005914504533
4399.99999999848,31.1658108742791,1.0000000016603,0.534509352960917
4499.99999999884,30.5854852699533,1.00000000183891,0.535456372412647
4599.9999999992,30.0238558806865,1.00000000200074,0.538353860185213
4699.99999999957,29.4677985830316,1.00000000170262,0.529464398649344
4799.99999999993,28.9114338360384,1.00000000186066,0.531331543956515
4900.00000000029,28.3733228289731,1.00000000207863,0.529369388196443
5000.00000000066,27.8464025152038,1.00000000181001,0.522076303928322
5100.00000000102,27.3275323078979,1.00000000181668,0.527156108404514
5200.00000000139,26.8240223408448,1.00000000206313,0.52619121675155
5300.00000000175,26.3365151763249,1.00000000169341,0.507884594445286
5400.00000000211,25.8633134018422,1.00000000186991,0.536241300008627
5500.00000000248,25.4029287566145,1.0000000018169,0.527788429895124
5600.00000000284,24.9593787769375,1.00000000186055,0.515957184249295
5700.00000000321,24.5309203999501,1.0000000017743,0.511151739577866
5800.00000000357,24.1205418505686,1.00000000182884,0.536430960055369
5900.00000000393,23.7226459631913,1.00000000184453,0.546810543352945
6000.0000000043,23.3423492479059,1.00000000163163,0.512850546953632
6100.00000000466,22.9776442588056,1.00000000191029,0.509393924878781
6200.00000000502,22.6280005733486,1.00000000176104,0.515505391962796
6300.00000000539,22.2943107845485,1.00000000193916,0.540233241783841
6400.00000000575,21.9693560647347,1.00000000196966,0.548003144905713
6500.00000000612,21.6613219349289,1.00000000175643,0.516207066006413
6600.00000000648,21.3700685986109,1.00000000184002,0.515110137022512
6700.00000000684,21.090207410452,1.00000000190217,0.506452132068679
6800.00000000721,20.8240039658215,1.00000000186648,0.521606134138105
6900.00000000757,20.5671995053554,1.00000000192814,0.543606800254835
7000.00000000793,20.31518101867,1.00000000195531,0.541591071711629
7100.0000000083,20.0752222920484,1.00000000169254,0.531181936418217
7200.00000000866,19.8504206999096,1.00000000178896,0.522501838132355
7300.00000000903,19.6390585071334,1.00000000196452,0.528161544982728
7400.00000000939,19.4403624229878,1.00000000182078,0.51619390379877
7500.00000000975,19.2499192211984,1.00000000195105,0.536515325811168
7600.00000001012,19.0642681480721,1.00000000181236,0.55934170168973
7700.00000001048,18.8856976057885,1.00000000202246,0.549761714339471
7800.00000001084,18.7113989367308,1.00000000189166,0.550880263634343
7900.00000001121,18.5440306377135,1.00000000194032,0.553537457316311
8000.00000001157,18.390273983142,1.00000000172192,0.528297315473227
8100.00000001194,18.2528816175502,1.00000000177971,0.536328892597726
8200.0000000123,18.1248819545011,1.00000000197678,0.537555467167439
8300.00000001266,18.0034177500469,1.00000000184264,0.544427988341978
8400.00000001303,17.8846921486958,1.0000000021096,0.560651483010484
8500.00000001339,17.7667704133846,1.00000000182431,0.56524866689927
8600.00000001376,17.6583235159031,1.0000000017916,0.555083998974433
8700.00000001412,17.5502709045532,1.00000000210028,0.562019655281041
8800.00000001448,17.4373326682234,1.00000000209584,0.574039205627231
8900.00000001485,17.3279565823306,1.00000000174154,0.559470403389501
9000.00000001521,17.2331350704762,1.00000000180276,0.543595243846187
9100.00000001557,17.1488297085657,1.00000000193068,0.555597552623804
9200.00000001594,17.0741010894288,1.00000000189507,0.551491759482108
9300.0000000163,17.0069808125158,1.00000000202021,0.555104456401879
9400.00000001667,16.9423252952919,1.00000000194669,0.568780278544727
9500.00000001703,16.8764615942019,1.00000000200985,0.572863668304013
9600.00000001739,16.8087220541297,1.00000000191059,0.573028866607621
9700.00000001776,16.7480210969948,1.00000000196636,0.568157738936322
9800.00000001812,16.6935697530151,1.00000000197324,0.572190060470811
9900.00000001848,16.6353425125769,1.00000000202478,0.5777948848868
10000.0000000188,16.5730065528556,1.00000000191783,0.566358495961127
10100.0000000192,16.5075844137463,1.00000000206169,0.586286422343114
10200.0000000196,16.4431083603183,1.00000000193279,0.584699774786164
10300.0000000199,16.3881465883957,1.00000000189241,0.564621067533129
10400.0000000203,16.3443221907148,1.00000000186162,0.5720300724538
10500.0000000207,16.3098009219657,1.00000000191846,0.563826701184204
10600.000000021,16.2850247230101,1.000000001947,0.555476661959282
10700.0000000214,16.2631531614804,1.00000000197157,0.572043590694927
10800.0000000218,16.2383208481567,1.0000000020917,0.592123366796932
10900.0000000221,16.2110840843796,1.00000000201072,0.58297622456389
11000.0000000225,16.189116675381,1.00000000191949,0.5810971754474
11100.0000000229,16.1644483903016,1.00000000209605,0.594437254806104
11200.0000000232,16.1389084997226,1.00000000197414,0.586675663978238
11300.0000000236,16.1171266367828,1.0000000019102,0.579961567881583
11400.0000000239,16.0983334435431,1.0000000019662,0.577286781920965
11500.0000000243,16.0785045470861,1.00000000197655,0.59668472702288
11600.0000000247,16.0525555057383,1.00000000218809,0.595017294389657
11700.000000025,16.0178609874814,1.00000000216125,0.594900294393222
11800.0000000254,15.9780765549736,1.00000000213858,0.597594153880285
11900.0000000258,15.9410196418828,1.00000000201927,0.595196876528621
12000.0000000261,15.9088494349992,1.00000000192469,0.590208094221315
12100.0000000265,15.8849606775326,1.00000000199219,0.594317102721687
12200.0000000269,15.8712070389796,1.00000000210066,0.584754398390931
12300.0000000272,15.868711063772,1.0000000019405,0.564998239219267
12400.0000000276,15.8732644247607,1.00000000208223,0.568245819701076
12500.0000000279,15.8762859456113,1.0000000021992,0.580200023375087
12600.0000000283,15.8756398367526,1.00000000215804,0.588514049365064
12700.0000000287,15.8771121995256,1.00000000193107,0.59725877672678
12800.000000029,15.8826349754656,1.00000000214884,0.603533222006537
12900.0000000294,15.8861901118468,1.00000000209442,0.602405557639597
13000.0000000298,15.8878346527856,1.00000000222661,0.597233613088265
13100.0000000301,15.8859646775675,1.00000000231441,0.598477518669224
13200.0000000305,15.8838677301073,1.00000000199077,0.598172106420294
13300.0000000309,15.8897548986667,1.00000000189339,0.602103768644141
13400.0000000312,15.898742109687,1.00000000217389,0.614285007592948
13500.0000000316,15.9041351980888,1.0000000023278,0.622549700958511
13600.0000000319,15.9017512267805,1.00000000233676,0.626630386815761
13700.0000000323,15.8942428213556,1.00000000213827,0.63149546345774
13800.0000000327,15.8850408690098,1.00000000211841,0.627889606597846
13900.000000033,15.8730674987256,1.00000000222554,0.630631222300783
14000.0000000334,15.8570276637226,1.00000000222484,0.633531069151977
14100.0000000338,15.8359957121063,1.00000000227162,0.632393153421794
14200.0000000341,15.8131993727245,1.0000000021335,0.628171232112454
14300.0000000345,15.7901149922752,1.00000000221941,0.629808393386982
14400.0000000349,15.7696706980053,1.00000000214643,0.626845673848606
14500.0000000352,15.754747749404,1.00000000207063,0.622395815188202
14600.0000000356,15.7486238034572,1.00000000213169,0.614721863637865
14700.0000000359,15.7527753569162,1.00000000205893,0.605562296488002
14800.0000000363,15.7668768285654,1.00000000218353,0.604999783571555
14900.0000000367,15.785231484797,1.00000000216487,0.600600976811053
15000.000000037,15.8057752777533,1.00000000234768,0.603868436657626
15100.0000000374,15.8227034047035,1.00000000226767,0.61519238997726
15200.0000000378,15.8398964479376,1.00000000218265,0.619336809830553
15300.0000000381,15.8597878360797,1.00000000216712,0.619693435518944
15400.0000000385,15.8789083718308,1.00000000224034,0.619950149044625
15500.0000000389,15.8997273887175,1.00000000217782,0.625843899100636
15600.0000000392,15.9168468239188,1.0000000023673,0.625136733678032
15700.0000000396,15.9298288494366,1.00000000243993,0.628999435614641
15800.0000000399,15.9414258026744,1.000000002172,0.631196635364366
15900.0000000403,15.9561656098325,1.00000000212884,0.62378283681152
16000.0000000407,15.9750199256106,1.0000000023804,0.627307586486567
16100.000000041,15.9937615807457,1.00000000234666,0.624219529881009
16200.0000000414,16.0107291433041,1.00000000239287,0.619707539576482
16300.0000000418,16.0270471936066,1.0000000022128,0.629675417827951
16400.0000000418,16.0451846265835,1.00000000229388,0.637736783455816
16500.0000000404,16.0627421325104,1.00000000237711,0.65071089310509
16600.0000000389,16.075922526137,1.0000000023848,0.658924565551932
16700.0000000375,16.0881525322027,1.00000000240864,0.656504209485943
16800.000000036,16.097581790665,1.00000000246391,0.652357525539753
16900.0000000346,16.1012848525519,1.00000000244192,0.654545465733049
17000.0000000331,16.1011190474375,1.00000000235017,0.654385615233687
17100.0000000317,16.09960990557,1.0000000023811,0.657028087169197
17200.0000000302,16.0972360238085,1.00000000250574,0.661087345658597
17300.0000000287,16.0925504257765,1.00000000231961,0.663785349631208
17400.0000000273,16.0836920251002,1.00000000251637,0.674195525720233
17500.0000000258,16.0694275018762,1.00000000247465,0.670595838018625
17600.0000000244,16.052310613876,1.00000000247747,0.664511656761124
17700.0000000229,16.033980454053,1.00000000242732,0.65381777297563
17800.0000000215,16.0143057561688,1.00000000250554,0.647037866306144
17900.00000002,15.9956136422188,1.00000000228604,0.64998923457955
18000.0000000186,15.9804212889194,1.00000000232697,0.644830339850552
18100.0000000171,15.9709810468558,1.00000000234354,0.641519824300111
18200.0000000156,15.9678819901028,1.00000000229188,0.634684803920578
18300.0000000142,15.9739498294749,1.0000000023197,0.634485082008024
18400.0000000127,15.9883555802383,1.00000000237061,0.630706890504489
18500.0000000113,16.0115693232057,1.00000000232865,0.633509022979401
18600.0000000098,16.0392910217337,1.00000000245635,0.633571124897927
18700.0000000084,16.0706232752261,1.00000000240341,0.626570681942827
18800.0000000069,16.1040663821703,1.00000000245154,0.633934521666239
18900.0000000055,16.1349635109268,1.00000000255826,0.631735424656855
19000.000000004,16.1665803321228,1.00000000242092,0.634152643935832
19100.0000000026,16.2013021562927,1.00000000239948,0.630581020075589
19200.0000000011,16.2377146894429,1.00000000232931,0.635889943950972
19299.9999999996,16.275535094195,1.00000000247556,0.638603165255666
19399.9999999982,16.3130931130199,1.00000000259966,0.63624139179703
19499.9999999967,16.3457297668916,1.00000000261707,0.637173346840336
19599.9999999953,16.376671210908,1.00000000250902,0.638176140080208
19699.9999999938,16.4076613845023,1.0000000024383,0.636620717057891
19799.9999999924,16.4369081898335,1.00000000263608,0.640554747331527
19899.9999999909,16.4651090618377,1.00000000254785,0.642814565153234
19999.9999999895,16.497181941372,1.00000000239007,0.638694621022775
20099.999999988,16.5313211261662,1.00000000244037,0.649524602669677
20199.9999999865,16.5667300826961,1.00000000250675,0.653151031343411
20299.9999999851,16.5997682166598,1.0000000026685,0.661077889269913
20399.9999999836,16.6288181042983,1.0000000024656,0.664441366353292
20499.9999999822,16.6547625622181,1.0000000025826,0.66583329341902
20599.9999999807,16.6804521301998,1.00000000253735,0.66815939640668
20699.9999999793,16.7061870128343,1.00000000249668,0.668485259065166
20799.9999999778,16.7313815743065,1.0000000026123,0.654990206754174
20899.9999999764,16.757251669252,1.00000000259515,0.655119100790407
20999.9999999749,16.7844475027033,1.00000000257099,0.663957271151827
21099.9999999734,16.8087930435117,1.00000000268919,0.679749105544242
21199.999999972,16.8325452356718,1.00000000248825,0.669823007190343
21299.9999999705,16.858305848842,1.00000000253265,0.668101270641258
21399.9999999691,16.8811930382412,1.00000000252021,0.668449895586048
21499.9999999676,16.902072986193,1.00000000256079,0.676889719485842
21599.9999999662,16.9215949114546,1.00000000261585,0.677756460610648
21699.9999999647,16.9378044572404,1.00000000259715,0.675011775415271
21799.9999999633,16.9523675306456,1.00000000244083,0.672381428468203
21899.9999999618,16.9649804220448,1.0000000026336,0.678412905929671
21999.9999999603,16.9756594842887,1.00000000253073,0.668179899255997
22099.9999999589,16.9865173220535,1.00000000258728,0.667775342649347
22199.9999999574,16.9983449942491,1.00000000244467,0.668627733826986
22299.999999956,17.0108821836033,1.00000000255701,0.685871325365828
22399.9999999545,17.0203992614899,1.00000000269626,0.683567947317842
22499.9999999531,17.0278978636144,1.00000000254944,0.686038187022373
22599.9999999516,17.0352390181997,1.00000000280513,0.681462359037573
22699.9999999502,17.0381377183215,1.00000000280287,0.680208813867554
22799.9999999487,17.0365174342705,1.00000000263909,0.677018751986468
22899.9999999473,17.0338782427078,1.00000000276301,0.687798932390416
22999.9999999458,17.0270510449393,1.00000000263041,0.674315438901349
23099.9999999443,17.0190237176769,1.00000000258791,0.667806911173848
23199.9999999429,17.0107629070048,1.00000000269328,0.680158276398176
23299.9999999414,17.0012162115076,1.00000000281382,0.681466672827713
23399.99999994,16.989954255319,1.00000000281384,0.681610813745102
23499.9999999385,16.9757185010908,1.00000000288172,0.689394701369302
23599.9999999371,16.9612933978859,1.00000000260681,0.674766953175408
23699.9999999356,16.9465306784132,1.00000000276425,0.675011571326815
23799.9999999342,16.9335184127305,1.0000000026691,0.671269208549386
23899.9999999327,16.9239182673353,1.00000000259233,0.671779602988057
23999.9999999312,16.9177499545119,1.00000000277035,0.679194117013547
24099.9999999298,16.9149041584085,1.00000000258804,0.668645171785479
24199.9999999283,16.915425482337,1.00000000283819,0.671152246879617
24299.9999999269,16.9204552424533,1.0000000027423,0.667822408866665
24399.9999999254,16.9325671792215,1.00000000265153,0.667731797169565
24499.999999924,16.9504972872381,1.00000000271017,0.666412738626714
24599.9999999225,16.9748923631384,1.00000000265052,0.668327666360782
24699.9999999211,17.0072309694692,1.00000000253091,0.662272388456545
24799.9999999196,17.0465617520127,1.00000000280399,0.665651648275267
24899.9999999181,17.0878467479778,1.00000000276067,0.667736731399199
24999.9999999167,17.1343956972336,1.00000000283699,0.65840075644519
25099.9999999152,17.1810919908452,1.00000000293155,0.654478181507491
25199.9999999138,17.2289004185089,1.00000000271925,0.651510652349389
25299.9999999123,17.2767070235574,1.00000000286433,0.657668853989493
25399.9999999109,17.3223020110057,1.00000000288469,0.659044111726754
25499.9999999094,17.3719562667365,1.00000000266688,0.644913893121376
25599.999999908,17.4277426432151,1.00000000280095,0.65535656154195
25699.9999999065,17.4816301795176,1.00000000290434,0.659398040772883
25799.9999999051,17.5383910203105,1.0000000027677,0.654752115470268
25899.9999999036,17.5953626787028,1.0000000030145,0.667146816053165
25999.9999999021,17.6473400607052,1.00000000306622,0.662866827205014
26099.9999999007,17.6991229154649,1.00000000281999,0.657040446678384
26199.9999998992,17.7511458467669,1.00000000282801,0.653482501854396
26299.9999998978,17.8043580635509,1.00000000297948,0.66188530647257
26399.9999998963,17.8542162588688,1.00000000302179,0.655565446065089
26499.9999998949,17.9048377591567,1.00000000272665,0.65462761962637
26599.9999998934,17.9606043195112,1.0000000028348,0.65577547207157
26699.999999892,18.0210242719208,1.00000000272071,0.659492635447202
26799.9999998905,18.0795563743739,1.00000000300333,0.659762685042883
26899.999999889,18.1358399218236,1.00000000301695,0.669163178749886
26999.9999998876,18.1918307226828,1.00000000294976,0.668914608745452
27099.9999998861,18.2452290056794,1.00000000312559,0.682122853421389
27199.9999998847,18.3007564128991,1.00000000284651,0.678905297684811
27299.9999998832,18.3544134838465,1.00000000311708,0.678794944616876
27399.9999998818,18.4046795408184,1.0000000030549,0.676026642699332
27499.9999998803,18.4552397078752,1.00000000282566,0.675963864826607
27599.9999998789,18.5045796434947,1.0000000029795,0.68414859817057
27699.9999998774,18.5515396042279,1.00000000314433,0.686014704434948
27799.9999998759,18.5991335086779,1.00000000309685,0.68036468659959
27899.9999998745,18.6488212219471,1.00000000304927,0.691023554566737
27999.999999873,18.6968096709541,1.00000000314047,0.692271742805591
28099.9999998716,18.7409702747769,1.0000000032523,0.683841774160121
28199.9999998701,18.7894180923619,1.00000000289473,0.69363018675709
28299.9999998687,18.8383283084465,1.00000000298717,0.697349305750575
28399.9999998672,18.8803870022439,1.00000000315321,0.69950935451126
28499.9999998658,18.919759460537,1.00000000285871,0.697716577494756
28599.9999998643,18.9606124439577,1.00000000305758,0.694140971632679
28699.9999998629,19.0022095652798,1.00000000303054,0.680301383907364
28799.9999998614,19.0443568380282,1.00000000314928,0.701084856534587
28899.9999998599,19.0841777991597,1.00000000318104,0.701970549734073
28999.9999998585,19.1230954290352,1.00000000313332,0.695599622969354
