Time,AGPnorm,Energy,Entropy
0,0,1,-1.09116715286195e-17
99.9999999999986,7.93905812612217e-06,1.00000000000006,0.000404985403772454
199.999999999993,0.000727173093916929,0.999999999998897,0.000649044470348799
300,0.00184822472753741,1.00000000000064,0.0011476640924698
400.000000000022,0.00258274359249249,0.999999999999132,0.0019791302453558
500.000000000045,0.00309226355188906,0.999999999999671,0.00268898861543465
600.000000000068,0.00441159056414616,1.00000000000035,0.00376564462641532
700.000000000091,0.00553490904408989,0.999999999998778,0.00484983533766257
800.000000000113,0.00713171947916182,1.00000000000054,0.00599582479936476
900.000000000136,0.00888080109387696,0.999999999999404,0.00740095964883043
1000.00000000016,0.0103315083382727,0.999999999999327,0.008751649196456
1100.0000000001,0.0125394113712866,1.0000000000006,0.010281053607209
1200,0.0148396854747487,0.999999999998783,0.0118937965096028
1299.99999999991,0.0170652788413421,1.00000000000031,0.0135294415466877
1399.99999999982,0.0194993018862023,0.99999999999972,0.0153515302830824
1499.99999999973,0.022003719038313,0.999999999999039,0.0171758199539962
1599.99999999964,0.0251429360331352,1.00000000000076,0.0190873205322491
1699.99999999955,0.0283185980494618,0.999999999998887,0.0211147833322807
1799.99999999946,0.0311666696854202,0.999999999999962,0.0231669647633903
1899.99999999937,0.0343378601604724,1.00000000000007,0.0253343207341061
1999.99999999928,0.0378496783940217,0.999999999998865,0.0275568309721809
2099.99999999919,0.0416984535644234,1.00000000000077,0.0298316172345125
2199.99999999909,0.0454925321692412,0.99999999999906,0.0322170236238078
2299.999999999,0.0490350671890031,0.999999999999575,0.0346428580736214
2399.99999999891,0.0530409494138716,1.00000000000043,0.0371348440555174
2499.99999999882,0.057406214316429,0.999999999998805,0.0397242568394816
2599.99999999873,0.0616882860038495,1.0000000000006,0.0423631311031828
2699.99999999864,0.0659071189621901,0.999999999999307,0.0450806981478168
2799.99999999855,0.0702161837875823,0.999999999999241,0.0478672190481201
2899.99999999846,0.0750317234897596,1.00000000000073,0.0507020649930391
2999.99999999837,0.0800170481097491,0.999999999998818,0.0536538045620545
3099.99999999828,0.0845673152840815,1.00000000000027,0.0566641685057244
3199.99999999819,0.0891640520545531,0.999999999999648,0.0597198169990203
3299.99999999809,0.0942168520765156,0.999999999999027,0.062888240760005
3399.999999998,0.0996214087355174,1.00000000000089,0.0661090383640867
3499.99999999791,0.104953303312905,0.99999999999886,0.0694427076173766
3599.99999999782,0.109770671039403,0.999999999999856,0.0728489275272461
3699.99999999773,0.114829902264982,1.00000000000007,0.076288909824146
3799.99999999764,0.12048150916319,0.999999999998954,0.0798903156304311
3899.99999999755,0.126146890095367,1.00000000000084,0.0835612327976546
3999.99999999746,0.131567755311799,0.999999999998963,0.0873221353674611
4099.99999999738,0.136734784041347,0.999999999999465,0.0911907912944868
4199.99999999775,0.142314935264036,1.0000000000005,0.0951136563899529
4299.99999999811,0.148330339911139,0.999999999998957,0.0992321263718442
4399.99999999848,0.153967337455832,1.0000000000006,0.103451089151552
4499.99999999884,0.159352058420804,0.999999999999207,0.107739280626942
4599.9999999992,0.164922020263657,0.999999999999199,0.112202909865382
4699.99999999957,0.170925786933617,1.00000000000084,0.116781444628056
4799.99999999993,0.177027358234937,0.999999999998945,0.121580833481646
4900.00000000029,0.182511718316578,1.00000000000025,0.126516973407324
5000.00000000066,0.187932734729703,0.999999999999651,0.13156029165565
5100.00000000102,0.193853995995444,0.999999999999136,0.136884883617191
5200.00000000139,0.200063214585413,1.00000000000109,0.142414600420443
5300.00000000175,0.205954192519791,0.999999999999122,0.148209654239527
5400.00000000211,0.211331011591729,1.00000000000017,0.154235786557431
5500.00000000248,0.217017263235742,1.00000000000074,0.160468299098073
5600.00000000284,0.223044302009344,1.00000000000015,0.167116553943244
5700.00000000321,0.229365351571588,1.00000000000248,0.174073635444247
5800.00000000357,0.234961613724675,1.00000000000149,0.181323445420813
5900.00000000393,0.240422188297829,1.00000000000321,0.188893623477027
6000.0000000043,0.247194807667229,1.00000000000584,0.196714463765367
6100.00000000466,0.253383709181621,1.00000000000674,0.204932084327803
6200.00000000502,0.261003986584273,1.00000000001066,0.213342925894917
6300.00000000539,0.268514069373413,1.00000000001265,0.221867719785063
6400.00000000575,0.276631649641979,1.00000000001646,0.230592392735443
6500.00000000612,0.289870288385025,1.00000000002273,0.239352073455728
6600.00000000648,0.302765374543695,1.00000000002489,0.248252712186679
6700.00000000684,0.321676341021866,1.00000000003138,0.257062862857801
6800.00000000721,0.346915606244945,1.00000000003736,0.26570702715246
6900.00000000757,0.377179776034481,1.00000000004266,0.274398230202058
7000.00000000793,0.423595580691892,1.00000000005127,0.282970044321201
7100.0000000083,0.479034160286189,1.00000000005904,0.291407782477805
7200.00000000866,0.552985890070358,1.00000000006532,0.299680565790764
7300.00000000903,0.652331484866895,1.00000000007136,0.307691381204922
7400.00000000939,0.772465078274062,1.00000000008076,0.315694735728075
7500.00000000975,0.931136744475251,1.0000000000875,0.323518384451282
7600.00000001012,1.12530094163456,1.00000000009425,0.331104531378574
7700.00000001048,1.36276500639379,1.00000000010296,0.338577073585049
7800.00000001084,1.65889391346988,1.00000000011413,0.345754908965599
7900.00000001121,2.00832711654795,1.00000000011607,0.353007695872211
8000.00000001157,2.43013630364242,1.00000000012507,0.359966027255411
8100.00000001194,2.93022026952762,1.00000000012723,0.366664110341997
8200.0000000123,3.51098216756928,1.00000000013816,0.37331081503479
8300.00000001266,4.19272212938294,1.00000000014463,0.379729758335806
8400.00000001303,4.97497688841263,1.0000000001557,0.386035517473668
8500.00000001339,5.87046448667459,1.00000000016036,0.392166459663766
8600.00000001376,6.89403328961547,1.00000000016482,0.397973207573455
8700.00000001412,8.04405588798239,1.00000000017362,0.403830482583883
8800.00000001448,9.33847138644454,1.00000000017961,0.409433249745907
8900.00000001485,10.7863186372305,1.0000000001793,0.414900223203138
9000.00000001521,12.3891291732082,1.00000000018866,0.420224813670801
9100.00000001557,14.165302215584,1.00000000019924,0.425218204539565
9200.00000001594,16.1154392927594,1.00000000020771,0.430291349171999
9300.0000000163,18.2474471500002,1.00000000020771,0.435142745308342
9400.00000001667,20.5799753770322,1.0000000002055,0.439750535499366
9500.00000001703,23.1043720701266,1.00000000022059,0.444311669809758
9600.00000001739,25.8351536266664,1.00000000022732,0.448627133321246
9700.00000001776,28.7817512012706,1.00000000021978,0.453012011076843
9800.00000001812,31.9368237884563,1.00000000023832,0.45708118481381
9900.00000001848,35.3240835584656,1.00000000022956,0.460966041865728
10000.0000000188,38.9321014050903,1.00000000024321,0.464870989251319
10100.0000000192,42.7637332224774,1.000000000252,0.468553593850889
10200.0000000196,46.8405929072116,1.0000000002403,0.472165857978906
10300.0000000199,51.1401054583048,1.00000000024488,0.475702361117868
10400.0000000203,55.6836918503122,1.00000000024677,0.478925031043083
10500.0000000207,60.4666733349543,1.00000000025945,0.482225830522367
10600.000000021,65.4749480767248,1.00000000025857,0.485317840923552
10700.0000000214,70.7402386146835,1.0000000002614,0.488255313053576
10800.0000000218,76.2318235070957,1.00000000025694,0.49127515228972
10900.0000000221,81.9596928629907,1.00000000025281,0.493998625847003
11000.0000000225,87.9333781334442,1.00000000026702,0.496726295664816
11100.0000000229,94.1220482059149,1.00000000027055,0.499265294765332
11200.0000000232,100.559760898229,1.00000000026366,0.501598880092157
11300.0000000236,107.217565757115,1.00000000026098,0.504162171831612
11400.0000000239,114.089121709053,1.0000000002659,0.506327711765137
11500.0000000243,121.198462956307,1.00000000026232,0.508587511828579
11600.0000000247,128.503402259746,1.00000000027472,0.510727110097957
11700.000000025,136.03208357852,1.00000000027091,0.51253184617555
11800.0000000254,143.7664517549,1.00000000026701,0.514732693981341
11900.0000000258,151.682628316179,1.00000000026404,0.516529819663332
12000.0000000261,159.815561029038,1.00000000027046,0.51804138428372
12100.0000000265,168.118277794914,1.00000000026451,0.520038498277546
12200.0000000269,176.60748828291,1.00000000026731,0.521354259770469
12300.0000000272,185.279942490551,1.00000000026948,0.522945627265054
12400.0000000276,194.096873393413,1.00000000027028,0.524567827500132
12500.0000000279,203.098691549411,1.00000000027624,0.525559110294905
12600.0000000283,212.241734101848,1.00000000027043,0.527132434969413
12700.0000000287,221.525599928367,1.00000000026068,0.528530839314079
12800.000000029,230.966192467367,1.0000000002706,0.52938850543349
12900.0000000294,240.512251167477,1.00000000026669,0.530760764381901
13000.0000000298,250.202095356628,1.00000000026606,0.531581239908436
13100.0000000301,260.003066833766,1.0000000002714,0.532554107273033
13200.0000000305,269.896634729544,1.00000000026489,0.533619572377561
13300.0000000309,279.91401810656,1.00000000026548,0.534301983151776
13400.0000000312,290.001301170892,1.00000000026748,0.535284302269201
13500.0000000316,300.184753395322,1.00000000025564,0.536056623310424
13600.0000000319,310.450358277432,1.00000000026597,0.536703354084954
13700.0000000323,320.763191618997,1.00000000025518,0.537507697320105
13800.0000000327,331.161409227494,1.00000000025885,0.537795815996592
13900.000000033,341.595457506474,1.00000000025816,0.538669195287533
14000.0000000334,352.0788033316,1.00000000026003,0.539232821242786
14100.0000000338,362.612707315045,1.00000000025168,0.539557581005835
14200.0000000341,373.152686786126,1.00000000025468,0.540096924722875
14300.0000000345,383.739031973198,1.00000000025101,0.540396556659708
14400.0000000349,394.33217351507,1.00000000025322,0.540779617131304
14500.0000000352,404.927866904028,1.00000000025804,0.541442145418964
14600.0000000356,415.543876651998,1.00000000026279,0.541329774902875
14700.0000000359,426.131410130987,1.00000000024026,0.541624758767124
14800.0000000363,436.723400523395,1.00000000024869,0.542013939704621
14900.0000000367,447.296870729505,1.00000000024829,0.542261385379294
15000.000000037,457.832067649327,1.00000000024705,0.542450065386582
15100.0000000374,468.356518820478,1.0000000002472,0.54235112500632
15200.0000000378,478.825508895394,1.00000000025402,0.542495363469989
15300.0000000381,489.261125107892,1.00000000024279,0.542477590776399
15400.0000000385,499.652919524648,1.00000000023531,0.5427908125275
15500.0000000389,509.974181747791,1.00000000024567,0.54308073501014
15600.0000000392,520.254867056346,1.00000000024475,0.542819988275335
15700.0000000396,530.456229593559,1.00000000023614,0.542831593191698
15800.0000000399,540.590810379967,1.00000000022705,0.5427321424426
15900.0000000403,550.661119950454,1.00000000022736,0.542811183303931
16000.0000000407,560.631551782981,1.00000000023167,0.542904138139467
16100.000000041,570.535096790882,1.00000000022737,0.542962066515627
16200.0000000414,580.343306590521,1.0000000002283,0.542734757845342
16300.0000000418,590.054078828778,1.00000000022303,0.542592109961394
16400.0000000418,599.682226102406,1.00000000022481,0.542352252282959
16500.0000000404,609.191526336912,1.00000000022517,0.542391380747764
16600.0000000389,618.609928188829,1.00000000022147,0.54231915011059
16700.0000000375,627.918138448902,1.00000000022684,0.542116341831959
16800.000000036,637.109129936052,1.00000000022694,0.542463266834894
16900.0000000346,646.198476304023,1.00000000022268,0.541728947697611
17000.0000000331,655.156371766751,1.00000000022674,0.541800877640327
17100.0000000317,664.002368968436,1.00000000022013,0.541141367728211
17200.0000000302,672.72919798006,1.00000000022034,0.541351743667389
17300.0000000287,681.318693367697,1.00000000021562,0.540955689644076
17400.0000000273,689.794320090322,1.00000000022292,0.54092229197994
17500.0000000258,698.12766688729,1.00000000020935,0.540748413724539
17600.0000000244,706.332820545081,1.00000000020951,0.540528888445048
17700.0000000229,714.409028160891,1.00000000021398,0.539884930519386
17800.0000000215,722.335800687991,1.00000000020886,0.539742089841749
17900.00000002,730.136135573805,1.00000000020202,0.539417302313861
18000.0000000186,737.789753596373,1.0000000002067,0.539266217334765
18100.0000000171,745.300357149238,1.00000000020273,0.53906394663584
18200.0000000156,752.676075714964,1.00000000020201,0.538817555260648
18300.0000000142,759.893479474836,1.00000000019987,0.538585206422896
18400.0000000127,766.975740157199,1.00000000019785,0.538201517111941
18500.0000000113,773.908084992634,1.00000000019903,0.537623650486901
18600.0000000098,780.689121960346,1.00000000019599,0.537469900824635
18700.0000000084,787.330366467683,1.00000000018455,0.53706227589652
18800.0000000069,793.810459358742,1.00000000019294,0.537045939215569
18900.0000000055,800.148435541178,1.00000000019422,0.536679333095771
19000.000000004,806.335803218625,1.00000000019375,0.536429463370224
19100.0000000026,812.366677498725,1.00000000019093,0.536258389071266
19200.0000000011,818.25542379687,1.00000000018329,0.535602105364198
19299.9999999996,823.983882869896,1.00000000018656,0.535418918649872
19399.9999999982,829.565663208381,1.00000000018053,0.534852537947005
19499.9999999967,834.998309632877,1.00000000018097,0.534802064699878
19599.9999999953,840.272829066596,1.00000000017839,0.534600800892648
19699.9999999938,845.40482129733,1.00000000018346,0.534515581000263
19799.9999999924,850.380607366208,1.00000000018267,0.534272324169416
19899.9999999909,855.207543936005,1.0000000001814,0.533650359959805
19999.9999999895,859.889116631991,1.0000000001744,0.533068130531876
20099.999999988,864.412754005562,1.00000000016907,0.532530613283739
20199.9999999865,868.795047438285,1.00000000017083,0.532284793603205
20299.9999999851,873.025577013645,1.00000000017145,0.532209267382624
20399.9999999836,877.10832796224,1.00000000017185,0.532590477514253
20499.9999999822,881.051359817749,1.00000000017019,0.53286060145939
20599.9999999807,884.842022838296,1.00000000017022,0.532658172766569
20699.9999999793,888.495134404753,1.00000000017208,0.531997242247087
20799.9999999778,892.003395980855,1.00000000016291,0.530672032701671
20899.9999999764,895.366053279026,1.00000000016192,0.529653313774748
20999.9999999749,898.591939482036,1.00000000016527,0.528612434203019
21099.9999999734,901.668947409516,1.00000000016182,0.528753350333286
21199.999999972,904.61026240141,1.00000000016395,0.529918952364881
21299.9999999705,907.415083362435,1.00000000016148,0.53121786316333
21399.9999999691,910.08254882727,1.00000000016135,0.532663236578391
21499.9999999676,912.62463917911,1.00000000016003,0.532648089507137
21599.9999999662,915.031821647307,1.00000000016046,0.53152400652553
21699.9999999647,917.312011285749,1.00000000016321,0.529015734257042
21799.9999999633,919.462592517576,1.00000000015468,0.525818564591964
21899.9999999618,921.475822908615,1.00000000015108,0.524066523420964
21999.9999999603,923.360811112349,1.00000000014407,0.523551412493619
22099.9999999589,925.110515806319,1.00000000014924,0.525634199421474
22199.9999999574,926.735779022652,1.00000000014841,0.529258293538248
22299.999999956,928.24432222648,1.00000000015106,0.533002953512898
22399.9999999545,929.637380660635,1.00000000015542,0.535491135487536
22499.9999999531,930.928075991393,1.00000000015355,0.535436370511002
22599.9999999516,932.111354679748,1.00000000015152,0.532603591175791
22699.9999999502,933.186332848293,1.00000000015449,0.527267188570808
22799.9999999487,934.14980355065,1.00000000014183,0.521049286132228
22899.9999999473,934.987635659175,1.00000000013903,0.516850343075641
22999.9999999458,935.704578688472,1.00000000013072,0.515979585993528
23099.9999999443,936.298072875652,1.00000000013596,0.519544943472098
23199.9999999429,936.777761706355,1.00000000014078,0.526352349752267
23299.9999999414,937.160732076717,1.00000000015449,0.533497801272356
23399.99999994,937.453852026306,1.00000000015754,0.539228574415625
23499.9999999385,937.673998912441,1.00000000016243,0.541313388564576
23599.9999999371,937.82254197895,1.00000000016484,0.538616270633922
23699.9999999356,937.894201306991,1.00000000015228,0.531751328831166
23799.9999999342,937.883614306228,1.00000000014189,0.521600062568005
23899.9999999327,937.770513301223,1.00000000013172,0.511488956391995
23999.9999999312,937.548954363949,1.00000000011698,0.504705274373024
24099.9999999298,937.21304716614,1.00000000011574,0.504440334829351
24199.9999999283,936.766363548361,1.00000000012044,0.511686033403389
24299.9999999269,936.228592703006,1.00000000013224,0.522765761095473
24399.9999999254,935.614132636559,1.0000000001431,0.534488736244072
24499.999999924,934.946773464143,1.00000000016299,0.543186074226794
24599.9999999225,934.240600736392,1.00000000017276,0.546935904252277
24699.9999999211,933.498357165185,1.00000000017147,0.545223739571514
24799.9999999196,932.721132240972,1.00000000016603,0.537001525312096
24899.9999999181,931.890614841425,1.00000000014418,0.523675318366269
24999.9999999167,930.99131910473,1.00000000012826,0.507826565583813
25099.9999999152,930.005127487626,1.0000000001106,0.49327802222162
25199.9999999138,928.916178300421,1.00000000009766,0.486540685105707
25299.9999999123,927.729203482166,1.0000000001013,0.490131656381312
25399.9999999109,926.45133505418,1.00000000011286,0.502944960250927
25499.9999999094,925.105168227793,1.00000000013201,0.520412889467867
25599.999999908,923.716612991975,1.00000000016208,0.536206374409223
25699.9999999065,922.304202530371,1.00000000017562,0.546978392822913
25799.9999999051,920.886831873008,1.00000000018155,0.552397116752739
25899.9999999036,919.469059134076,1.00000000019168,0.55080198650102
25999.9999999021,918.045740646753,1.00000000017351,0.5422157002076
26099.9999999007,916.605451634578,1.00000000016284,0.527334025682248
26199.9999998992,915.124017739975,1.00000000013886,0.506841621864876
26299.9999998978,913.582461421375,1.00000000010875,0.485671071071623
26399.9999998963,911.960491264709,1.00000000009116,0.469866155408974
26499.9999998949,910.250270697164,1.00000000008205,0.466078557908399
26599.9999998934,908.459163434933,1.00000000008935,0.475974955501565
26699.999999892,906.600208532033,1.00000000011046,0.496809483485689
26799.9999998905,904.700676316926,1.00000000014055,0.519088767548072
26899.999999889,902.783586961773,1.000000000169,0.538093211512477
26999.9999998876,900.869295016857,1.0000000001888,0.550675387343094
27099.9999998861,898.974012390479,1.00000000020094,0.556258504327145
27199.9999998847,897.101421790694,1.00000000020357,0.556197816797155
27299.9999998832,895.249311276744,1.00000000019324,0.548295056111358
27399.9999998818,893.405479396296,1.00000000018987,0.534690841108764
27499.9999998803,891.549530597955,1.00000000015305,0.512776183364563
27599.9999998789,889.660977063206,1.00000000012344,0.487301224398289
27699.9999998774,887.716896563111,1.00000000009603,0.462622308350329
27799.9999998759,885.704750558679,1.00000000007634,0.447040819296307
27899.9999998745,883.621468389584,1.00000000007427,0.446504400355761
27999.999999873,881.473631174665,1.00000000008923,0.462699993032911
28099.9999998716,879.282287585687,1.00000000011287,0.4883305708546
28199.9999998701,877.066634818216,1.00000000014963,0.515422271365434
28299.9999998687,874.850376423702,1.00000000017739,0.536052681981632
28399.9999998672,872.651322874413,1.00000000020346,0.5500513203366
28499.9999998658,870.481344535281,1.00000000021693,0.556875082432608
28599.9999998643,868.347234801443,1.00000000021301,0.557928236337919
28699.9999998629,866.247878284576,1.00000000022024,0.554627200586106
28799.9999998614,864.174774805516,1.00000000020034,0.543836970741911
