Time,AGPnorm,Energy,Entropy
0,0,1,-1.28737702622061e-17
99.9999999999986,1.73924226510827e-05,1.00000000000103,0.000780211653421203
199.999999999993,0.00147238468126839,1.00000000000074,0.00121960985542627
300,0.00381323307256396,1.0000000000002,0.00217044179943656
400.000000000022,0.00527848623840047,1.00000000000133,0.00371170868182293
500.000000000045,0.00630766019521081,1.00000000000008,0.00498983612219043
600.000000000068,0.00913093154485648,1.00000000000088,0.00700045388116647
700.000000000091,0.0114723070586429,1.00000000000092,0.00892085017785013
800.000000000113,0.0146997106723129,1.00000000000012,0.0110234460604658
900.000000000136,0.0180584390708559,1.00000000000127,0.0135862593750776
1000.00000000016,0.0209737483233369,1.00000000000019,0.0159534650885757
1100.0000000001,0.0255676239531446,1.00000000000076,0.0187673209510294
1200,0.0301863005331672,1.00000000000106,0.0216239513212633
1299.99999999991,0.0346362752044418,1.00000000000002,0.0245628064284686
1399.99999999982,0.0393703719597507,1.00000000000119,0.0278757980763207
1499.99999999973,0.0442905862347984,1.00000000000038,0.0310647328854352
1599.99999999964,0.0503839366233912,1.00000000000066,0.0345822400037848
1699.99999999955,0.0563798630332684,1.00000000000111,0.0382253099192625
1799.99999999946,0.0619658271111071,0.999999999999928,0.0418891404291816
1899.99999999937,0.068219383537761,1.00000000000114,0.0458782055383411
1999.99999999928,0.0749533627091161,1.00000000000062,0.0498337083282029
2099.99999999919,0.0819850152689418,1.00000000000052,0.0540668024446894
2199.99999999909,0.0886766442623944,1.00000000000109,0.0584613294406084
2299.999999999,0.0953279125758696,0.999999999999929,0.0628605803527666
2399.99999999891,0.102954176991271,1.00000000000114,0.067593333785875
2499.99999999882,0.110990459980514,1.0000000000008,0.0723843351224507
2599.99999999873,0.118479522877624,1.00000000000029,0.0774157121157145
2699.99999999864,0.125630881518391,1.00000000000107,0.0826395458168002
2799.99999999855,0.13329141148242,1.0000000000001,0.0879220414644591
2899.99999999846,0.141788278437689,1.00000000000114,0.0936013013029967
2999.99999999837,0.15034041995583,1.00000000000083,0.0994346632233049
3099.99999999828,0.157987092391064,1.00000000000002,0.105476811097873
3199.99999999819,0.165688286137167,1.0000000000011,0.111832100686242
3299.99999999809,0.174189456540669,1.00000000000041,0.118374956881445
3399.999999998,0.182963339847578,1.00000000000107,0.125423126458398
3499.99999999791,0.191241399090977,1.00000000000087,0.132778291333893
3599.99999999782,0.198924452237681,0.99999999999998,0.140457206273222
3699.99999999773,0.207179505923701,1.00000000000154,0.148736232977732
3799.99999999764,0.215983134257681,1.00000000000147,0.157511207146105
3899.99999999755,0.224656877960264,1.00000000000247,0.167032082533646
3999.99999999746,0.232230550286969,1.00000000000404,0.177185877699271
4099.99999999738,0.239882352622959,1.00000000000624,0.187903795081341
4199.99999999775,0.249363638785738,1.00000000001203,0.199509606204227
4299.99999999811,0.257213235489614,1.00000000001852,0.211648186893779
4399.99999999848,0.267638187763984,1.00000000002781,0.224166066897811
4499.99999999884,0.277319860151993,1.00000000003968,0.236933626460263
4599.9999999992,0.288369368576141,1.00000000005142,0.249639116232298
4699.99999999957,0.310074748088462,1.00000000007146,0.262574196036526
4799.99999999993,0.329522615078521,1.0000000000896,0.275300502102868
4900.00000000029,0.36544256270195,1.00000000010628,0.287726533869106
5000.00000000066,0.4156937374031,1.00000000013125,0.299899021592685
5100.00000000102,0.479586351082403,1.00000000015047,0.311763945870853
5200.00000000139,0.584656716879088,1.00000000016972,0.323574552680731
5300.00000000175,0.711281500590758,1.00000000018803,0.334946263782774
5400.00000000211,0.889808849659394,1.00000000022202,0.345840432008835
5500.00000000248,1.12879304948594,1.00000000024206,0.356618066574686
5600.00000000284,1.42028270499808,1.00000000024435,0.367168469450228
5700.00000000321,1.80850191804991,1.00000000028346,0.377213784590127
5800.00000000357,2.2755878388952,1.0000000002965,0.386925302535987
5900.00000000393,2.84945898437398,1.00000000033682,0.396161504088977
6000.0000000043,3.55113748959322,1.00000000033477,0.405410546415334
6100.00000000466,4.36668251424018,1.00000000036469,0.414147287438722
6200.00000000502,5.34273488354921,1.00000000039233,0.422490499536859
6300.00000000539,6.4676744523645,1.00000000039604,0.430529524987926
6400.00000000575,7.75733990830548,1.00000000037716,0.438448945560696
6500.00000000612,9.23812921680925,1.00000000042949,0.445905683320638
6600.00000000648,10.8951032505897,1.00000000043959,0.452994990710945
6700.00000000684,12.7631658433088,1.00000000045696,0.459737404922033
6800.00000000721,14.8352317508751,1.0000000004457,0.466338271046604
6900.00000000757,17.116301709702,1.00000000048528,0.472645399248572
7000.00000000793,19.6281033218527,1.00000000046982,0.478741153573861
7100.0000000083,22.3574152085514,1.00000000049631,0.484234746021767
7200.00000000866,25.3233681565905,1.00000000052458,0.489553697189597
7300.00000000903,28.5176916093428,1.00000000052055,0.494817602212331
7400.00000000939,31.9417740230016,1.00000000051112,0.49981360074074
7500.00000000975,35.6059652325604,1.00000000051654,0.504427009132263
7600.00000001012,39.4966675560103,1.00000000052635,0.508683462060593
7700.00000001048,43.6225542433275,1.00000000051977,0.512993134549464
7800.00000001084,47.9698505102852,1.00000000054666,0.516991095376775
7900.00000001121,52.5409252832533,1.00000000054064,0.520579710193838
8000.00000001157,57.3342517534349,1.00000000054305,0.524084901845687
8100.00000001194,62.3324420728692,1.00000000053486,0.527530820369408
8200.0000000123,67.5421742860837,1.00000000052872,0.530745627022681
8300.00000001266,72.9419116917096,1.00000000056169,0.53362935524157
8400.00000001303,78.5353210598654,1.00000000055991,0.536214691781345
8500.00000001339,84.3140775568203,1.00000000055485,0.538862297934383
8600.00000001376,90.2544164262237,1.00000000053837,0.54159473639673
8700.00000001412,96.3667072960263,1.00000000053508,0.543700500837784
8800.00000001448,102.623079491551,1.00000000054833,0.545880503142922
8900.00000001485,109.024742806975,1.00000000051674,0.547892121304738
9000.00000001521,115.564810283295,1.00000000053045,0.549681131747108
9100.00000001557,122.211272991026,1.00000000053018,0.551585250802953
9200.00000001594,128.98006296106,1.0000000005426,0.552983131748349
9300.0000000163,135.84146586338,1.00000000053794,0.554478540663651
9400.00000001667,142.790441691619,1.00000000052922,0.555989630790689
9500.00000001703,149.827176301619,1.00000000052263,0.557206156086413
9600.00000001739,156.913752220478,1.00000000053302,0.558482449107561
9700.00000001776,164.06832791256,1.00000000053092,0.559360813172803
9800.00000001812,171.265034460012,1.00000000052954,0.560242021519797
9900.00000001848,178.489606535578,1.00000000051284,0.561581347806351
10000.0000000188,185.752713004396,1.00000000052704,0.56196590029392
10100.0000000192,193.012237593207,1.00000000051339,0.562807529736609
10200.0000000196,200.286490555181,1.00000000050837,0.563555572480491
10300.0000000199,207.557141537041,1.00000000050773,0.563754066456349
10400.0000000203,214.802126306331,1.00000000050671,0.564720212416449
10500.0000000207,222.038215151126,1.00000000048775,0.564991194217247
10600.000000021,229.227774497431,1.00000000048569,0.565482607624054
10700.0000000214,236.381856313966,1.00000000048941,0.56585523421361
10800.0000000218,243.492907829684,1.00000000050299,0.565862270343919
10900.0000000221,250.533946327616,1.00000000047005,0.566559150901909
11000.0000000225,257.524548529644,1.00000000048658,0.566439125280322
11100.0000000229,264.433773991925,1.00000000046931,0.566496134472648
11200.0000000232,271.266388175238,1.00000000045237,0.566929132171603
11300.0000000236,278.023304049947,1.00000000046737,0.566811665458289
11400.0000000239,284.674702687122,1.00000000047035,0.566606569333159
11500.0000000243,291.240811558121,1.00000000045452,0.566741622599632
11600.0000000247,297.699413253366,1.00000000045779,0.566774965021633
11700.000000025,304.048798767652,1.00000000045524,0.56657745962476
11800.0000000254,310.295258217802,1.00000000043922,0.566464064288671
11900.0000000258,316.41262001084,1.00000000044342,0.566847986007977
12000.0000000261,322.41720288257,1.00000000043603,0.56622864163092
12100.0000000265,328.295481369733,1.00000000043716,0.566252779670387
12200.0000000269,334.041855734603,1.00000000045067,0.565915087167969
12300.0000000272,339.667209315521,1.00000000042823,0.565518652155275
12400.0000000276,345.146429713872,1.00000000042644,0.565632470399452
12500.0000000279,350.495110161361,1.00000000041547,0.565124132661733
12600.0000000283,355.706296224043,1.00000000041506,0.564722225449694
12700.0000000287,360.769062407532,1.00000000041808,0.564672410247882
12800.000000029,365.69925945761,1.00000000039363,0.56436711558472
12900.0000000294,370.475728498487,1.0000000004083,0.564057894135874
13000.0000000298,375.110485316191,1.00000000040692,0.563520551566689
13100.0000000301,379.602404786483,1.00000000039987,0.563130580875899
13200.0000000305,383.939682416328,1.00000000040109,0.563076642383045
13300.0000000309,388.137058187143,1.00000000038185,0.562424642248755
13400.0000000312,392.179465090313,1.00000000037258,0.5624493205807
13500.0000000316,396.07418247889,1.00000000037445,0.562155560297792
13600.0000000319,399.826554789546,1.00000000037006,0.5614749959028
13700.0000000323,403.422239436065,1.00000000037497,0.560979816315382
13800.0000000327,406.876604762325,1.00000000037527,0.56055847583341
13900.000000033,410.180040745269,1.0000000003571,0.560801851254147
14000.0000000334,413.336650671112,1.00000000035288,0.560506276820685
14100.0000000338,416.353119274514,1.00000000036764,0.559494068938178
14200.0000000341,419.217354331974,1.00000000034903,0.558896969798706
14300.0000000345,421.942961168399,1.00000000034402,0.558768182480632
14400.0000000349,424.525267629061,1.00000000034834,0.559276585176864
14500.0000000352,426.96589384975,1.00000000033752,0.559102238010536
14600.0000000356,429.27214244402,1.00000000032942,0.557987041180735
14700.0000000359,431.434705840269,1.00000000033774,0.557087565765856
14800.0000000363,433.464149584085,1.0000000003338,0.556541976597827
14900.0000000367,435.359242237125,1.00000000031442,0.557519526869805
15000.000000037,437.119046390891,1.00000000032832,0.558945399147872
15100.0000000374,438.756603505905,1.00000000031671,0.558124979245695
15200.0000000378,440.26208639496,1.00000000031369,0.555427876864435
15300.0000000381,441.641109539453,1.00000000030281,0.553057165961907
15400.0000000385,442.894854470017,1.00000000031102,0.554364512155303
15500.0000000389,444.022862188049,1.0000000003142,0.559159253047221
15600.0000000392,445.043897081732,1.00000000031911,0.559370478019367
15700.0000000396,445.949103279243,1.00000000031862,0.557931607854633
15800.0000000399,446.744605199936,1.00000000028418,0.550940039593987
15900.0000000403,447.42289384859,1.00000000029168,0.549948118205597
16000.0000000407,447.983784680961,1.0000000002794,0.55211226521141
16100.000000041,448.442048899709,1.00000000031019,0.559787029397478
16200.0000000414,448.80660842196,1.00000000030689,0.562384374359342
16300.0000000418,449.085131892277,1.00000000031805,0.558675056692935
16400.0000000418,449.274100033029,1.00000000027678,0.548920754009126
16500.0000000404,449.353590299923,1.00000000026172,0.542520357109741
16600.0000000389,449.329378268111,1.00000000026819,0.546372237013545
16700.0000000375,449.211104300729,1.00000000028574,0.5576278232667
16800.000000036,449.024293268339,1.00000000032575,0.565864405450157
16900.0000000346,448.781013535421,1.00000000032653,0.562660103953287
17000.0000000331,448.470266487615,1.00000000030603,0.551409849160607
17100.0000000317,448.078892256615,1.00000000025171,0.537461713758245
17200.0000000302,447.590446237631,1.00000000024272,0.534278317692248
17300.0000000287,447.01431854945,1.0000000002649,0.545251952083105
17400.0000000273,446.37633883105,1.00000000031293,0.561638007981535
17500.0000000258,445.698125698448,1.00000000034609,0.569241782862073
17600.0000000244,444.992370665886,1.00000000033957,0.562955858203633
17700.0000000229,444.243445194599,1.00000000027819,0.545012792922725
17800.0000000215,443.425926045797,1.00000000023411,0.527057179495484
17900.00000002,442.526434603071,1.00000000020661,0.521484001760663
18000.0000000186,441.549639952278,1.0000000002521,0.535958700027078
18100.0000000171,440.52866475765,1.00000000031402,0.559256025493621
18200.0000000156,439.491339048187,1.00000000036738,0.571986298714856
18300.0000000142,438.449296282909,1.00000000036681,0.568098080046635
18400.0000000127,437.39330286762,1.00000000031981,0.548462240925789
18500.0000000113,436.292987259001,1.00000000025547,0.522876841152592
18600.0000000098,435.127786927579,1.00000000019683,0.505665632602513
18700.0000000084,433.890918586737,1.00000000021142,0.511923314044324
18800.0000000069,432.605197359604,1.00000000029158,0.540531556518381
18900.0000000055,431.305765963661,1.00000000035862,0.566555873776425
19000.000000004,430.014948126752,1.00000000039995,0.57531187094169
19100.0000000026,428.738082603137,1.00000000038391,0.565490609410034
19200.0000000011,427.458235313603,1.00000000030885,0.540726122245441
19299.9999999996,426.145605107209,1.00000000024096,0.508895302244679
19399.9999999982,424.77858715782,1.00000000018101,0.489269781531127
19499.9999999967,423.351106121285,1.00000000019429,0.496434524718077
19599.9999999953,421.886576264768,1.00000000027802,0.529466165416537
19699.9999999938,420.415566904375,1.00000000036098,0.562004040711997
19799.9999999924,418.961044814871,1.00000000041071,0.576718760452691
19899.9999999909,417.533994270947,1.00000000040242,0.572721193687992
19999.9999999895,416.122633257236,1.0000000003613,0.551345104957856
20099.999999988,414.704165814301,1.00000000027866,0.517153922498924
20199.9999999865,413.252784818336,1.00000000019999,0.48555100653237
20299.9999999851,411.753309927349,1.00000000017045,0.474976787715499
20399.9999999836,410.213781602857,1.00000000021028,0.492945147821818
20499.9999999822,408.653155831387,1.00000000030183,0.530840170849123
20599.9999999807,407.098573026208,1.00000000037371,0.563297882335219
20699.9999999793,405.569607820901,1.00000000043593,0.577330324231794
20799.9999999778,404.070952971677,1.0000000004421,0.57282250541127
20899.9999999764,402.595153992231,1.00000000036344,0.552292250044865
20999.9999999749,401.122651934405,1.00000000029316,0.519541225901911
21099.9999999734,399.632331274637,1.00000000022016,0.485380283129059
21199.999999972,398.111541166811,1.00000000018154,0.466951000502031
21299.9999999705,396.557096193568,1.00000000019313,0.472891450131641
21399.9999999691,394.983113337025,1.00000000025688,0.502603666917882
21499.9999999676,393.406896743151,1.00000000033751,0.540366007601944
21599.9999999662,391.846962483084,1.00000000039575,0.567424791586631
21699.9999999647,390.315430572687,1.00000000045002,0.574200470004225
21799.9999999633,388.812264541462,1.00000000042719,0.566263813263475
21899.9999999618,387.330236862269,1.00000000037175,0.54580398498391
21999.9999999603,385.855460706204,1.00000000031239,0.516267915395473
22099.9999999589,384.37231524083,1.00000000023807,0.484542508045481
22199.9999999574,382.872122970142,1.0000000001988,0.465033163460742
22299.999999956,381.350484827005,1.00000000018904,0.464998338695308
22399.9999999545,379.815074442137,1.0000000002353,0.483965795634145
22499.9999999531,378.275894853084,1.00000000029811,0.51557136480619
22599.9999999516,376.74559387367,1.00000000035508,0.546204754778996
22699.9999999502,375.234925486805,1.00000000041781,0.562678713949818
22799.9999999487,373.748000279343,1.00000000042638,0.564862267272016
22899.9999999473,372.283916778683,1.00000000040117,0.554576932730859
22999.9999999458,370.837542650994,1.00000000037019,0.536103534229614
23099.9999999443,369.398529609456,1.00000000031412,0.512245502045299
23199.9999999429,367.959580425378,1.00000000025369,0.488430981324357
23299.9999999414,366.513207448087,1.00000000021958,0.470226927295673
23399.99999994,365.058667755021,1.00000000021597,0.465781600803463
23499.9999999385,363.597617862154,1.00000000022879,0.474812712146126
23599.9999999371,362.134293323821,1.00000000027429,0.493435990102445
23699.9999999356,360.676329314897,1.00000000031684,0.517198134981452
23799.9999999342,359.229275841342,1.00000000035862,0.538779414025912
23899.9999999327,357.797965058636,1.00000000038504,0.550706040920493
23999.9999999312,356.38486995489,1.00000000040972,0.550326095546016
24099.9999999298,354.98834433299,1.00000000039033,0.542215797576336
24199.9999999283,353.605741242908,1.00000000035923,0.528366740766418
24299.9999999269,352.232640488082,1.00000000032266,0.513322855887779
24399.9999999254,350.864360767293,1.00000000027561,0.498056060967697
24499.999999924,349.498609655066,1.00000000026435,0.485445429670626
24599.9999999225,348.1330101511,1.0000000002393,0.475962440911066
24699.9999999211,346.768963006496,1.00000000023589,0.474493550251775
24799.9999999196,345.406651542134,1.00000000024567,0.48029534957795
24899.9999999181,344.048518576959,1.00000000026642,0.492318284780885
24999.9999999167,342.697370396156,1.00000000031341,0.507823910863928
25099.9999999152,341.355265981833,1.00000000033898,0.521935112154528
25199.9999999138,340.024586564227,1.00000000037676,0.53162927855866
25299.9999999123,338.706542414953,1.00000000037199,0.533041338912739
25399.9999999109,337.400253747415,1.00000000036271,0.532091105059112
25499.9999999094,336.105612796148,1.00000000035467,0.525332807261888
25599.999999908,334.820551888971,1.00000000032753,0.51767034912111
25699.9999999065,333.543867018952,1.00000000031956,0.511906129115765
25799.9999999051,332.274614487401,1.00000000029477,0.504342045431384
25899.9999999036,331.011721036789,1.0000000002825,0.498055695854083
25999.9999999021,329.755776414857,1.00000000025545,0.491252244532837
26099.9999999007,328.505942073744,1.0000000002591,0.485992799735265
26199.9999998992,327.263286625357,1.00000000026809,0.483707670041195
26299.9999998978,326.027460733359,1.0000000002529,0.486216551776182
26399.9999998963,324.799021969027,1.00000000027402,0.491041161084774
26499.9999998949,323.579022491199,1.00000000030264,0.500281277925743
26599.9999998934,322.367712988241,1.0000000003308,0.508465289106574
26699.999999892,321.165397678907,1.00000000033589,0.51625767981282
26799.9999998905,319.97245328912,1.00000000037176,0.520309924173266
26899.999999889,318.788257613897,1.00000000036811,0.522979525618187
26999.9999998876,317.612875123824,1.00000000033648,0.523108488970377
27099.9999998861,316.446104332813,1.00000000032578,0.518387631507556
27199.9999998847,315.28757813317,1.00000000029115,0.513893973218555
27299.9999998832,314.137520592698,1.00000000030411,0.511709859280355
27399.9999998818,312.995645903112,1.00000000029155,0.513031220816482
27499.9999998803,311.86251966964,1.00000000030026,0.513512078173622
27599.9999998789,310.738079330242,1.00000000028869,0.508301752018301
27699.9999998774,309.623025555463,1.00000000027631,0.50076484619904
27799.9999998759,308.517297857243,1.00000000026503,0.493507408339768
27899.9999998745,307.420986912797,1.0000000002422,0.484936948345459
27999.999999873,306.33484027219,1.00000000023631,0.480173335927164
28099.9999998716,305.258589528007,1.00000000025429,0.481104482464622
28199.9999998701,304.192250958201,1.00000000027947,0.488314312234695
28299.9999998687,303.135274554408,1.00000000032056,0.497142679756992
28399.9999998672,302.08628849262,1.00000000034497,0.508123602036212
28499.9999998658,301.043907327563,1.00000000037968,0.515611667105552
28599.9999998643,300.007738892875,1.00000000035295,0.519492531711652
28699.9999998629,298.9775291117,1.00000000035189,0.522034194915448
28799.9999998614,297.954408156196,1.00000000031394,0.519563953188649
28899.9999998599,296.939290754146,1.00000000028039,0.513582845488794
