Time,AGPnorm,Energy,Entropy
0,0,1,-7.76830927175129e-17
99.9999999999986,0.00183516694641627,0.999999999997648,0.00560860915818557
199.999999999993,0.0125925948703365,0.999999999995872,0.0161359444058924
300,0.0251575056523347,0.999999999998003,0.0296288248672372
400.000000000022,0.0365289123653242,1.00000000000026,0.0470967724992788
500.000000000045,0.0514583828536539,0.999999999998409,0.0684838392253227
600.000000000068,0.0705558460106332,0.999999999996002,0.0932511803132885
700.000000000091,0.0885861283601106,0.999999999997363,0.122005511390521
800.000000000113,0.105852965644733,1.00000000000177,0.157344099729494
900.000000000136,0.123203828092019,1.00000000003134,0.203268203807688
1000.00000000016,0.138409638502176,1.00000000017692,0.260565912302038
1100.0000000001,0.172361932414184,1.00000000051323,0.320623714584498
1200,0.264640187464661,1.00000000097336,0.375404526117948
1299.99999999991,0.45507182256782,1.0000000014176,0.423031543318976
1399.99999999982,0.866727626647916,1.00000000180761,0.462893182247875
1499.99999999973,1.63634903789497,1.00000000214205,0.49434804916479
1599.99999999964,2.79330280291708,1.00000000237848,0.520344816994988
1699.99999999955,4.33967431337682,1.00000000253613,0.542125610617003
1799.99999999946,6.3199930992862,1.00000000245739,0.558774462711062
1899.99999999937,8.711916772984,1.00000000247286,0.570077904688809
1999.99999999928,11.3917542888065,1.00000000255213,0.579365046540783
2099.99999999919,14.2647341526761,1.00000000251272,0.586530572496347
2199.99999999909,17.2939509188861,1.00000000235919,0.590937765251215
2299.999999999,20.4090391557029,1.00000000240031,0.592137068201689
2399.99999999891,23.4928924335912,1.00000000224473,0.592935752676065
2499.99999999882,26.4554559505537,1.00000000226696,0.593967846239771
2599.99999999873,29.2688967165096,1.00000000214414,0.59317399956931
2699.99999999864,31.908402871375,1.00000000205229,0.590811574776963
2799.99999999855,34.3245786141103,1.00000000193972,0.588657340133173
2899.99999999846,36.4744714568427,1.00000000185305,0.587757352825856
2999.99999999837,38.3449903716612,1.00000000186279,0.585867968972792
3099.99999999828,39.9499173266332,1.00000000168771,0.582682302172851
3199.99999999819,41.2925343387941,1.00000000162526,0.579514680665304
3299.99999999809,42.3682468761393,1.00000000160394,0.578983260148754
3399.999999998,43.1838973957286,1.00000000151504,0.573951863542271
3499.99999999791,43.7614035460953,1.00000000152796,0.579214752120786
3599.99999999782,44.1144521678206,1.00000000144601,0.573387879421269
3699.99999999773,44.2870615344263,1.0000000013756,0.569358594935137
3799.99999999764,44.2740013780873,1.00000000146043,0.573673287440903
3899.99999999755,44.125133445837,1.00000000139521,0.568410348628266
3999.99999999746,43.8329872862921,1.00000000135003,0.563397963149387
4099.99999999738,43.4718052032829,1.00000000150196,0.566750973154374
4199.99999999775,43.0055724501832,1.00000000122078,0.540408767919332
4299.99999999811,42.4999587463991,1.00000000165464,0.575733075377283
4399.99999999848,41.9406893226841,1.00000000109218,0.522978351580021
4499.99999999884,41.3332173501338,1.00000000177278,0.580623146798471
4599.9999999992,40.7388821290621,1.0000000014709,0.542635954171289
4699.99999999957,40.0963054152648,1.0000000012058,0.511370760644583
4799.99999999993,39.4545519247332,1.00000000185959,0.577758656507161
4900.00000000029,38.8303908247603,1.00000000129303,0.516204857109861
5000.00000000066,38.1776750919913,1.00000000128055,0.506223498445215
5100.00000000102,37.5347258178651,1.00000000184764,0.565707506647701
5200.00000000139,36.9187796358772,1.00000000139832,0.515334857326167
5300.00000000175,36.2978269726518,1.00000000119055,0.501049452474214
5400.00000000211,35.675071034131,1.00000000163001,0.528978015400834
5500.00000000248,35.0767197044106,1.00000000178708,0.540619022278955
5600.00000000284,34.4952273374311,1.00000000132003,0.499694082711546
5700.00000000321,33.9203697637893,1.00000000130031,0.511957106881286
5800.00000000357,33.3539328477429,1.00000000149303,0.520337927319816
5900.00000000393,32.8054747961251,1.00000000169341,0.533743081300345
6000.0000000043,32.2742646682659,1.00000000139293,0.508738766531414
6100.00000000466,31.7589318200607,1.00000000129805,0.515168239089846
6200.00000000502,31.2570925755569,1.0000000015015,0.536002744208891
6300.00000000539,30.7706385571319,1.0000000014613,0.513324262922611
6400.00000000575,30.2998817572853,1.00000000167838,0.528843214518558
6500.00000000612,29.8436358031216,1.00000000145838,0.513272442794701
6600.00000000648,29.4074801938376,1.00000000131058,0.512140733117809
6700.00000000684,28.9851395441654,1.00000000164079,0.5425676774179
6800.00000000721,28.5775244824735,1.0000000013025,0.515569549442169
6900.00000000757,28.1896021208472,1.00000000145042,0.507072090919728
7000.00000000793,27.8128421508678,1.00000000173684,0.521185960877967
7100.0000000083,27.4469055411855,1.00000000134944,0.50887866561524
7200.00000000866,27.1008805783124,1.00000000130825,0.515600904661139
7300.00000000903,26.7663460493107,1.00000000164087,0.536367306314679
7400.00000000939,26.4390270454545,1.00000000158425,0.533695358733527
7500.00000000975,26.1311255576595,1.00000000123738,0.501596157913637
7600.00000001012,25.838980308523,1.0000000014938,0.514790425386622
7700.00000001048,25.5546254279483,1.00000000164272,0.524984042473147
7800.00000001084,25.2792945095775,1.000000001544,0.513498040884884
7900.00000001121,25.018424666538,1.00000000146904,0.521177952461194
8000.00000001157,24.7690021888855,1.00000000148212,0.536415847563562
8100.00000001194,24.5243015151567,1.0000000016796,0.528994936841341
8200.0000000123,24.2863406330184,1.00000000148697,0.531885046841934
8300.00000001266,24.0614729332047,1.0000000014136,0.526565124183645
8400.00000001303,23.8494772053452,1.00000000144611,0.50913988204164
8500.00000001339,23.6487494913023,1.00000000154636,0.532111421783258
8600.00000001376,23.4550059255144,1.00000000153856,0.532949472595496
8700.00000001412,23.2701224895514,1.00000000145198,0.525526862634881
8800.00000001448,23.0959423231352,1.00000000157107,0.538604872752144
8900.00000001485,22.9256446678144,1.00000000152525,0.544342650927072
9000.00000001521,22.7663214702149,1.00000000140203,0.531811439082869
9100.00000001557,22.6146684960086,1.00000000155902,0.530817087222025
9200.00000001594,22.4617521574273,1.00000000173548,0.549635606980914
9300.0000000163,22.3092306039159,1.00000000152749,0.549847404186428
9400.00000001667,22.1663865849308,1.00000000136916,0.52651258991733
9500.00000001703,22.0375931424893,1.00000000152715,0.534058447190778
9600.00000001739,21.916883255315,1.000000001629,0.549171038559208
9700.00000001776,21.7989535441424,1.0000000015786,0.540322566077129
9800.00000001812,21.6882298389373,1.00000000152426,0.546116509478191
9900.00000001848,21.5859821302675,1.00000000147098,0.546781401083324
10000.0000000188,21.4847779666018,1.00000000158646,0.549316183781986
10100.0000000192,21.3838579885628,1.00000000153239,0.550270868016928
10200.0000000196,21.2959699377936,1.00000000139846,0.527145735172407
10300.0000000199,21.2163955897128,1.00000000158935,0.548751207966069
10400.0000000203,21.1326395007681,1.00000000167446,0.54887938388648
10500.0000000207,21.0418755606367,1.00000000170284,0.555593428202005
10600.000000021,20.9478910867793,1.00000000156465,0.566657814400525
10700.0000000214,20.8603601769998,1.0000000015111,0.561779758137241
10800.0000000218,20.7774758075796,1.00000000162488,0.565433545640044
10900.0000000221,20.7015852703456,1.00000000148499,0.562297839155647
11000.0000000225,20.6324177842794,1.00000000154796,0.551804055849766
11100.0000000229,20.5712028671364,1.00000000157912,0.549764710969281
11200.0000000232,20.5162650830412,1.00000000153955,0.557082183036599
11300.0000000236,20.4660470576827,1.00000000164264,0.568186075387183
11400.0000000239,20.4154581276276,1.00000000155366,0.566062873815503
11500.0000000243,20.3711372075138,1.00000000155548,0.56243640757654
11600.0000000247,20.3268319944478,1.00000000159635,0.564711979056418
11700.000000025,20.2856971112063,1.00000000154078,0.561680068792553
11800.0000000254,20.2503819344083,1.00000000150098,0.557809654808159
11900.0000000258,20.2153766286584,1.00000000169077,0.574318926062691
12000.0000000261,20.1785465052985,1.00000000161656,0.576432205781148
12100.0000000265,20.1438280966666,1.00000000155476,0.567857534554028
12200.0000000269,20.1068313002827,1.00000000162846,0.579248168215917
12300.0000000272,20.0632719166044,1.00000000171288,0.593688563905734
12400.0000000276,20.0098281128907,1.00000000171216,0.611045247030912
12500.0000000279,19.9518242730823,1.00000000166326,0.609539377068506
12600.0000000283,19.8979861881322,1.0000000015086,0.594799406304838
12700.0000000287,19.853141245859,1.00000000164695,0.591235194283514
12800.000000029,19.8174966861612,1.00000000155988,0.580862213298415
12900.0000000294,19.7912240883222,1.00000000147814,0.569018170857603
13000.0000000298,19.7698858851983,1.00000000161631,0.575965833750055
13100.0000000301,19.7519209568235,1.00000000162564,0.585659765632676
13200.0000000305,19.7381286738765,1.00000000166123,0.594150429764425
13300.0000000309,19.7252820143954,1.00000000175039,0.59145968917963
13400.0000000312,19.7087895065198,1.00000000161188,0.586785212097946
13500.0000000316,19.6997027370195,1.00000000146864,0.578093475154735
13600.0000000319,19.6984337542147,1.00000000155376,0.581465886409568
13700.0000000323,19.6945807095638,1.00000000176137,0.583938569177257
13800.0000000327,19.6878414243632,1.00000000164798,0.587189179461894
13900.000000033,19.6846561966109,1.00000000158498,0.585648677157658
14000.0000000334,19.6858626276924,1.00000000159365,0.5984551061432
14100.0000000338,19.6838947612783,1.00000000173858,0.609721406572778
14200.0000000341,19.6741975996408,1.00000000167374,0.612159386817167
14300.0000000345,19.6622809487369,1.00000000160264,0.611657652857221
14400.0000000349,19.6515057523407,1.00000000151131,0.614141057984818
14500.0000000352,19.6406939857518,1.00000000168278,0.613098307355493
14600.0000000356,19.6238938989904,1.00000000164381,0.617765612207918
14700.0000000359,19.6005251922052,1.00000000171712,0.615764869842878
14800.0000000363,19.5674601924078,1.00000000178445,0.609780908449254
14900.0000000367,19.5258142252393,1.00000000176348,0.61982251150246
15000.000000037,19.4809583419048,1.00000000163548,0.619986630341548
15100.0000000374,19.4404960308556,1.00000000148071,0.607672342902334
15200.0000000378,19.4086697113753,1.00000000162983,0.603710094228935
15300.0000000381,19.3859390107092,1.00000000155204,0.598937303692927
15400.0000000385,19.3701872013935,1.00000000159617,0.591439824661895
15500.0000000389,19.3627501402385,1.00000000165812,0.592716474007446
15600.0000000392,19.3611335947773,1.00000000161853,0.5893027968741
15700.0000000396,19.3640224139319,1.00000000165163,0.60170340964244
15800.0000000399,19.3687759841345,1.0000000016439,0.604968877635226
15900.0000000403,19.3743638323521,1.00000000164006,0.603289733998798
16000.0000000407,19.3815425962224,1.00000000161384,0.602603251226812
16100.000000041,19.390109345165,1.00000000166487,0.598105368023913
16200.0000000414,19.40387535519,1.0000000014779,0.587516556359021
16300.0000000418,19.4201614587699,1.00000000176229,0.594269808937033
16400.0000000418,19.4358336422279,1.00000000163662,0.599821468343433
16500.0000000404,19.4509059496823,1.00000000164268,0.604586683946592
16600.0000000389,19.4652829161886,1.00000000168069,0.604124956215835
16700.0000000375,19.4773815042154,1.0000000016892,0.596300481179521
16800.000000036,19.4874185804975,1.00000000164808,0.588413819685296
16900.0000000346,19.4992852081147,1.00000000175018,0.593147874299111
17000.0000000331,19.510503864769,1.00000000167999,0.607908808103734
17100.0000000317,19.5217408838057,1.00000000160587,0.619899838020644
17200.0000000302,19.5334016967605,1.00000000182834,0.622847105041534
17300.0000000287,19.5416558998109,1.00000000168221,0.618263361355806
17400.0000000273,19.5452754209504,1.00000000181741,0.624364744563385
17500.0000000258,19.5434620163915,1.00000000175697,0.628154687600781
17600.0000000244,19.5397889679006,1.00000000174853,0.630185013991586
17700.0000000229,19.533883741127,1.00000000175402,0.64094553286066
17800.0000000215,19.526100421969,1.00000000165037,0.63765352455035
17900.00000002,19.5153572909689,1.00000000178986,0.638541821592142
18000.0000000186,19.5016315548139,1.00000000169016,0.641097671649109
18100.0000000171,19.4878330669891,1.00000000171473,0.636151797671366
18200.0000000156,19.4725005735239,1.00000000175638,0.640126284246997
18300.0000000142,19.4517287346854,1.00000000174002,0.628609165762215
18400.0000000127,19.4238752716169,1.0000000018437,0.634853259588291
18500.0000000113,19.3889031161521,1.00000000173656,0.627411086031733
18600.0000000098,19.3489185012338,1.00000000184042,0.628714261966273
18700.0000000084,19.3066640242834,1.00000000171201,0.626708549433883
18800.0000000069,19.2681821415923,1.00000000161064,0.617605869259422
18900.0000000055,19.2346992981501,1.00000000158016,0.617103952401467
19000.000000004,19.2075072219212,1.00000000164674,0.621053871299672
19100.0000000026,19.1861208435738,1.00000000165392,0.618917945323922
19200.0000000011,19.1718101712981,1.00000000160655,0.616575685241128
19299.9999999996,19.1646977455168,1.00000000166629,0.609977584472718
19399.9999999982,19.1655425824846,1.00000000171293,0.609204961581289
19499.9999999967,19.1706522339912,1.00000000177695,0.597966403369558
19599.9999999953,19.178829597551,1.0000000017498,0.597817333533885
19699.9999999938,19.1911966510899,1.00000000176663,0.60627174688809
19799.9999999924,19.2038767407494,1.00000000177428,0.607605701994541
19899.9999999909,19.2188751923276,1.00000000166848,0.610611087305566
19999.9999999895,19.2354719407685,1.00000000191997,0.610471924034078
20099.999999988,19.253067182107,1.00000000166262,0.609504982426878
20199.9999999865,19.2740252609891,1.0000000017419,0.607016660706655
20299.9999999851,19.2988160823635,1.0000000018554,0.599506391831595
20399.9999999836,19.3249109212958,1.00000000170726,0.60191623125533
20499.9999999822,19.35454329045,1.00000000174074,0.602704433282413
20599.9999999807,19.3836195435071,1.00000000176816,0.605162663043799
20699.9999999793,19.4089163738123,1.00000000194616,0.606080196990625
20799.9999999778,19.4321725212515,1.00000000174862,0.608405848438571
20899.9999999764,19.4586226715626,1.00000000164043,0.604405900943071
20999.9999999749,19.4856276897273,1.00000000194044,0.612543817387139
21099.9999999734,19.5064391119163,1.00000000186767,0.608147984611569
21199.999999972,19.5228940835806,1.00000000181466,0.617022736194232
21299.9999999705,19.5390885636252,1.0000000017904,0.618039217966058
21399.9999999691,19.557784239065,1.00000000177861,0.627132113465839
21499.9999999676,19.5767009451696,1.00000000175036,0.641333553062432
21599.9999999662,19.5932869500893,1.00000000180774,0.641535070167352
21699.9999999647,19.6055916840618,1.00000000190867,0.64361966614593
21799.9999999633,19.614237631414,1.00000000188332,0.647559992085451
21899.9999999618,19.6206839966064,1.00000000180416,0.645664991671461
21999.9999999603,19.6282407831238,1.00000000175526,0.643931593222318
22099.9999999589,19.6370818003615,1.00000000185809,0.644481882347708
22199.9999999574,19.6461411359606,1.00000000180277,0.643951937231513
22299.999999956,19.6549723967559,1.00000000182684,0.639391467335801
22399.9999999545,19.6590303833533,1.00000000195691,0.643020657213804
22499.9999999531,19.6611587742917,1.00000000170595,0.650510629801391
22599.9999999516,19.663659445996,1.00000000182951,0.644210215851586
22699.9999999502,19.6635727990339,1.00000000204121,0.652907175258666
22799.9999999487,19.6596291184881,1.00000000183278,0.653933603636867
22899.9999999473,19.6578280272004,1.00000000179444,0.658628961284511
22999.9999999458,19.6588641160846,1.00000000172186,0.640835593773857
23099.9999999443,19.6604530402801,1.00000000194716,0.640415750527376
23199.9999999429,19.6564130606914,1.00000000199722,0.647567921584101
23299.9999999414,19.6486535155914,1.00000000189925,0.647402178221743
23399.99999994,19.6402533340208,1.00000000197318,0.645994246295605
23499.9999999385,19.6276223952278,1.00000000197765,0.646249164157752
23599.9999999371,19.6122238047873,1.00000000189939,0.665150658047725
23699.9999999356,19.5963387847947,1.00000000186499,0.656163760842713
23799.9999999342,19.5791611851621,1.0000000019516,0.658038087768218
23899.9999999327,19.5600426572793,1.00000000182957,0.66407470142845
23999.9999999312,19.5394737729471,1.00000000178163,0.662595909568637
24099.9999999298,19.518129278538,1.00000000186338,0.655986314425255
24199.9999999283,19.4961731811964,1.00000000183079,0.654094252997888
24299.9999999269,19.4746078983014,1.00000000185454,0.65678682050616
24399.9999999254,19.4526283813543,1.00000000180022,0.654230722304834
24499.999999924,19.4299804861912,1.00000000200895,0.664201789614196
24599.9999999225,19.4048071066041,1.00000000203457,0.661897291286977
24699.9999999211,19.3773165906502,1.00000000200298,0.669345946947425
24799.9999999196,19.3452428947362,1.00000000206598,0.679867843185962
24899.9999999181,19.3094686220858,1.00000000194732,0.67249215487397
24999.9999999167,19.2723956335066,1.00000000197412,0.668158345662334
25099.9999999152,19.2359472466346,1.00000000190967,0.658654814161178
25199.9999999138,19.202392083595,1.00000000191701,0.644686391567755
25299.9999999123,19.1734916462284,1.00000000180592,0.643166201375287
25399.9999999109,19.1499861748535,1.00000000186172,0.643091979128391
25499.9999999094,19.1325854930905,1.00000000183711,0.654571080178453
25599.999999908,19.1208276980959,1.00000000187764,0.658272492974757
25699.9999999065,19.1139341844524,1.00000000185883,0.655617902932824
25799.9999999051,19.1139313436339,1.00000000176667,0.647191795514326
25899.9999999036,19.1188271472583,1.00000000182359,0.647290506134068
25999.9999999021,19.1286903145644,1.00000000184912,0.640303898030447
26099.9999999007,19.1419903674353,1.00000000198727,0.639849981860612
26199.9999998992,19.1577946173829,1.00000000200547,0.638334051228455
26299.9999998978,19.1768589144778,1.00000000198095,0.634833715330194
26399.9999998963,19.1983309277281,1.00000000201797,0.634348392571602
26499.9999998949,19.2216292859691,1.00000000200579,0.635788085636404
26599.9999998934,19.2468011233706,1.00000000196903,0.631705997002939
26699.999999892,19.2753698240898,1.00000000193244,0.627276082657603
26799.9999998905,19.3062079018033,1.00000000205786,0.627888963663148
26899.999999889,19.3376592498314,1.00000000200175,0.623964530381898
26999.9999998876,19.3736688938671,1.00000000185501,0.623127440600769
27099.9999998861,19.414658726145,1.00000000198749,0.619183302832439
27199.9999998847,19.4572168728946,1.00000000201382,0.618360870497795
27299.9999998832,19.4996661637864,1.00000000216889,0.623221287057209
27399.9999998818,19.5421194718628,1.00000000186899,0.624113187326635
27499.9999998803,19.5862442095802,1.00000000202556,0.627126443976607
27599.9999998789,19.6295588911135,1.00000000202043,0.627064462354507
27699.9999998774,19.6706664151889,1.00000000197305,0.624911152967936
27799.9999998759,19.7109833070109,1.000000002006,0.62426062974883
27899.9999998745,19.752759942048,1.00000000208067,0.616730353729326
27999.999999873,19.7950831450291,1.00000000204191,0.626202798838586
28099.9999998716,19.8341430126048,1.00000000218595,0.62573743287018
28199.9999998701,19.8717556000188,1.00000000201929,0.626466471570116
28299.9999998687,19.9075149047975,1.00000000210019,0.623570363495294
28399.9999998672,19.9433609625227,1.00000000215366,0.636855877347078
28499.9999998658,19.977703815225,1.00000000217477,0.643622630840355
28599.9999998643,20.0110020764812,1.00000000212229,0.649323769058427
28699.9999998629,20.0444652059704,1.00000000211843,0.647755866469403
28799.9999998614,20.0781591100875,1.0000000020785,0.647632417789752
28899.9999998599,20.1109900912413,1.0000000021825,0.651432774153956
28999.9999998585,20.1416771786875,1.00000000208078,0.659227641405163
