Time,AGPnorm,Energy,Entropy
0,0,1,-7.38160992950505e-17
99.9999999999986,0.000861645529959063,0.999999999998332,0.00300854256807985
199.999999999993,0.00601296671518383,1.00000000000055,0.00890885958268363
300,0.0121891616781663,1.00000000000302,0.0167764631409821
400.000000000022,0.0186957723443142,1.0000000000016,0.0266407820825399
500.000000000045,0.0267298135468902,0.999999999998424,0.0383715512159981
600.000000000068,0.0375166884408748,0.999999999999115,0.0517264045665688
700.000000000091,0.0481180116933779,1.00000000000225,0.0667795040555904
800.000000000113,0.0592052653291564,1.0000000000029,0.0836633808052578
900.000000000136,0.0714095103035722,0.999999999999646,0.102582449482618
1000.00000000016,0.0849517496517889,0.999999999998398,0.123700426918784
1100.0000000001,0.0979014360414972,1.00000000000163,0.148152897166425
1200,0.110681255882467,1.00000000000771,0.177018776866833
1299.99999999991,0.123778143343347,1.00000000002531,0.211715301639192
1399.99999999982,0.135821926482273,1.00000000007584,0.251574796095781
1499.99999999973,0.154346313351777,1.00000000018208,0.293916494629831
1599.99999999964,0.204611221295829,1.00000000034231,0.335153318352141
1699.99999999955,0.315763486459523,1.00000000048504,0.372998690091467
1799.99999999946,0.538552131127327,1.00000000066306,0.406027821337201
1899.99999999937,0.95348822872111,1.00000000086262,0.434524235472519
1999.99999999928,1.63648017012215,1.00000000093248,0.459526997602713
2099.99999999919,2.6488821088758,1.00000000111361,0.481335640292623
2199.99999999909,4.06226601028495,1.00000000120427,0.499697678483575
2299.999999999,5.92081072923926,1.00000000118228,0.51492778073117
2399.99999999891,8.20901379325529,1.00000000130782,0.527396151815201
2499.99999999882,10.9048759592142,1.00000000132932,0.538748804285783
2599.99999999873,14.0214827419443,1.00000000129469,0.547541201447444
2699.99999999864,17.5425805823589,1.00000000127363,0.554210528685216
2799.99999999855,21.3764596050696,1.00000000133979,0.559134978038629
2899.99999999846,25.4270021464762,1.00000000121689,0.564224184530528
2999.99999999837,29.6660644141092,1.00000000129765,0.567309575651774
3099.99999999828,34.0715896088147,1.00000000120819,0.56880073742701
3199.99999999819,38.5579595260013,1.00000000125732,0.569475891419747
3299.99999999809,43.0223156000343,1.00000000119781,0.570398632823155
3399.999999998,47.4144449452416,1.00000000120897,0.571312523084361
3499.99999999791,51.7278044623685,1.00000000114821,0.570830733353345
3599.99999999782,55.9239892145044,1.00000000115702,0.56933685733495
3699.99999999773,59.9319833778869,1.00000000104894,0.567609117246504
3799.99999999764,63.7074784582572,1.00000000106692,0.566623502693131
3899.99999999755,67.2429811202841,1.00000000104031,0.566756063311558
3999.99999999746,70.5387014241065,1.00000000099892,0.563296578963684
4099.99999999738,73.5762412629933,1.00000000091947,0.560531596945073
4199.99999999775,76.319602793543,1.00000000100806,0.561429038602123
4299.99999999811,78.7642766209601,1.00000000086784,0.557875329861228
4399.99999999848,80.9342034243572,1.00000000085308,0.556614464566495
4499.99999999884,82.8340582606965,1.00000000084783,0.555375691392497
4599.9999999992,84.4570023154275,1.00000000081863,0.550340812582642
4699.99999999957,85.8035763851555,1.00000000085365,0.555884340717333
4799.99999999993,86.8942023806495,1.00000000077993,0.549725069715845
4900.00000000029,87.7364238970184,1.00000000079304,0.546589459601773
5000.00000000066,88.3634796213841,1.00000000083686,0.560142923396728
5100.00000000102,88.7900542460026,1.00000000077725,0.543695926907595
5200.00000000139,88.9851963943574,1.00000000067448,0.538057840088556
5300.00000000175,89.0144518046758,1.00000000080426,0.565581394514489
5400.00000000211,88.9240624091971,1.00000000073413,0.544463941440592
5500.00000000248,88.6525713359542,1.0000000005738,0.516412956461531
5600.00000000284,88.2354214871057,1.00000000077814,0.559592140191965
5700.00000000321,87.7715406005167,1.00000000087217,0.564712875041605
5800.00000000357,87.2188406910394,1.00000000057427,0.509604095865774
5900.00000000393,86.51875335095,1.0000000005657,0.508026258049496
6000.0000000043,85.7683745767597,1.00000000096441,0.571519894758049
6100.00000000466,85.0380806579564,1.00000000088785,0.559707533361231
6200.00000000502,84.2542593752987,1.00000000054362,0.488064546409295
6300.00000000539,83.3582724650003,1.00000000051638,0.481099304119266
6400.00000000575,82.4347690015056,1.00000000098302,0.55988925334894
6500.00000000612,81.5608905023796,1.0000000010567,0.573041673841828
6600.00000000648,80.7030551379407,1.00000000070227,0.506201181622809
6700.00000000684,79.7805932452926,1.00000000042324,0.441570327927268
6800.00000000721,78.8024020574613,1.00000000066171,0.488621611125288
6900.00000000757,77.8428720771506,1.00000000101865,0.562389381997517
7000.00000000793,76.9411362084585,1.00000000100249,0.565487227509966
7100.0000000083,76.0652062776577,1.00000000076055,0.500854472669993
7200.00000000866,75.1611558278141,1.00000000046079,0.430291014156608
7300.00000000903,74.2239694807989,1.00000000052343,0.445518143681531
7400.00000000939,73.289362069156,1.00000000090755,0.521107820277525
7500.00000000975,72.3913741859219,1.00000000106128,0.560528917820758
7600.00000001012,71.5355629876193,1.00000000098893,0.542890737582726
7700.00000001048,70.6979044924739,1.00000000068662,0.486165332313975
7800.00000001084,69.8550490087921,1.00000000050773,0.433905065366587
7900.00000001121,69.0065040562182,1.00000000055605,0.438969451082746
8000.00000001157,68.1634825225208,1.00000000073531,0.484685662176869
8100.00000001194,67.3391090625099,1.00000000094545,0.53178350581928
8200.0000000123,66.541566822131,1.00000000100431,0.543365084354734
8300.00000001266,65.7689864503397,1.00000000087037,0.527942861214279
8400.00000001303,65.0115156825906,1.0000000006698,0.481409057810628
8500.00000001339,64.2645595878474,1.00000000054079,0.450354504940977
8600.00000001376,63.5318383466053,1.00000000058231,0.448756614732048
8700.00000001412,62.8146204432213,1.00000000065855,0.474676210852922
8800.00000001448,62.1131590473738,1.00000000073348,0.493175584222107
8900.00000001485,61.4265365233128,1.00000000086282,0.516111686189489
9000.00000001521,60.7534918354188,1.00000000094133,0.531995715030705
9100.00000001557,60.0938291234,1.00000000093953,0.533927320980604
9200.00000001594,59.4489750459164,1.00000000071479,0.505421905790157
9300.0000000163,58.8236448568157,1.00000000057522,0.463029668589572
9400.00000001667,58.2220177375618,1.00000000063306,0.45972360277202
9500.00000001703,57.6420211264416,1.00000000073906,0.470383918488196
9600.00000001739,57.0767707284285,1.00000000077412,0.495741074112152
9700.00000001776,56.5267819726183,1.00000000069536,0.493096342354834
9800.00000001812,55.9945023864738,1.00000000063267,0.490755573057689
9900.00000001848,55.4764167587827,1.00000000075754,0.509950647771968
10000.0000000188,54.9637948699924,1.00000000094888,0.530934158194694
10100.0000000192,54.4505873637658,1.00000000100002,0.535517934468292
10200.0000000196,53.9440056728089,1.00000000077152,0.515333567048318
10300.0000000199,53.4574609827755,1.00000000058601,0.478790134912963
10400.0000000203,53.0007772195821,1.00000000056586,0.457497806584265
10500.0000000207,52.5692550370139,1.00000000065241,0.465472503156367
10600.000000021,52.1512658534841,1.00000000087033,0.484676463662315
10700.0000000214,51.7387497447567,1.00000000089887,0.501545991112005
10800.0000000218,51.3343204650004,1.00000000077157,0.505910626409801
10900.0000000221,50.9458684107433,1.00000000062463,0.489065810883797
11000.0000000225,50.575879649273,1.00000000061952,0.491827504945577
11100.0000000229,50.2152026470016,1.00000000076957,0.512636038109957
11200.0000000232,49.8532711504922,1.00000000094591,0.528933523857447
11300.0000000236,49.4849653025933,1.00000000096447,0.540328806811725
11400.0000000239,49.1130870791561,1.00000000090358,0.534478489662938
11500.0000000243,48.7495815165774,1.00000000071317,0.513606873216724
11600.0000000247,48.4074845750014,1.00000000064531,0.486828860534699
11700.000000025,48.093745986502,1.00000000061765,0.475813822680479
11800.0000000254,47.8051562852341,1.00000000063931,0.47728319173427
11900.0000000258,47.5335107659949,1.00000000076883,0.486190231631856
12000.0000000261,47.2693815961692,1.00000000080393,0.500860877208974
12100.0000000265,47.0085799405725,1.00000000082292,0.498670676561095
12200.0000000269,46.7525174563603,1.00000000081917,0.508472415805514
12300.0000000272,46.5023857443681,1.0000000007704,0.522105680788425
12400.0000000276,46.2580737965505,1.00000000070993,0.523168973545733
12500.0000000279,46.0193012273608,1.00000000072123,0.53150366694166
12600.0000000283,45.7838799935755,1.00000000075479,0.534531611650111
12700.0000000287,45.5520337468214,1.00000000078797,0.530148185817605
12800.000000029,45.3215326763999,1.00000000079716,0.527812158773201
12900.0000000294,45.0885456407097,1.00000000093687,0.535333668340889
13000.0000000298,44.8477310114857,1.00000000091022,0.544156234075553
13100.0000000301,44.6065100685196,1.0000000008007,0.537551775030203
13200.0000000305,44.3808520538313,1.00000000067694,0.516278831740538
13300.0000000309,44.1816820072265,1.00000000058003,0.493286576077077
13400.0000000312,44.0077565700623,1.00000000065408,0.484856184378582
13500.0000000316,43.8485759612018,1.00000000077199,0.499710313191991
13600.0000000319,43.6957059501475,1.00000000077019,0.505988920213972
13700.0000000323,43.5495712016198,1.00000000075255,0.49821701985845
13800.0000000327,43.4123856271601,1.00000000075674,0.50438549506958
13900.000000033,43.2854649682993,1.00000000071446,0.509495007216571
14000.0000000334,43.1701165466678,1.00000000067313,0.507356899231456
14100.0000000338,43.0601293850885,1.00000000082427,0.518740155337881
14200.0000000341,42.9434657083088,1.00000000084373,0.536620653630459
14300.0000000345,42.8132733890953,1.00000000092335,0.551687708838663
14400.0000000349,42.6703597250555,1.00000000085584,0.555811756045592
14500.0000000352,42.5203703480277,1.00000000082605,0.559516563868805
14600.0000000356,42.3706099718241,1.00000000070988,0.554411513379895
14700.0000000359,42.2279057265406,1.00000000065951,0.543386313711399
14800.0000000363,42.092056708,1.00000000072481,0.537670881661827
14900.0000000367,41.9587512629556,1.00000000080518,0.533846471795951
15000.000000037,41.8220705501425,1.00000000087908,0.537332998293084
15100.0000000374,41.6795201391865,1.00000000091181,0.546114922850922
15200.0000000378,41.5313092587943,1.00000000087782,0.551319927200743
15300.0000000381,41.3854916595346,1.0000000007306,0.54356844288266
15400.0000000385,41.252341949756,1.000000000671,0.532665700776558
15500.0000000389,41.1400522525045,1.00000000062204,0.515801976496167
15600.0000000392,41.0494383857138,1.00000000065253,0.508860519171609
15700.0000000396,40.9768072774996,1.00000000070237,0.506686337065222
15800.0000000399,40.9157652836792,1.00000000079217,0.508014845219957
15900.0000000403,40.8573774303209,1.00000000083461,0.509957033976318
16000.0000000407,40.798503528301,1.00000000077808,0.507603756987703
16100.000000041,40.7461485791468,1.00000000070141,0.505408685526529
16200.0000000414,40.7035669087373,1.00000000074599,0.512949005351026
16300.0000000418,40.667112549158,1.00000000079225,0.525548403378821
16400.0000000418,40.6309636359335,1.00000000078059,0.541048740408661
16500.0000000404,40.5937020706132,1.00000000079353,0.546019715043161
16600.0000000389,40.5576070679152,1.00000000075725,0.545605028549713
16700.0000000375,40.5219271526306,1.00000000073975,0.548383165464432
16800.000000036,40.4861242032036,1.00000000078249,0.54698303554356
16900.0000000346,40.4453843942128,1.00000000080347,0.549674423562029
17000.0000000331,40.3945275465755,1.00000000082146,0.557543515136054
17100.0000000317,40.3305874789312,1.00000000088096,0.553789325197832
17200.0000000302,40.2532631850993,1.00000000082982,0.550788267986159
17300.0000000287,40.1631775360143,1.00000000082629,0.558483994535394
17400.0000000273,40.0647645136495,1.00000000077028,0.568300801128973
17500.0000000258,39.9649344801489,1.00000000077391,0.563862398512517
17600.0000000244,39.8692792607997,1.00000000067532,0.551505508415132
17700.0000000229,39.7801945662573,1.00000000067858,0.541973732453826
17800.0000000215,39.697343565187,1.00000000074096,0.536874169679835
17900.00000002,39.6171888863295,1.00000000078012,0.532864279710158
18000.0000000186,39.5364823120271,1.0000000008922,0.539064214387848
18100.0000000171,39.4535407389324,1.00000000083263,0.547940055604749
18200.0000000156,39.3648984103442,1.00000000083277,0.555016700863964
18300.0000000142,39.2733106511973,1.00000000085147,0.558969433695979
18400.0000000127,39.1880317592619,1.00000000074496,0.555401383215553
18500.0000000113,39.1165516947258,1.00000000068149,0.54298720619901
18600.0000000098,39.0630232895806,1.00000000070806,0.537423718295107
18700.0000000084,39.0276805867578,1.0000000006346,0.523508843636979
18800.0000000069,39.0078078567164,1.00000000072249,0.5200524363152
18900.0000000055,38.9974525492697,1.0000000007979,0.515234287613339
19000.000000004,38.9899830093131,1.00000000080617,0.522872346122105
19100.0000000026,38.9865139365754,1.00000000077222,0.521022202405259
19200.0000000011,38.989797649265,1.00000000074391,0.514658130227033
19299.9999999996,38.9984831595376,1.00000000074388,0.511312975888762
19399.9999999982,39.0118110711181,1.00000000074759,0.514360714729061
19499.9999999967,39.0294139629388,1.00000000079016,0.510528653815574
19599.9999999953,39.0517000138428,1.00000000074471,0.511870179729501
19699.9999999938,39.077179246751,1.00000000078129,0.522312421279574
19799.9999999924,39.100007905466,1.00000000079336,0.542169808319112
19899.9999999909,39.116538786736,1.00000000083877,0.554208890604651
19999.9999999895,39.1252187333781,1.0000000008261,0.557234406647507
20099.999999988,39.1283397998889,1.00000000075633,0.563546287368865
20199.9999999865,39.1314678415797,1.00000000078398,0.563520762218666
20299.9999999851,39.1363217911432,1.0000000007311,0.563102136204268
20399.9999999836,39.1394899829249,1.00000000076361,0.568302728233189
20499.9999999822,39.136885112537,1.00000000080414,0.578747066069324
20599.9999999807,39.1287316717275,1.00000000084338,0.589406213923693
20699.9999999793,39.1164337200986,1.00000000077058,0.59154855677009
20799.9999999778,39.0982003466473,1.00000000082528,0.592893148306289
20899.9999999764,39.07288497082,1.0000000008578,0.589000804423607
20999.9999999749,39.0427724133722,1.00000000073673,0.586285591333762
21099.9999999734,39.0074117957131,1.00000000080964,0.582288655732554
21199.999999972,38.9647897168654,1.00000000081697,0.57348526731802
21299.9999999705,38.9133945445179,1.00000000082695,0.566298614431064
21399.9999999691,38.8515844830908,1.00000000084842,0.57104092309444
21499.9999999676,38.7801886126509,1.00000000086374,0.585091757880157
21599.9999999662,38.7011475710827,1.00000000079117,0.585803264997834
21699.9999999647,38.6182911925759,1.00000000073706,0.585657763135509
21799.9999999633,38.5361900285878,1.00000000071466,0.584488280175247
21899.9999999618,38.457502049881,1.00000000071704,0.582978907848919
21999.9999999603,38.3832091061193,1.00000000071488,0.581489594897378
22099.9999999589,38.3137270421659,1.00000000069537,0.581491930108993
22199.9999999574,38.2471850123636,1.00000000074986,0.575950516598438
22299.999999956,38.1837161799523,1.00000000081168,0.572964351553887
22399.9999999545,38.1221765228435,1.0000000008552,0.574484823488055
22499.9999999531,38.0614912276624,1.0000000008604,0.575794290931937
22599.9999999516,38.0006402001689,1.00000000088973,0.572414392706395
22699.9999999502,37.9382546297905,1.00000000089321,0.567758828686575
22799.9999999487,37.8746897327523,1.00000000085341,0.569065967100191
22899.9999999473,37.8114522929082,1.00000000079685,0.565146614377942
22999.9999999458,37.7530618973244,1.00000000075586,0.565095079581255
23099.9999999443,37.7047824919251,1.00000000069149,0.561964852651541
23199.9999999429,37.671046123201,1.00000000072478,0.55946792170073
23299.9999999414,37.6528093390307,1.000000000689,0.55122690035409
23399.99999994,37.6482423863603,1.00000000077741,0.54777011268465
23499.9999999385,37.6552158415203,1.00000000073266,0.544495359111141
23599.9999999371,37.6697203598982,1.00000000081971,0.541034234310261
23699.9999999356,37.6885057573482,1.00000000080162,0.537038476425618
23799.9999999342,37.711625336479,1.00000000080845,0.532980017266133
23899.9999999327,37.7400472440141,1.00000000073619,0.530269898337033
23999.9999999312,37.7738953310091,1.00000000078578,0.532306265113104
24099.9999999298,37.8116551768042,1.00000000079226,0.53325429483052
24199.9999999283,37.8536474281642,1.00000000074793,0.532126120295222
24299.9999999269,37.9008714042665,1.00000000078219,0.529953514989122
24399.9999999254,37.9520903341561,1.00000000078019,0.531762012090575
24499.999999924,38.0057300361392,1.00000000078684,0.538213475975653
24599.9999999225,38.0584376932062,1.00000000079398,0.544116719135635
24699.9999999211,38.107179460935,1.00000000087109,0.5576790043266
24799.9999999196,38.1518960569827,1.00000000084523,0.56939374217102
24899.9999999181,38.192597227891,1.00000000077783,0.574517633454921
24999.9999999167,38.2286423944303,1.00000000083708,0.580296578495182
25099.9999999152,38.2592494811387,1.00000000083673,0.586110267220662
25199.9999999138,38.2853317418131,1.00000000082021,0.590995858739554
25299.9999999123,38.307251193372,1.00000000077689,0.588353335879221
25399.9999999109,38.3268605246541,1.00000000082059,0.591728279600605
25499.9999999094,38.3458330243598,1.00000000077191,0.59286124196359
25599.999999908,38.3643625173665,1.00000000083129,0.599033513945272
25699.9999999065,38.3814072344465,1.00000000086806,0.600483048402122
25799.9999999051,38.3967226293904,1.00000000083704,0.594460743633597
25899.9999999036,38.4091603670029,1.00000000081525,0.594361738229568
25999.9999999021,38.416141840732,1.00000000087895,0.592764626003113
26099.9999999007,38.4175923874854,1.00000000083936,0.599698229895304
26199.9999998992,38.4139468412949,1.00000000081169,0.607228618841112
26299.9999998978,38.407113873175,1.00000000080552,0.602941616001347
26399.9999998963,38.3989370284665,1.000000000782,0.605824782129195
26499.9999998949,38.3888043585897,1.00000000081635,0.605316805234039
26599.9999998934,38.3763706501787,1.00000000081738,0.608845240894637
26699.999999892,38.3618832315773,1.00000000083396,0.60196792802219
26799.9999998905,38.34561160646,1.00000000080451,0.59366793531798
26899.999999889,38.3258429280054,1.00000000082517,0.591481551643451
26999.9999998876,38.3027416061754,1.00000000083119,0.589450834422211
27099.9999998861,38.2764324315931,1.00000000085064,0.593083528739832
27199.9999998847,38.2444033788322,1.00000000086765,0.597878390012007
27299.9999998832,38.2079728914608,1.00000000092028,0.599922119431254
27399.9999998818,38.1702649963482,1.00000000079876,0.6013420974984
27499.9999998803,38.1329403210743,1.00000000078833,0.601586494009004
27599.9999998789,38.0961364679647,1.00000000081426,0.603118556919802
27699.9999998774,38.0583578505453,1.00000000083885,0.608872426576102
27799.9999998759,38.0174538979572,1.00000000085669,0.613470678165328
27899.9999998745,37.973611638071,1.00000000081593,0.608624572013499
27999.999999873,37.9281250354171,1.00000000077869,0.601217890361639
28099.9999998716,37.8806763727463,1.0000000008338,0.602478701057747
28199.9999998701,37.8302475465226,1.00000000082204,0.602399092543934
28299.9999998687,37.7765651552125,1.00000000086784,0.605813874772011
28399.9999998672,37.7197519230958,1.00000000082279,0.608411737134348
28499.9999998658,37.6591776664613,1.00000000089698,0.609357888781756
28599.9999998643,37.5942121173354,1.00000000089685,0.61066094771589
28699.9999998629,37.5245601415471,1.00000000089265,0.613462762702262
28799.9999998614,37.4513320743557,1.00000000090403,0.618206677368245
28899.9999998599,37.3753666414413,1.00000000087576,0.624382791491794
28999.9999998585,37.2972806264901,1.00000000081537,0.62431671326874
