Time,AGPnorm,Energy,Entropy
0,0,1,2.66952208651241e-18
99.9999999999986,0.0144244666870907,0.999999999997731,0.0356148393925543
199.999999999993,0.0356103363846764,1.00000000000135,0.107089750593216
300,0.0652921455973126,1.00000000009357,0.230448286974821
400.000000000022,0.12879868802692,1.00000000199501,0.410215122615693
500.000000000045,0.574586921442215,1.00000000425575,0.528549048939126
600.000000000068,1.75883812720782,1.00000000506812,0.584614677627584
700.000000000091,3.65614329194176,1.00000000531024,0.601034285127979
800.000000000113,5.70128537114568,1.00000000485894,0.604600193712614
900.000000000136,7.61992196665335,1.00000000425499,0.593781962253082
1000.00000000016,9.06879833753305,1.00000000398933,0.586557005057074
1100.0000000001,10.0249902060108,1.00000000354078,0.572897353467592
1200,10.4889959336259,1.00000000312561,0.575472853616675
1299.99999999991,10.5555205132266,1.00000000316375,0.569910339183258
1399.99999999982,10.3681876612557,1.00000000275419,0.536376772559565
1499.99999999973,10.060076499092,1.00000000213296,0.491060485092062
1599.99999999964,9.6909002675052,1.00000000375662,0.553051255423628
1699.99999999955,9.26248231037557,1.00000000325523,0.515189976351789
1799.99999999946,8.86418813813491,1.00000000259049,0.481789294394836
1899.99999999937,8.45237491196945,1.00000000333362,0.504680596387767
1999.99999999928,8.06995285610176,1.0000000035288,0.518582511012984
2099.99999999919,7.72139742336593,1.00000000297747,0.484068022554551
2199.99999999909,7.38064428023926,1.00000000377302,0.546807893229768
2299.999999999,7.0708051864254,1.00000000297192,0.505521347600674
2399.99999999891,6.81711850037659,1.0000000031178,0.486883177839123
2499.99999999882,6.56537739414092,1.00000000301643,0.517019410722691
2599.99999999873,6.3275291725451,1.00000000389394,0.555162827721266
2699.99999999864,6.11664904533957,1.00000000265443,0.493617527183586
2799.99999999855,5.96920996203829,1.00000000297159,0.495343472463058
2899.99999999846,5.8125730004947,1.00000000332402,0.548819761856873
2999.99999999837,5.66866377045766,1.00000000332927,0.558265361374129
3099.99999999828,5.51973508987399,1.00000000375325,0.566199101481343
3199.99999999819,5.37522754001658,1.00000000354344,0.542501519952151
3299.99999999809,5.30073206872775,1.00000000234042,0.485019144310265
3399.999999998,5.25085259293898,1.00000000358983,0.547691797841443
3499.99999999791,5.18901407857836,1.0000000036935,0.556887101610565
3599.99999999782,5.13192992382853,1.00000000334669,0.570038594393066
3699.99999999773,5.06111540874178,1.00000000381633,0.591999627524723
3799.99999999764,4.97571829170247,1.00000000320697,0.6013416463927
3899.99999999755,4.88979468684037,1.00000000365729,0.581774041059392
3999.99999999746,4.80674606185854,1.00000000360746,0.559933957528758
4099.99999999738,4.78305221307672,1.00000000261473,0.513536119079099
4199.99999999775,4.81387719281547,1.00000000353861,0.546533929600805
4299.99999999811,4.82909629923741,1.00000000354447,0.567841317969121
4399.99999999848,4.8399236864854,1.00000000336226,0.576277546098497
4499.99999999884,4.83550159439317,1.00000000397893,0.606619387926557
4599.9999999992,4.82813940279573,1.00000000364427,0.603266071136246
4699.99999999957,4.81986289116201,1.00000000390162,0.640037361615382
4799.99999999993,4.7971216617088,1.00000000346957,0.618383717087215
4900.00000000029,4.76127126775637,1.00000000399053,0.634655426807853
5000.00000000066,4.71259375276294,1.00000000381163,0.638080417428468
5100.00000000102,4.66098390926673,1.00000000385826,0.643456481963211
5200.00000000139,4.60811030057199,1.00000000414903,0.634042135061123
5300.00000000175,4.55734603653172,1.00000000404431,0.597936269087672
5400.00000000211,4.53091790971943,1.00000000317954,0.561197599856072
5500.00000000248,4.57582098816459,1.00000000314968,0.547379576961895
5600.00000000284,4.65973831018101,1.00000000369768,0.574039831928608
5700.00000000321,4.73331345797156,1.00000000408184,0.594254298670386
5800.00000000357,4.79620399220721,1.00000000383992,0.602283064751098
5900.00000000393,4.8511117833134,1.0000000039539,0.616796811082188
6000.0000000043,4.89558980587847,1.0000000036633,0.63507094046826
6100.00000000466,4.92764211217429,1.00000000404889,0.653686984968966
6200.00000000502,4.94456483220628,1.00000000402502,0.655712307723188
6300.00000000539,4.95617690665144,1.00000000426274,0.668807713891236
6400.00000000575,4.95988760964593,1.0000000041043,0.658751188142677
6500.00000000612,4.97048132918171,1.00000000363956,0.653558063339342
6600.00000000648,4.98147834562122,1.00000000385689,0.678791560880154
6700.00000000684,4.98370188869778,1.00000000406705,0.643178668200312
6800.00000000721,4.97975809919041,1.00000000383403,0.654568185046394
6900.00000000757,4.97948568328697,1.00000000392091,0.667972014257889
7000.00000000793,4.97253511935438,1.00000000473162,0.677105548148972
7100.0000000083,4.95775229100991,1.0000000038175,0.679981534370731
7200.00000000866,4.94311067280821,1.00000000418731,0.658979622218493
7300.00000000903,4.92554073747387,1.00000000454431,0.668889778565183
7400.00000000939,4.89927475256228,1.00000000435391,0.683798284636798
7500.00000000975,4.86217699536177,1.00000000442884,0.67630620767116
7600.00000001012,4.82312785852181,1.00000000405966,0.682404176890927
7700.00000001048,4.78395660536909,1.00000000442327,0.680494203018606
7800.00000001084,4.74824918420406,1.00000000448808,0.676903461349163
7900.00000001121,4.71569385446099,1.00000000485914,0.677018782451356
8000.00000001157,4.68712648914482,1.0000000044444,0.620958402090284
8100.00000001194,4.67842745990416,1.00000000368126,0.583152449745651
8200.0000000123,4.72450832699044,1.000000003605,0.573517348403657
8300.00000001266,4.83029574314814,1.00000000401442,0.580998860365007
8400.00000001303,4.96470765808182,1.00000000435418,0.591409032663788
8500.00000001339,5.10238978362251,1.00000000435411,0.596109657970717
8600.00000001376,5.23381445031052,1.00000000467925,0.610212090460498
8700.00000001412,5.36128529237599,1.00000000473541,0.609351315950517
8800.00000001448,5.47816367700849,1.00000000421715,0.610174076392827
8900.00000001485,5.58552250402404,1.00000000506881,0.630138841413917
9000.00000001521,5.68313794031833,1.00000000448601,0.64672980442694
9100.00000001557,5.77066290072528,1.00000000462445,0.66328947788105
9200.00000001594,5.85552257584248,1.00000000491362,0.674208683866551
9300.0000000163,5.93104437195769,1.00000000478126,0.658085909464471
9400.00000001667,5.99420071004269,1.00000000442597,0.674301067262943
9500.00000001703,6.04719724596685,1.00000000458836,0.694979841025499
9600.00000001739,6.10224808075852,1.00000000445545,0.683570910451696
9700.00000001776,6.15527718913029,1.00000000454359,0.686808366342126
9800.00000001812,6.210759359078,1.00000000488281,0.705208754913927
9900.00000001848,6.2499257482419,1.00000000459251,0.704625319559542
10000.0000000188,6.29496108307149,1.00000000456499,0.708084570287935
10100.0000000192,6.33286092066856,1.0000000046969,0.69764671266696
10200.0000000196,6.37091762291766,1.00000000465673,0.700890835412425
10300.0000000199,6.39725286212618,1.00000000484285,0.690876374886965
10400.0000000203,6.42038846267088,1.00000000448947,0.707085315377843
10500.0000000207,6.44660019985973,1.00000000431798,0.683102381433286
10600.000000021,6.46668334237484,1.00000000488278,0.683690403320098
10700.0000000214,6.4976692204384,1.00000000433509,0.673478032808891
10800.0000000218,6.53536232195241,1.00000000444316,0.696244262188502
10900.0000000221,6.58251897750909,1.00000000462392,0.6989124341008
11000.0000000225,6.63408116097213,1.00000000477775,0.695092296017112
11100.0000000229,6.68310805523355,1.00000000494512,0.690696711300465
11200.0000000232,6.74046961049414,1.00000000456468,0.669870227392486
11300.0000000236,6.78939144335735,1.00000000509824,0.671858598125522
11400.0000000239,6.83690770438932,1.0000000042377,0.667570346261046
11500.0000000243,6.89899235429288,1.00000000514765,0.710833886841122
11600.0000000247,6.94158309371723,1.00000000547241,0.698483292446339
11700.000000025,6.98300234110861,1.0000000050174,0.714546802956276
11800.0000000254,7.02606367588534,1.00000000447527,0.704890252160703
11900.0000000258,7.06654312803937,1.00000000519215,0.698819732881878
12000.0000000261,7.10129970739599,1.00000000515091,0.666430824151145
12100.0000000265,7.15036876090867,1.00000000496131,0.668622009689123
12200.0000000269,7.19742010802902,1.00000000490227,0.701908661758617
12300.0000000272,7.24300457145994,1.00000000502249,0.694663448753203
12400.0000000276,7.28775841648352,1.00000000495867,0.679951001187031
12500.0000000279,7.33097784359902,1.00000000555691,0.692445566355448
12600.0000000283,7.37035175648848,1.00000000492084,0.69641211357107
12700.0000000287,7.40551141613031,1.00000000558994,0.702468273844824
12800.000000029,7.44617412209479,1.00000000471879,0.687083780996526
12900.0000000294,7.49237723562653,1.00000000507593,0.710740208663666
13000.0000000298,7.53635111412024,1.00000000517973,0.700868605984073
13100.0000000301,7.57466059057205,1.00000000505985,0.705002385626186
13200.0000000305,7.60596050058371,1.00000000554915,0.710864562249303
13300.0000000309,7.63847178711698,1.00000000495233,0.709552684498545
13400.0000000312,7.67772263221264,1.00000000487579,0.715010207089534
13500.0000000316,7.70999875429891,1.00000000549926,0.713112249926598
13600.0000000319,7.74646099685808,1.00000000491819,0.694174828992718
13700.0000000323,7.78095499498092,1.00000000528603,0.706032642592464
13800.0000000327,7.80526831211566,1.00000000586052,0.706600042227503
13900.000000033,7.81901132218211,1.00000000567634,0.710601611127884
14000.0000000334,7.84158389692544,1.00000000511339,0.713812987671364
14100.0000000338,7.86407757308247,1.00000000584563,0.725491845926887
14200.0000000341,7.88589116222732,1.00000000583936,0.715915477730616
14300.0000000345,7.90728729717105,1.0000000052599,0.711127101458078
14400.0000000349,7.92896641994011,1.00000000536235,0.707045914527502
14500.0000000352,7.9380271743373,1.00000000587363,0.692495102630674
14600.0000000356,7.94429818384181,1.00000000574425,0.680474352771866
14700.0000000359,7.94901947054893,1.00000000578015,0.726543161859059
14800.0000000363,7.94209339098314,1.00000000534451,0.719046011383758
14900.0000000367,7.93469184139916,1.00000000560292,0.710602048287501
15000.000000037,7.92157660889847,1.00000000567331,0.713966984391447
15100.0000000374,7.90188696022003,1.00000000550325,0.706678147009137
15200.0000000378,7.88176459646284,1.00000000562703,0.714646651716864
15300.0000000381,7.85746801299805,1.00000000533224,0.713820530827186
15400.0000000385,7.83510569312466,1.00000000599033,0.72113313062714
15500.0000000389,7.81480803165901,1.00000000570753,0.711383835396135
15600.0000000392,7.79967941523683,1.00000000563276,0.735619388648493
15700.0000000396,7.79147493397986,1.00000000645157,0.722608043058578
15800.0000000399,7.78490684847439,1.00000000538425,0.720030882727716
15900.0000000403,7.78677446927047,1.00000000557063,0.704141738747504
16000.0000000407,7.79267020773867,1.00000000585757,0.699510918711234
16100.000000041,7.82380840520872,1.00000000522432,0.679899252315879
16200.0000000414,7.87929657673149,1.00000000497791,0.661544254249524
16300.0000000418,7.97822962444805,1.00000000504983,0.651303017769733
16400.0000000418,8.12332091015312,1.00000000509376,0.634764875212384
16500.0000000404,8.33579690662844,1.00000000546953,0.645469425002639
16600.0000000389,8.59393008373168,1.0000000055491,0.641190335347797
16700.0000000375,8.90162396233115,1.00000000567945,0.649081404738912
16800.000000036,9.21363619141205,1.00000000607459,0.655301188687486
16900.0000000346,9.54993372025365,1.0000000055128,0.653876030514674
17000.0000000331,9.86817809671417,1.00000000581824,0.659544500514098
17100.0000000317,10.2027777766552,1.00000000631679,0.661888601278777
17200.0000000302,10.5284179441175,1.00000000658035,0.670532935741612
17300.0000000287,10.8607746954018,1.00000000615755,0.661478838234671
17400.0000000273,11.1953802471694,1.00000000604432,0.667174211321365
17500.0000000258,11.526612600769,1.00000000613361,0.661597338129532
17600.0000000244,11.8826212163567,1.0000000057351,0.668132032850295
17700.0000000229,12.2485741867825,1.00000000636846,0.685284969491943
17800.0000000215,12.6362514579558,1.00000000610376,0.684840170366345
17900.00000002,13.0290488860693,1.00000000600411,0.704919887028938
18000.0000000186,13.4130277661866,1.00000000642718,0.703125311761001
18100.0000000171,13.7983701801895,1.00000000632198,0.716219236565015
18200.0000000156,14.1779121472943,1.00000000703986,0.712237259120615
18300.0000000142,14.5688290218783,1.00000000663072,0.731007056696448
18400.0000000127,14.92803093388,1.00000000693092,0.735955867429564
18500.0000000113,15.2919892351372,1.00000000624831,0.715619879944136
18600.0000000098,15.6433675155738,1.00000000712007,0.732400173077764
18700.0000000084,15.9961045380932,1.00000000712972,0.735026506460503
18800.0000000069,16.3481419177437,1.00000000671247,0.732618499597556
18900.0000000055,16.6803526442196,1.00000000698731,0.726506285903375
19000.000000004,17.0057440127905,1.00000000793061,0.741250574709897
19100.0000000026,17.3220492288691,1.00000000711571,0.73329969304904
19200.0000000011,17.651330857275,1.00000000632753,0.724802002330588
19299.9999999996,17.9850696672049,1.00000000716818,0.726077166695787
19399.9999999982,18.3225648682781,1.00000000735022,0.723374071291499
19499.9999999967,18.6522952887063,1.00000000699003,0.753454421566936
19599.9999999953,18.9821741591197,1.00000000703121,0.736798887793825
19699.9999999938,19.3280847914006,1.00000000704965,0.742710908436273
19799.9999999924,19.6971713791592,1.00000000700885,0.738558095758105
19899.9999999909,20.0837426668371,1.0000000074186,0.739336967637429
19999.9999999895,20.4669608245011,1.00000000663372,0.740381246859727
20099.999999988,20.8549573800728,1.0000000073261,0.744766908636568
20199.9999999865,21.2486610155813,1.00000000652458,0.744967547693098
20299.9999999851,21.6533807368833,1.000000007248,0.743202248407544
20399.9999999836,22.0746561688621,1.00000000667155,0.742710677516466
20499.9999999822,22.4857116522711,1.00000000687068,0.742556133104657
20599.9999999807,22.8915994003788,1.00000000693631,0.744089883652799
20699.9999999793,23.3026715847406,1.00000000728498,0.742859408508525
20799.9999999778,23.7153260572484,1.00000000771314,0.745237877888196
20899.9999999764,24.1353923536163,1.00000000707618,0.75240325751996
20999.9999999749,24.5567240573294,1.00000000701265,0.735311304754044
21099.9999999734,25.0028621879145,1.0000000068345,0.733938715881123
21199.999999972,25.4466375874563,1.00000000723115,0.738496968673292
21299.9999999705,25.8971899879101,1.00000000742422,0.743949294676344
21399.9999999691,26.3473238874952,1.00000000769239,0.744870129312351
21499.9999999676,26.7949998197499,1.00000000775978,0.726726379736011
21599.9999999662,27.2567927626369,1.00000000763458,0.715719229426031
21699.9999999647,27.7074243519512,1.00000000785337,0.742031394540806
21799.9999999633,28.1453528840088,1.00000000781851,0.739742752378767
21899.9999999618,28.5871807409244,1.00000000701997,0.734429459397202
21999.9999999603,29.0396086437578,1.00000000712198,0.744746834422674
22099.9999999589,29.4903847539407,1.00000000787908,0.745463339778854
22199.9999999574,29.9518580250808,1.0000000070213,0.728263507338234
22299.999999956,30.4362277195696,1.00000000744386,0.724436646328676
22399.9999999545,30.9338659869457,1.000000007623,0.736648480543288
22499.9999999531,31.4315000202724,1.0000000077478,0.745692564366831
22599.9999999516,31.9282158392594,1.00000000790875,0.738408493267087
22699.9999999502,32.415401769593,1.00000000697192,0.738357970222227
22799.9999999487,32.9110179659075,1.00000000754739,0.739756084147216
22899.9999999473,33.3980431229344,1.00000000804128,0.742832351128549
22999.9999999458,33.8930645859937,1.00000000781731,0.734694611025308
23099.9999999443,34.4150896520519,1.00000000761968,0.731095384904405
23199.9999999429,34.9548161987515,1.00000000754263,0.740906194629252
23299.9999999414,35.4811202986965,1.00000000789547,0.749089475871111
23399.99999994,35.9791862327186,1.0000000080054,0.740617034265179
23499.9999999385,36.4707886701661,1.00000000821745,0.737273482606773
23599.9999999371,36.9697911520717,1.00000000784956,0.745136950892091
23699.9999999356,37.4812115984931,1.00000000693257,0.737597441006327
23799.9999999342,38.0255568607223,1.00000000761701,0.73775247792302
23899.9999999327,38.5984318079197,1.00000000727896,0.738873535023261
23999.9999999312,39.1808421527374,1.00000000802169,0.738240685693015
24099.9999999298,39.7633817293361,1.00000000785719,0.739210798046413
24199.9999999283,40.3375651522567,1.00000000796925,0.749202637192271
24299.9999999269,40.9072528379934,1.00000000814758,0.747773968035755
24399.9999999254,41.4681914269619,1.00000000874691,0.756083633636158
24499.999999924,42.0224125149673,1.00000000828124,0.749793406777992
24599.9999999225,42.5767784032525,1.00000000752837,0.737346111095976
24699.9999999211,43.1456109708094,1.00000000771553,0.741682534218208
24799.9999999196,43.7381417083428,1.00000000798482,0.730283439953183
24899.9999999181,44.3337714763952,1.00000000862671,0.735592057933547
24999.9999999167,44.921595193914,1.00000000820337,0.745194840740567
25099.9999999152,45.5308436602825,1.00000000747231,0.732866272323612
25199.9999999138,46.151512766125,1.00000000832677,0.747381130235198
25299.9999999123,46.7766965857203,1.00000000792549,0.74553339697496
25399.9999999109,47.3961687550234,1.00000000789973,0.744482926704533
25499.9999999094,48.0213240128874,1.00000000839635,0.747331195374617
25599.999999908,48.6483888737119,1.00000000814594,0.747969984297996
25699.9999999065,49.2810292507473,1.00000000859757,0.751783397935814
25799.9999999051,49.920127447738,1.00000000822087,0.733989011922827
25899.9999999036,50.5647520162316,1.0000000081839,0.74920390417502
25999.9999999021,51.2161947928792,1.00000000791302,0.742346520914565
26099.9999999007,51.8786838969339,1.0000000079627,0.747255681773001
26199.9999998992,52.5555282748589,1.00000000856688,0.750669355307436
26299.9999998978,53.2402566250837,1.00000000861326,0.750607978703094
26399.9999998963,53.9157811041423,1.00000000851387,0.742864218181062
26499.9999998949,54.5832023434781,1.00000000839895,0.753955439744872
26599.9999998934,55.2433533301519,1.00000000865963,0.759150935263033
26699.999999892,55.8913296226478,1.00000000927909,0.74434969975329
26799.9999998905,56.5377096718574,1.00000000854327,0.749387667700395
26899.999999889,57.1997925911279,1.00000000857077,0.742559451109262
26999.9999998876,57.872313828695,1.0000000095294,0.746656938375266
27099.9999998861,58.5497370750439,1.00000000797075,0.744757907626027
27199.9999998847,59.2377164513903,1.00000000834268,0.752882802260161
27299.9999998832,59.9312217828818,1.00000000855275,0.741952593778804
27399.9999998818,60.6467321902845,1.00000000863004,0.741019145166062
27499.9999998803,61.3762093237914,1.00000000821215,0.747113348945076
27599.9999998789,62.1072796179636,1.0000000086184,0.749643068325662
27699.9999998774,62.8288039940832,1.00000000877225,0.755390064421912
27799.9999998759,63.5549114067811,1.0000000081063,0.749891538833702
27899.9999998745,64.2746860061611,1.00000000913131,0.746636942013259
27999.999999873,64.9974488589886,1.00000000940325,0.756874555550404
28099.9999998716,65.7108870491097,1.00000000888741,0.752995901571738
28199.9999998701,66.4248848894901,1.00000000877532,0.744189490059055
28299.9999998687,67.1447889565692,1.00000000816448,0.75168962695107
28399.9999998672,67.8579238697878,1.00000000970948,0.753087778355425
28499.9999998658,68.5715169428967,1.00000000846973,0.755388259567221
28599.9999998643,69.2945250745332,1.00000000836574,0.757692209118557
28699.9999998629,70.0322615535764,1.00000000937462,0.749327021985112
28799.9999998614,70.7880590020421,1.00000000886434,0.7590841596768
28899.9999998599,71.5556122022106,1.00000000842567,0.745240303562326
28999.9999998585,72.3496272809763,1.00000000854261,0.756030892414466
