Time,AGPnorm,Energy,Entropy
0,0,1,-1.29738773404503e-17
99.9999999999986,2.33581118526023e-05,1.00000000000182,0.00100326109184539
199.999999999993,0.00200741476041106,1.00000000000068,0.00156299963696465
300,0.00509854016964719,1.00000000000066,0.00281402720345707
400.000000000022,0.00695993915353311,1.00000000000185,0.00477640303753297
500.000000000045,0.00850731068630087,0.999999999999992,0.00641969897023784
600.000000000068,0.0123033149070085,1.00000000000166,0.0089714382681821
700.000000000091,0.0151953230920906,1.00000000000093,0.011426348923206
800.000000000113,0.0193880839667413,1.00000000000043,0.0141573280361065
900.000000000136,0.0242810051595447,1.00000000000195,0.0173767571122198
1000.00000000016,0.0285799474595289,1.00000000000006,0.0203985773110719
1100.0000000001,0.0342230356591248,1.00000000000146,0.0239877208049094
1200,0.0397080730021852,1.00000000000118,0.027619779826224
1299.99999999991,0.0456281154296643,1.00000000000024,0.0314192036121147
1399.99999999982,0.0525192236064309,1.000000000002,0.0356063329375209
1499.99999999973,0.0593151117743785,1.00000000000019,0.039698296718621
1599.99999999964,0.0666376397971031,1.00000000000119,0.0442220798861645
1699.99999999955,0.0740240523417249,1.00000000000142,0.0488609781132665
1799.99999999946,0.0815580323113056,1.00000000000013,0.0536400799462566
1899.99999999937,0.0898707703347884,1.00000000000202,0.0587943651914197
1999.99999999928,0.0982688634047149,1.00000000000038,0.0639403271198547
2099.99999999919,0.106736230331452,1.00000000000086,0.0694749742758355
2199.99999999909,0.115553351643333,1.00000000000163,0.0751865792088979
2299.999999999,0.124556505008649,1.00000000000011,0.0810709156314553
2399.99999999891,0.133706837130923,1.00000000000196,0.0873913933421652
2499.99999999882,0.142856246169642,1.00000000000059,0.093802093338198
2599.99999999873,0.151898131284754,1.00000000000057,0.100628627231491
2699.99999999864,0.161602134326384,1.00000000000182,0.107786354217205
2799.99999999855,0.171586532832917,1.00000000000011,0.115242545266896
2899.99999999846,0.181089806153297,1.00000000000172,0.123278865113705
2999.99999999837,0.190435600070653,1.00000000000088,0.131617551160722
3099.99999999828,0.199773035138936,1.00000000000061,0.140579142947745
3199.99999999819,0.209777329489237,1.00000000000245,0.150300038149769
3299.99999999809,0.219705692208066,1.00000000000145,0.160692180196559
3399.999999998,0.229277919969723,1.00000000000425,0.172146288673161
3499.99999999791,0.238122676657216,1.00000000000766,0.184416832426605
3599.99999999782,0.247799174469185,1.00000000001342,0.197635233291192
3699.99999999773,0.258786328414559,1.00000000002526,0.211825336191406
3799.99999999764,0.267122361550908,1.00000000003815,0.226424703873786
3899.99999999755,0.281101489459051,1.00000000005807,0.241432738648186
3999.99999999746,0.293800543021053,1.00000000008341,0.256409005182718
4099.99999999738,0.31281822469098,1.00000000010767,0.271288877176765
4199.99999999775,0.346687594747478,1.00000000013671,0.286090449408642
4299.99999999811,0.382183383953343,1.00000000017371,0.300301511504207
4399.99999999848,0.449957056666095,1.00000000020589,0.314284216811758
4499.99999999884,0.54060624855747,1.00000000023514,0.32799009543764
4599.9999999992,0.666047091371863,1.00000000027998,0.341221398911417
4699.99999999957,0.854172225314383,1.00000000031111,0.354229779319397
4799.99999999993,1.08657902832038,1.00000000034701,0.366531509525311
4900.00000000029,1.40816262634183,1.00000000037981,0.378526834132358
5000.00000000066,1.81783167810541,1.0000000004116,0.390049666390383
5100.00000000102,2.32400849219978,1.00000000043227,0.401249766397711
5200.00000000139,2.96627787144143,1.00000000046892,0.411920961906925
5300.00000000175,3.72785508369413,1.00000000049386,0.422029419407336
5400.00000000211,4.64846616968983,1.00000000052051,0.431876771615388
5500.00000000248,5.73351008182552,1.00000000053053,0.441352316987755
5600.00000000284,6.98715503985558,1.00000000056434,0.450121163442439
5700.00000000321,8.44195406156683,1.0000000006047,0.458540447911147
5800.00000000357,10.0843779274963,1.00000000060216,0.466601733611673
5900.00000000393,11.9413947180352,1.00000000064138,0.474233820615866
6000.0000000043,14.0134770294753,1.00000000064781,0.481675168483666
6100.00000000466,16.3046089968958,1.00000000063928,0.488461778952547
6200.00000000502,18.8293567938125,1.00000000063985,0.495119064614544
6300.00000000539,21.5734746455557,1.00000000067834,0.501093318403243
6400.00000000575,24.5571374830055,1.00000000069022,0.506886674986627
6500.00000000612,27.7655916449436,1.00000000072824,0.512318393772439
6600.00000000648,31.203364362082,1.00000000069696,0.51737472575766
6700.00000000684,34.8718787376113,1.00000000071543,0.522326267031478
6800.00000000721,38.7481283329932,1.00000000070077,0.527020818376867
6900.00000000757,42.8543101200118,1.00000000074144,0.530985728178084
7000.00000000793,47.1594666706105,1.00000000073123,0.535076492070116
7100.0000000083,51.6650549953768,1.00000000071381,0.538688138492879
7200.00000000866,56.370831288279,1.00000000073438,0.542229502075846
7300.00000000903,61.240501863148,1.00000000071116,0.54572117740684
7400.00000000939,66.3006421962503,1.00000000073312,0.548375917456115
7500.00000000975,71.5126834803233,1.00000000071726,0.551388177269421
7600.00000001012,76.8690438681604,1.00000000070766,0.553898558866074
7700.00000001048,82.3777789547131,1.00000000073852,0.556240298700469
7800.00000001084,87.9904424967619,1.000000000723,0.558690627019134
7900.00000001121,93.7348084112929,1.00000000072518,0.560318888794059
8000.00000001157,99.5759078797228,1.00000000071404,0.562572504565543
8100.00000001194,105.493254237952,1.0000000007154,0.564352842821602
8200.0000000123,111.506385764397,1.00000000071126,0.565702793898323
8300.00000001266,117.560972648006,1.00000000071532,0.567327417462377
8400.00000001303,123.681199561984,1.00000000069941,0.568361862100498
8500.00000001339,129.842458176265,1.00000000070595,0.569781189107598
8600.00000001376,136.012853436634,1.00000000069039,0.571085180076176
8700.00000001412,142.221846088334,1.0000000006936,0.571431908368421
8800.00000001448,148.416333728703,1.00000000067659,0.5727514884895
8900.00000001485,154.61123000756,1.00000000065633,0.573361695159115
9000.00000001521,160.796630535164,1.00000000067894,0.573827216035504
9100.00000001557,166.934318531805,1.00000000065635,0.574895244287786
9200.00000001594,173.056027548973,1.00000000065502,0.574669166869844
9300.0000000163,179.117973890317,1.00000000066696,0.575608222032473
9400.00000001667,185.123316053729,1.00000000063404,0.575835164940495
9500.00000001703,191.077250989595,1.00000000064291,0.576058352970292
9600.00000001739,196.938454388099,1.00000000062828,0.57641266007331
9700.00000001776,202.736810636347,1.00000000061656,0.57633722530749
9800.00000001812,208.442269160846,1.0000000006002,0.576625512180227
9900.00000001848,214.046452194781,1.00000000061223,0.57668130223946
10000.0000000188,219.565848422449,1.00000000059167,0.576865826498991
10100.0000000192,224.960357120604,1.00000000060629,0.576245663154458
10200.0000000196,230.256254660895,1.00000000059393,0.576869536650946
10300.0000000199,235.436281999947,1.00000000059105,0.575949180471385
10400.0000000203,240.483263178094,1.00000000057325,0.576161207242363
10500.0000000207,245.42202178273,1.00000000055822,0.576319287076397
10600.000000021,250.217107129083,1.00000000055993,0.575073618291671
10700.0000000214,254.887508033918,1.00000000057792,0.575705513210933
10800.0000000218,259.428733708408,1.00000000053762,0.575149127209051
10900.0000000221,263.819132447699,1.00000000052669,0.574564231590862
11000.0000000225,268.083797519643,1.00000000054841,0.575195830870128
11100.0000000229,272.197257797772,1.00000000052031,0.574006293638983
11200.0000000232,276.170396087729,1.00000000051868,0.574007476494781
11300.0000000236,280.005567373528,1.0000000005353,0.574181940661197
11400.0000000239,283.684421082007,1.00000000049943,0.5732148443458
11500.0000000243,287.227050795435,1.00000000050863,0.572815559711527
11600.0000000247,290.617092782958,1.00000000049785,0.573109260287947
11700.000000025,293.862025695448,1.0000000005079,0.571734262147107
11800.0000000254,296.965058186212,1.00000000049539,0.571877506546688
11900.0000000258,299.912932982606,1.00000000049753,0.571503021357071
12000.0000000261,302.724347691735,1.00000000048507,0.570348069627353
12100.0000000265,305.385816138539,1.00000000047251,0.570628236006375
12200.0000000269,307.903288838536,1.00000000047095,0.570494473755059
12300.0000000272,310.284027646965,1.00000000047199,0.569581246213253
12400.0000000276,312.514141147129,1.00000000046007,0.569611028195219
12500.0000000279,314.612428708022,1.00000000046037,0.568329592772071
12600.0000000283,316.56949473335,1.00000000044361,0.568795048643618
12700.0000000287,318.388545384027,1.00000000044302,0.569144132723825
12800.000000029,320.080214578564,1.00000000044091,0.567401752576427
12900.0000000294,321.630129692527,1.00000000043623,0.56654445688623
13000.0000000298,323.055365544859,1.00000000043341,0.567859220455375
13100.0000000301,324.353609103326,1.00000000042234,0.568536891184879
13200.0000000305,325.524328759525,1.00000000042055,0.567234490275836
13300.0000000309,326.57806952339,1.00000000041875,0.564612239679751
13400.0000000312,327.50370466038,1.00000000040097,0.564248957958325
13500.0000000316,328.313981041371,1.00000000040337,0.567641465831284
13600.0000000319,329.015544155688,1.00000000042169,0.569532310386282
13700.0000000323,329.606892813276,1.00000000039592,0.565474908847327
13800.0000000327,330.093186130204,1.00000000039322,0.560032607514923
13900.000000033,330.462874790957,1.00000000038805,0.56212440029347
14000.0000000334,330.734073916597,1.00000000040391,0.569409378207712
14100.0000000338,330.919548047872,1.00000000043087,0.570556468845342
14200.0000000341,331.015835556257,1.00000000038893,0.562997347540811
14300.0000000345,331.020545818032,1.0000000003607,0.555310843179022
14400.0000000349,330.922577502499,1.00000000036131,0.557618906132776
14500.0000000352,330.74166861575,1.00000000039064,0.568627642542855
14600.0000000356,330.498964340771,1.0000000004262,0.573505290826022
14700.0000000359,330.192513107389,1.00000000039675,0.563263912942218
14800.0000000363,329.813909211,1.0000000003499,0.550127743741604
14900.0000000367,329.344856007559,1.00000000033147,0.547838615575614
15000.000000037,328.801181149314,1.00000000039177,0.56241692203904
15100.0000000374,328.212909441008,1.00000000046245,0.576153820458763
15200.0000000378,327.587708035961,1.00000000043362,0.568708905832729
15300.0000000381,326.920988938094,1.00000000037991,0.552363187283794
15400.0000000385,326.181829853066,1.00000000029506,0.536676202538208
15500.0000000389,325.370062577322,1.0000000003196,0.544670982644392
15600.0000000392,324.510454353972,1.00000000042127,0.567620766339917
15700.0000000396,323.631058019263,1.00000000048775,0.578387019380732
15800.0000000399,322.740960147863,1.00000000044088,0.565643880000252
15900.0000000403,321.817558580281,1.00000000035792,0.542851581786105
16000.0000000407,320.835436910519,1.0000000002852,0.52532704263829
16100.000000041,319.791948643901,1.00000000032918,0.533894349897648
16200.0000000414,318.711404816203,1.00000000042487,0.564495512525456
16300.0000000418,317.63031824102,1.00000000050918,0.580935959909602
16400.0000000418,316.55587777597,1.00000000048561,0.569805371630074
16500.0000000404,315.467779966054,1.00000000038623,0.540886238245383
16600.0000000389,314.339570237297,1.00000000029114,0.517061236310425
16700.0000000375,313.156036683824,1.00000000027846,0.513723811300658
16800.000000036,311.937340431198,1.00000000038292,0.543768803833233
16900.0000000346,310.714081752893,1.0000000004883,0.57665817589056
17000.0000000331,309.508165174928,1.0000000005627,0.580843127916918
17100.0000000317,308.316622155272,1.00000000046488,0.557258714958211
17200.0000000302,307.110526064874,1.00000000035033,0.524414241313046
17300.0000000287,305.87088482239,1.00000000027275,0.502000713235562
17400.0000000273,304.587978190199,1.00000000030167,0.504943254399535
17500.0000000258,303.281408265096,1.00000000040438,0.541540852196846
17600.0000000244,301.982270062294,1.00000000052472,0.575738921851132
17700.0000000229,300.706023846688,1.00000000054898,0.5805349433376
17800.0000000215,299.450361740618,1.0000000004947,0.558644093274339
17900.00000002,298.195132373311,1.00000000038075,0.524500455043711
18000.0000000186,296.917297876718,1.00000000028415,0.497128065281975
18100.0000000171,295.609365381052,1.00000000027925,0.492505307262391
18200.0000000156,294.277041273307,1.00000000034651,0.516106472243385
18300.0000000142,292.9443758369,1.0000000004772,0.556387017038987
18400.0000000127,291.630776828732,1.00000000055092,0.578767721148023
18500.0000000113,290.341361865141,1.00000000054142,0.573188551875073
18600.0000000098,289.070620169,1.00000000049221,0.545483133474716
18700.0000000084,287.799187425059,1.00000000035472,0.510883113430178
18800.0000000069,286.513417637284,1.00000000028741,0.490652863312044
18900.0000000055,285.207970654277,1.00000000028807,0.489938549834669
19000.000000004,283.888256179739,1.00000000035016,0.509862568862751
19100.0000000026,282.570428892365,1.00000000044129,0.542191510064835
19200.0000000011,281.267196363275,1.00000000053343,0.568032050479773
19299.9999999996,279.98591017352,1.00000000055107,0.571220837991778
19399.9999999982,278.725264084577,1.00000000052532,0.551379252596237
19499.9999999967,277.472982228404,1.00000000040868,0.521478037901446
19599.9999999953,276.219727279306,1.00000000033327,0.497119248909581
19699.9999999938,274.95720031898,1.00000000029655,0.488547552170061
19799.9999999924,273.686459173649,1.0000000003175,0.49541661419196
19899.9999999909,272.412660468133,1.00000000037847,0.511483847608252
19999.9999999895,271.143007588909,1.00000000044378,0.53397514278433
20099.999999988,269.886966913354,1.0000000005086,0.555191439241761
20199.9999999865,268.648490074179,1.00000000053905,0.560094397952839
20299.9999999851,267.426212918047,1.00000000051333,0.548169043291307
20399.9999999836,266.215744950654,1.00000000044362,0.524659078068438
20499.9999999822,265.009382603079,1.0000000003801,0.504601883264041
20599.9999999807,263.803912322079,1.00000000033445,0.494955815012823
20699.9999999793,262.597262428693,1.00000000033439,0.496409140652729
20799.9999999778,261.391166208906,1.00000000035034,0.503139075128395
20899.9999999764,260.188647140211,1.00000000039298,0.512394524199658
20999.9999999749,258.992624033969,1.00000000043585,0.52644016225544
21099.9999999734,257.807807431649,1.00000000047578,0.540868763140093
21199.999999972,256.636311964566,1.00000000050062,0.545574038016741
21299.9999999705,255.477024820005,1.00000000048985,0.540672791972052
21399.9999999691,254.328670181099,1.00000000044522,0.526445562285376
21499.9999999676,253.187812022202,1.0000000004058,0.51408511744055
21599.9999999662,252.053095906699,1.00000000037472,0.506696016707604
21699.9999999647,250.923421026839,1.00000000036116,0.503609815656477
21799.9999999633,249.798491487911,1.00000000035096,0.503265792133608
21899.9999999618,248.679125917154,1.00000000036972,0.506343265716343
21999.9999999603,247.565454945449,1.00000000039959,0.511406526116392
22099.9999999589,246.459689643988,1.00000000040621,0.516988990104502
22199.9999999574,245.363117961745,1.00000000042649,0.52309570094378
22299.999999956,244.276108797703,1.00000000046673,0.530370113776981
22399.9999999545,243.199169294122,1.00000000044591,0.532252690932148
22499.9999999531,242.131599151631,1.00000000045749,0.530386655695027
22599.9999999516,241.072478916823,1.00000000041999,0.523558047368257
22699.9999999502,240.02177264799,1.00000000041154,0.517695277078759
22799.9999999487,238.978706652505,1.00000000039116,0.514229909286708
22899.9999999473,237.944004805102,1.00000000038556,0.515717102256593
22999.9999999458,236.916975582727,1.00000000036619,0.512634906781109
23099.9999999443,235.89809861618,1.00000000035439,0.508335383488945
23199.9999999429,234.887017061903,1.00000000037166,0.504940537408587
23299.9999999414,233.883950396356,1.00000000038413,0.504256662215708
23399.99999994,232.889655273861,1.00000000040162,0.510018241083407
23499.9999999385,231.904150513601,1.00000000042756,0.516010069044743
23599.9999999371,230.92683350768,1.00000000046075,0.526361499914483
23699.9999999356,229.957882222057,1.00000000042991,0.529728249641207
23799.9999999342,228.996838248251,1.00000000040784,0.530249099763357
23899.9999999327,228.044092657617,1.00000000040212,0.524925846813699
23999.9999999312,227.099655216274,1.00000000040082,0.521834993255389
24099.9999999298,226.163500086445,1.00000000041813,0.528323677742998
24199.9999999283,225.235912118948,1.00000000040344,0.529064157871128
24299.9999999269,224.317117376569,1.00000000040269,0.523161104711602
24399.9999999254,223.407963348457,1.00000000036585,0.513618223312755
24499.999999924,222.508497346761,1.00000000031806,0.500041033637406
24599.9999999225,221.619607378538,1.0000000003331,0.492294826530426
24699.9999999211,220.741002245523,1.00000000035961,0.494052472551701
24799.9999999196,219.871802862028,1.00000000040702,0.502201280742663
24899.9999999181,219.010714601467,1.00000000045421,0.513187049621494
24999.9999999167,218.156564801742,1.00000000045225,0.519171345258245
25099.9999999152,217.308366138398,1.00000000045623,0.525473127075166
25199.9999999138,216.46691039034,1.00000000042178,0.528125263192658
25299.9999999123,215.633065363162,1.00000000039094,0.526227595922804
25399.9999999109,214.807052365888,1.00000000040866,0.523751508078048
25499.9999999094,213.988328222101,1.00000000042572,0.528943514537826
25599.999999908,213.176061290315,1.00000000048588,0.539134658596414
25699.9999999065,212.370253833455,1.00000000044974,0.538306704805262
25799.9999999051,211.571982591013,1.00000000041901,0.525711892745038
25899.9999999036,210.783733286363,1.00000000035659,0.511870248799026
25999.9999999021,210.007145378162,1.00000000031363,0.495336883302514
26099.9999999007,209.244373317603,1.00000000028526,0.479946568217056
26199.9999998992,208.495271874638,1.00000000031603,0.480494796136219
26299.9999998978,207.75736386626,1.0000000004012,0.488860152915769
26399.9999998963,207.027767565844,1.00000000043294,0.501906605449293
26499.9999998949,206.303811903913,1.00000000048578,0.510971995096074
26599.9999998934,205.583487542067,1.00000000046413,0.516106801504056
26699.999999892,204.866729522034,1.00000000045579,0.515057150316389
26799.9999998905,204.155133724472,1.00000000040652,0.519313836243283
26899.999999889,203.450014314144,1.00000000039281,0.52499890929871
26999.9999998876,202.751355460467,1.00000000039862,0.524464967844514
27099.9999998861,202.05818396464,1.00000000043083,0.527261190453826
27199.9999998847,201.368764211096,1.00000000046087,0.539061264518136
27299.9999998832,200.682390560761,1.0000000004701,0.543299371926866
27399.9999998818,200.000039426931,1.00000000046372,0.535515301293505
27499.9999998803,199.324168093045,1.00000000040885,0.519909758308997
27599.9999998789,198.658515492185,1.00000000037801,0.503586928588088
27699.9999998774,198.006291136187,1.00000000031612,0.490596211927381
27799.9999998759,197.369449184679,1.00000000029333,0.478115890440888
27899.9999998745,196.748415256688,1.00000000031445,0.473856882161102
27999.999999873,196.140355201863,1.00000000037311,0.480513895839981
28099.9999998716,195.541875868869,1.00000000042304,0.490197392931636
28199.9999998701,194.948782385917,1.00000000045592,0.502021398236427
28299.9999998687,194.358645796882,1.0000000004674,0.508414576646351
28399.9999998672,193.769858257658,1.00000000045893,0.509647323494816
28499.9999998658,193.182609828501,1.00000000045182,0.508809552056613
28599.9999998643,192.598104185492,1.00000000040383,0.512563115771164
28699.9999998629,192.017485612997,1.00000000041669,0.522725935941955
28799.9999998614,191.440734300512,1.0000000004125,0.527786904508535
28899.9999998599,190.867334747185,1.00000000042173,0.528652639875006
