Time,AGPnorm,Energy,Entropy
0,0,1,4.32462578015014e-18
99.9999999999986,0.0106196637328447,0.999999999999284,0.0302336282482065
199.999999999993,0.0284247643091395,0.99999999999964,0.0864958510254646
300,0.0543654416754532,1.00000000001172,0.179215087046814
400.000000000022,0.0867666814151322,1.00000000065751,0.324962366682118
500.000000000045,0.238676288873529,1.00000000238494,0.467745547395154
600.000000000068,1.00881148261011,1.00000000353198,0.546400083069866
700.000000000091,2.55431986721543,1.00000000435379,0.582716772348934
800.000000000113,4.70311598523394,1.00000000430106,0.594684361419102
900.000000000136,7.05993668991335,1.00000000358857,0.593390605741653
1000.00000000016,9.24002480643722,1.00000000345868,0.585004941640765
1100.0000000001,11.0348881605939,1.00000000346125,0.575486881924996
1200,12.3123496991028,1.00000000277603,0.56268076664157
1299.99999999991,13.0796659742623,1.00000000262539,0.560474744068491
1399.99999999982,13.4029908809961,1.00000000266491,0.57020302782973
1499.99999999973,13.3642592690197,1.00000000256496,0.57249555197007
1599.99999999964,13.119578326819,1.00000000181673,0.488706690491721
1699.99999999955,12.7809454042363,1.00000000261154,0.547276418595581
1799.99999999946,12.3140998898925,1.00000000256638,0.507238554213116
1899.99999999937,11.8801559979856,1.00000000234303,0.506172211351365
1999.99999999928,11.3905353010997,1.00000000229422,0.468682630867868
2099.99999999919,10.9352133491272,1.00000000312672,0.552971121908247
2199.99999999909,10.5052023658432,1.00000000176392,0.419083400017655
2299.999999999,10.0707765310068,1.00000000295903,0.521389557430448
2399.99999999891,9.66985921074535,1.00000000311689,0.554729811838849
2499.99999999882,9.31803744329142,1.00000000144731,0.416220728348024
2599.99999999873,8.98424208598195,1.00000000279933,0.516723924452974
2699.99999999864,8.6650440940563,1.00000000259593,0.530571024788417
2799.99999999855,8.35828960782234,1.0000000031039,0.557546078343679
2899.99999999846,8.10675493486305,1.00000000162746,0.430802381669312
2999.99999999837,7.90762812794476,1.00000000274531,0.483228346302506
3099.99999999828,7.69376183246646,1.00000000265862,0.540390179661655
3199.99999999819,7.4933788561268,1.00000000256805,0.547737826638112
3299.99999999809,7.28791208935475,1.00000000298329,0.551791005664921
3399.999999998,7.0898640333214,1.00000000232593,0.539255281629882
3499.99999999791,6.96908792860329,1.00000000152448,0.438325842680592
3599.99999999782,6.89652965500495,1.00000000249898,0.49454325391968
3699.99999999773,6.80361937502107,1.00000000265814,0.541796805531087
3799.99999999764,6.71408930174583,1.00000000260956,0.560156862746263
3899.99999999755,6.6106168012033,1.00000000288367,0.572012301870378
3999.99999999746,6.49512781116771,1.00000000236228,0.581872582862965
4099.99999999738,6.37591733396833,1.00000000272592,0.573731420866494
4199.99999999775,6.24818461024461,1.00000000310152,0.577315848966731
4299.99999999811,6.15071967038985,1.00000000189989,0.511807660551636
4399.99999999848,6.1420676010908,1.00000000184328,0.471271127067411
4499.99999999884,6.16985607879944,1.00000000275782,0.515968599720598
4599.9999999992,6.17940630486351,1.00000000265793,0.538392009465131
4699.99999999957,6.17628774602523,1.00000000276366,0.576175140622168
4799.99999999993,6.15107801842998,1.00000000285823,0.595217999833359
4900.00000000029,6.12342175447964,1.00000000240192,0.591964227348691
5000.00000000066,6.09399576908865,1.00000000265099,0.602132149957348
5100.00000000102,6.04677529344462,1.00000000278804,0.587808271771354
5200.00000000139,5.9833357339201,1.00000000281261,0.609317683488489
5300.00000000175,5.91626894699236,1.00000000251921,0.613281739179268
5400.00000000211,5.84537796770596,1.00000000277564,0.614068612283184
5500.00000000248,5.76821197183606,1.00000000311391,0.618732926620889
5600.00000000284,5.68758442940883,1.0000000032882,0.596187238051882
5700.00000000321,5.61815556334598,1.0000000022736,0.549554299952106
5800.00000000357,5.61458680853553,1.00000000172705,0.496655468672093
5900.00000000393,5.69388162309974,1.00000000218048,0.503666992647931
6000.0000000043,5.7918274174321,1.00000000287985,0.538834378543776
6100.00000000466,5.86951196047438,1.00000000255669,0.563052498926882
6200.00000000502,5.93575171486672,1.00000000273181,0.573631706805061
6300.00000000539,5.9863527777079,1.00000000285889,0.598479052541345
6400.00000000575,6.01517661629743,1.00000000304868,0.621101251372606
6500.00000000612,6.02977325515547,1.00000000260812,0.621170113676575
6600.00000000648,6.03763775343401,1.00000000290225,0.628905343555831
6700.00000000684,6.02948969392872,1.00000000288354,0.636517705615183
6800.00000000721,6.01095114944068,1.00000000278422,0.630460949422835
6900.00000000757,6.00018439531975,1.00000000276666,0.619394988169786
7000.00000000793,5.99584502506533,1.00000000277773,0.612194994614631
7100.0000000083,5.97713237494571,1.00000000299338,0.61482597065335
7200.00000000866,5.95386172738669,1.00000000277294,0.632714770419513
7300.00000000903,5.93136607057827,1.00000000288247,0.63602220938657
7400.00000000939,5.90483193377495,1.00000000276479,0.645122359518719
7500.00000000975,5.87785917475863,1.00000000272876,0.633191853488935
7600.00000001012,5.84974973342322,1.00000000273563,0.620244501766492
7700.00000001048,5.81584073440265,1.00000000318163,0.637099451909395
7800.00000001084,5.76939183963067,1.00000000289443,0.648323559686375
7900.00000001121,5.71612314935964,1.00000000303936,0.653199915111431
8000.00000001157,5.66210439012934,1.00000000271415,0.65391824564562
8100.00000001194,5.60870737713282,1.00000000311029,0.65405899192499
8200.0000000123,5.55734183634091,1.00000000340038,0.658117743614536
8300.00000001266,5.50980698051838,1.00000000346012,0.66419170736933
8400.00000001303,5.46047140365266,1.00000000326816,0.629721626692803
8500.00000001339,5.40591652128225,1.00000000293968,0.592833296613277
8600.00000001376,5.37131983589118,1.00000000236664,0.552394340095307
8700.00000001412,5.39366108239612,1.00000000207753,0.52276429495261
8800.00000001448,5.48982583298414,1.00000000224684,0.517352244795765
8900.00000001485,5.63321719548501,1.00000000266473,0.531156921923077
9000.00000001521,5.78899492522564,1.00000000305586,0.548326178779955
9100.00000001557,5.93492217681091,1.00000000295309,0.564390052445632
9200.00000001594,6.06662042757606,1.00000000322878,0.578937533819769
9300.0000000163,6.19168963499202,1.0000000030048,0.591356597441107
9400.00000001667,6.2960457528524,1.00000000333858,0.606212800200194
9500.00000001703,6.38292559699721,1.0000000031344,0.612842383998318
9600.00000001739,6.45319873059445,1.00000000305476,0.638307242288195
9700.00000001776,6.51115235624522,1.00000000319978,0.636909268456244
9800.00000001812,6.56278699647581,1.0000000031182,0.621599312563928
9900.00000001848,6.60695654293703,1.00000000316945,0.649797242042435
10000.0000000188,6.63714074726255,1.00000000313269,0.669776880757153
10100.0000000192,6.66465203020744,1.00000000292315,0.66497012854254
10200.0000000196,6.68778536809117,1.0000000030146,0.654575767685177
10300.0000000199,6.70584007534107,1.00000000329976,0.667560944314499
10400.0000000203,6.71242714610048,1.00000000319279,0.672992058568121
10500.0000000207,6.72076717536226,1.00000000304617,0.670428261351004
10600.000000021,6.72246191241258,1.0000000037918,0.678986572273563
10700.0000000214,6.71740115550121,1.00000000309056,0.676476678442927
10800.0000000218,6.7050636107814,1.00000000316623,0.667080118442264
10900.0000000221,6.69177439646517,1.0000000030747,0.666830429566876
11000.0000000225,6.67386948919991,1.00000000327337,0.673142610927487
11100.0000000229,6.65153462146139,1.00000000358197,0.680508608481062
11200.0000000232,6.62764296745252,1.00000000315722,0.677349434525764
11300.0000000236,6.61026083222166,1.00000000314757,0.665217180549029
11400.0000000239,6.60387898334877,1.00000000302002,0.646319152743419
11500.0000000243,6.61161638450589,1.00000000301137,0.632568809804868
11600.0000000247,6.63019029626861,1.00000000329625,0.636153746004013
11700.000000025,6.64361167904318,1.00000000364537,0.644134665651123
11800.0000000254,6.65670085277839,1.00000000323428,0.635056221923907
11900.0000000258,6.66340510069308,1.00000000327004,0.646205198135993
12000.0000000261,6.66981555494639,1.00000000324438,0.651291435968448
12100.0000000265,6.67439351048225,1.00000000367808,0.643784594959729
12200.0000000269,6.67480343500513,1.00000000334359,0.652053947667146
12300.0000000272,6.67739283660117,1.00000000355571,0.671484843406923
12400.0000000276,6.68142548390642,1.00000000328678,0.673514040778295
12500.0000000279,6.68005296272449,1.0000000035528,0.665404454922052
12600.0000000283,6.67708777750716,1.00000000395558,0.664051088261076
12700.0000000287,6.67719325024142,1.00000000350097,0.66686991299554
12800.000000029,6.68090137554763,1.00000000326214,0.654399577667381
12900.0000000294,6.69156882089182,1.00000000345227,0.65204088627316
13000.0000000298,6.69934531746557,1.00000000340415,0.661628750541374
13100.0000000301,6.7071332738403,1.00000000359567,0.67788907467842
13200.0000000305,6.71471723759397,1.0000000036157,0.685041306639661
13300.0000000309,6.72029204462729,1.00000000329264,0.669462019185614
13400.0000000312,6.72735151697326,1.00000000318655,0.657568452714175
13500.0000000316,6.73847211034962,1.00000000369549,0.686051199269443
13600.0000000319,6.74013051375668,1.00000000345245,0.683075843896
13700.0000000323,6.74329817840574,1.00000000316489,0.682240559950318
13800.0000000327,6.74455149348007,1.00000000361598,0.686431236738901
13900.000000033,6.74659226068494,1.0000000037298,0.68918580530725
14000.0000000334,6.74458196618409,1.00000000369786,0.693028759695941
14100.0000000338,6.74636064098602,1.00000000329777,0.681848302820116
14200.0000000341,6.73843938414778,1.00000000383059,0.67547343289034
14300.0000000345,6.73089265867551,1.00000000315913,0.667535868391064
14400.0000000349,6.7237871128048,1.00000000361928,0.675483632162948
14500.0000000352,6.7133355136747,1.00000000370822,0.66439538979044
14600.0000000356,6.70715968295616,1.00000000362736,0.663776341785261
14700.0000000359,6.69982769374443,1.0000000038373,0.673076687848646
14800.0000000363,6.6897701094144,1.00000000362157,0.673187222290872
14900.0000000367,6.67571886260652,1.00000000345534,0.69475744692587
15000.000000037,6.65937649184204,1.00000000362885,0.691721508372006
15100.0000000374,6.64475671698859,1.00000000353815,0.67945096387973
15200.0000000378,6.62703997777486,1.00000000384478,0.657591658138581
15300.0000000381,6.60648851869534,1.00000000326572,0.687625733221181
15400.0000000385,6.58387881383337,1.00000000364504,0.694346990611994
15500.0000000389,6.55737574336644,1.00000000361547,0.68239691216721
15600.0000000392,6.52581598393009,1.00000000400295,0.686495451121375
15700.0000000396,6.49122293790532,1.00000000367764,0.677830230136518
15800.0000000399,6.4556183711822,1.00000000376752,0.688200570566512
15900.0000000403,6.41830818263522,1.00000000365784,0.691107652856741
16000.0000000407,6.38211187149998,1.00000000364975,0.687702708540737
16100.000000041,6.34706525466617,1.00000000369072,0.689348803307397
16200.0000000414,6.31420753433163,1.00000000388433,0.693576945826219
16300.0000000418,6.28576007554656,1.00000000394378,0.695742838440304
16400.0000000418,6.26101042227095,1.00000000380124,0.698148267750866
16500.0000000404,6.24176233134238,1.00000000384316,0.692918983115817
16600.0000000389,6.22482644618872,1.00000000388417,0.699741655066501
16700.0000000375,6.21009817813419,1.00000000359901,0.690248257939387
16800.000000036,6.19106854451903,1.00000000395374,0.680085863935781
16900.0000000346,6.16865600319274,1.0000000044532,0.653963397720251
17000.0000000331,6.13873668879672,1.00000000363028,0.632340745914377
17100.0000000317,6.11372520106148,1.0000000033758,0.615480741665914
17200.0000000302,6.10362591256961,1.00000000308959,0.602812873888464
17300.0000000287,6.13021090713525,1.0000000030906,0.586077945468187
17400.0000000273,6.20608237991314,1.00000000284843,0.565857962988478
17500.0000000258,6.35260511110183,1.00000000304722,0.572035245385912
17600.0000000244,6.55183331112186,1.00000000311673,0.57110186777061
17700.0000000229,6.81619477854887,1.00000000326981,0.575536501035878
17800.0000000215,7.09370390668166,1.00000000334516,0.571138360986155
17900.00000002,7.40502827184874,1.00000000380634,0.580428791771371
18000.0000000186,7.69958209407734,1.0000000039085,0.58436283353258
18100.0000000171,8.00643781664685,1.00000000396969,0.593967244937187
18200.0000000156,8.29136599527546,1.00000000370607,0.599825741317553
18300.0000000142,8.58059891248839,1.00000000387568,0.60260812995724
18400.0000000127,8.86124111788926,1.00000000369123,0.598527047974244
18500.0000000113,9.13572750736851,1.00000000374888,0.608039958167507
18600.0000000098,9.41693320504373,1.00000000384918,0.603328885010681
18700.0000000084,9.68477939795466,1.0000000037174,0.61893907859506
18800.0000000069,9.95311480631505,1.00000000385956,0.612917582788547
18900.0000000055,10.1944412750887,1.0000000043915,0.657748026056901
19000.000000004,10.424272926996,1.00000000410158,0.643422314090762
19100.0000000026,10.64092439748,1.00000000397753,0.668491098704807
19200.0000000011,10.830986187602,1.00000000392998,0.672239876380642
19299.9999999996,11.0325409437853,1.00000000374597,0.661387039176193
19399.9999999982,11.2174266921953,1.00000000423698,0.659603384711446
19499.9999999967,11.3984840751539,1.00000000377476,0.662313391072622
19599.9999999953,11.5697853089764,1.00000000372941,0.670196425687877
19699.9999999938,11.7402276801435,1.00000000341368,0.646764120522813
19799.9999999924,11.9131774425848,1.00000000425325,0.671118388062797
19899.9999999909,12.0722213919387,1.00000000346656,0.668741260063553
19999.9999999895,12.229386217506,1.00000000416431,0.681172727170395
20099.999999988,12.3717604804683,1.00000000409236,0.674597468341204
20199.9999999865,12.5183205193203,1.00000000380476,0.669407263693503
20299.9999999851,12.6611047230464,1.00000000412168,0.693902786582523
20399.9999999836,12.8023053398288,1.00000000370908,0.69117125204104
20499.9999999822,12.9334861115331,1.00000000442772,0.68822506187768
20599.9999999807,13.0478271155241,1.00000000420869,0.692514362488149
20699.9999999793,13.1548610708345,1.00000000396532,0.707436616411659
20799.9999999778,13.2525484189915,1.00000000420178,0.703540194557877
20899.9999999764,13.3547538926096,1.00000000412775,0.707217417144432
20999.9999999749,13.456720946337,1.00000000417394,0.712894852722251
21099.9999999734,13.5683178970702,1.00000000401502,0.67726837935741
21199.999999972,13.6787144125197,1.00000000432646,0.706614207639793
21299.9999999705,13.78062185463,1.00000000415552,0.696664710014314
21399.9999999691,13.8821552006595,1.00000000443273,0.696052124620071
21499.9999999676,13.9779274647714,1.00000000413221,0.686006580838282
21599.9999999662,14.0778677379012,1.00000000415778,0.692558018907941
21699.9999999647,14.1706832730433,1.00000000420122,0.705885016060964
21799.9999999633,14.2609442705658,1.00000000428808,0.712828147514231
21899.9999999618,14.3476176472675,1.00000000401148,0.705108645104298
21999.9999999603,14.4335313038884,1.00000000422662,0.695242239776276
22099.9999999589,14.5291650223941,1.00000000410825,0.697297764451303
22199.9999999574,14.6188125411637,1.00000000484708,0.699442468308565
22299.999999956,14.7119435678806,1.00000000380691,0.673418172571692
22399.9999999545,14.8021131669953,1.00000000401183,0.700213682538745
22499.9999999531,14.896550826779,1.00000000428451,0.702336180337882
22599.9999999516,14.9950809153164,1.00000000474452,0.707221855067838
22699.9999999502,15.0868464421463,1.00000000440741,0.709147562774928
22799.9999999487,15.1788329683227,1.00000000438332,0.698805373931869
22899.9999999473,15.2713304033347,1.00000000410136,0.698211143755922
22999.9999999458,15.3769329990227,1.00000000421021,0.694648345355365
23099.9999999443,15.4827788196881,1.00000000407926,0.708989164948564
23199.9999999429,15.5828200032072,1.00000000495723,0.696214009247232
23299.9999999414,15.6776191763366,1.00000000422291,0.689553908927602
23399.99999994,15.7657435456209,1.0000000045682,0.689370032306431
23499.9999999385,15.8495362644226,1.0000000040983,0.677418505231504
23599.9999999371,15.9353574085924,1.00000000407284,0.665624887025374
23699.9999999356,16.0402556146212,1.00000000410879,0.659231872979644
23799.9999999342,16.1485990268469,1.00000000438461,0.688687372298922
23899.9999999327,16.2429802275097,1.00000000428414,0.697978513516325
23999.9999999312,16.3360183016574,1.00000000460665,0.706877505582717
24099.9999999298,16.4295947599911,1.0000000042806,0.686683764768621
24199.9999999283,16.5334168321996,1.00000000453688,0.679657827666984
24299.9999999269,16.6304849782741,1.00000000493717,0.700442404192624
24399.9999999254,16.7112294571223,1.00000000455911,0.687242691248692
24499.999999924,16.7935982053295,1.00000000419877,0.67239879819307
24599.9999999225,16.8791643409489,1.00000000404098,0.687464177351422
24699.9999999211,16.968630461582,1.00000000431633,0.700924897672065
24799.9999999196,17.0675051545939,1.00000000466851,0.683936074670745
24899.9999999181,17.1715547111147,1.00000000482913,0.693232686812725
24999.9999999167,17.2681936339665,1.00000000473569,0.70745369548992
25099.9999999152,17.3547344793724,1.000000004806,0.702526461486373
25199.9999999138,17.4406806379135,1.00000000482043,0.700545389212695
25299.9999999123,17.5319102401359,1.00000000466798,0.70649502104523
25399.9999999109,17.6260326283304,1.00000000512397,0.71578804937972
25499.9999999094,17.7228435644771,1.00000000450089,0.705235972179484
25599.999999908,17.8257286184531,1.00000000432869,0.692607096590009
25699.9999999065,17.950609910961,1.00000000417998,0.688903351462174
25799.9999999051,18.0845678299822,1.00000000503299,0.722345241644588
25899.9999999036,18.2181102016924,1.00000000484331,0.711550619004819
25999.9999999021,18.3489146322035,1.00000000450324,0.712860225964375
26099.9999999007,18.4759209098033,1.00000000457048,0.70508506495479
26199.9999998992,18.6049799200027,1.00000000440746,0.715580087273059
26299.9999998978,18.7432013118434,1.00000000438781,0.704319617611748
26399.9999998963,18.8886589026317,1.0000000045149,0.715183594932262
26499.9999998949,19.0364855062536,1.00000000523654,0.700188574355652
26599.9999998934,19.1902262249767,1.00000000487967,0.700584026973128
26699.999999892,19.3464837047722,1.00000000465911,0.704906238326955
26799.9999998905,19.4979129562205,1.00000000539012,0.709566555906522
26899.999999889,19.6482743231751,1.00000000484561,0.700083873550561
26999.9999998876,19.8176064331909,1.00000000409432,0.690565581458881
27099.9999998861,20.009033029146,1.00000000445108,0.693695737823154
27199.9999998847,20.202638605894,1.00000000527887,0.721094441992661
27299.9999998832,20.3815671494471,1.00000000462728,0.712010396775249
27399.9999998818,20.5483078605128,1.00000000486381,0.714975735113378
27499.9999998803,20.7152836945556,1.00000000473789,0.711375368825686
27599.9999998789,20.8808992652607,1.00000000487988,0.7055554482075
27699.9999998774,21.0477265003574,1.00000000469759,0.700281366259441
27799.9999998759,21.2169828551943,1.00000000498306,0.67528897326609
27899.9999998745,21.3901220307443,1.00000000550788,0.7012092088884
27999.999999873,21.5598947385993,1.00000000482869,0.710129294981507
28099.9999998716,21.7268323984654,1.00000000527052,0.688069366853271
28199.9999998701,21.8998890016359,1.00000000501816,0.688488046829301
28299.9999998687,22.072468213677,1.00000000528411,0.708863988155041
28399.9999998672,22.242683756871,1.00000000494833,0.695535788607002
28499.9999998658,22.4212167804824,1.00000000478308,0.670186147352078
28599.9999998643,22.6036058263059,1.00000000531764,0.691019069557533
28699.9999998629,22.7775442486103,1.00000000579006,0.712147434606246
28799.9999998614,22.9527054860344,1.00000000486537,0.708044380724247
28899.9999998599,23.1231093098325,1.00000000509528,0.700226849507721
28999.9999998585,23.2882040567417,1.00000000496866,0.684795984925601
29099.999999857,23.4528018335979,1.00000000529894,0.714481248468252
