Time,AGPnorm,Energy,Entropy
0,0,1,-1.11719499320545e-17
99.9999999999986,2.98320981869313e-05,0.999999999998517,0.00116791078311914
199.999999999993,0.00247850543446739,1.00000000000088,0.00184984999101553
300,0.00597546171959413,0.999999999998809,0.00324058129235507
400.000000000022,0.00816585848577535,0.99999999999966,0.00558160503635529
500.000000000045,0.0101860989799698,1.00000000000036,0.00738505444893483
600.000000000068,0.0148166415461899,0.999999999998426,0.0103083297978714
700.000000000091,0.0179796035857722,1.00000000000061,0.0132160758900961
800.000000000113,0.0227970427287963,0.999999999999279,0.0161921322493441
900.000000000136,0.0288376914715192,0.999999999999278,0.0199798606382296
1000.00000000016,0.0336592638815134,1.00000000000052,0.0233829459046742
1100.0000000001,0.0399520264471015,0.999999999998507,0.0274339066244154
1200,0.0463954093216898,1.00000000000025,0.0317253959369195
1299.99999999991,0.0537798297244682,0.999999999999758,0.0358858653627025
1399.99999999982,0.0621966287711843,0.999999999999012,0.0407817990258866
1499.99999999973,0.069195733512207,1.00000000000045,0.0454870145597099
1599.99999999964,0.0768989252919385,0.999999999998744,0.0505555684264714
1699.99999999955,0.0857844869654825,0.999999999999951,0.0560678349920366
1799.99999999946,0.0952278228239229,1.00000000000014,0.0614328832280684
1899.99999999937,0.104997170470257,0.999999999998818,0.0674567386642917
1999.99999999928,0.113582694214581,1.00000000000018,0.073484482375823
2099.99999999919,0.12263430517016,0.999999999999128,0.0797375399729835
2199.99999999909,0.133180173980252,0.999999999999799,0.0866377022599625
2299.999999999,0.143661437466086,1.00000000000034,0.0935022830013776
2399.99999999891,0.153630680499676,0.999999999998718,0.10097120455318
2499.99999999882,0.163257916546109,0.999999999999845,0.108722179841996
2599.99999999873,0.173537930637076,0.999999999999589,0.116757128174922
2699.99999999864,0.184926268389081,0.999999999999715,0.125741185043966
2799.99999999855,0.195445691086175,1.00000000000041,0.134955633862245
2899.99999999846,0.205032607596824,0.999999999999089,0.144960523760275
2999.99999999837,0.215065451124627,1.00000000000049,0.155902054167894
3099.99999999828,0.226112056341534,1.00000000000242,0.167633328662854
3199.99999999819,0.23746173876909,1.00000000000525,0.180986915883844
3299.99999999809,0.246610890156395,1.00000000001379,0.19509469059955
3399.999999998,0.257532855950694,1.00000000002387,0.210113527684892
3499.99999999791,0.267089057430771,1.00000000004289,0.226133378460011
3599.99999999782,0.280116313929988,1.00000000006785,0.24225389849698
3699.99999999773,0.298896669213251,1.00000000009764,0.258828433749787
3799.99999999764,0.312779172939571,1.00000000013445,0.274923381560211
3899.99999999755,0.348994638255644,1.00000000017399,0.290495540632296
3999.99999999746,0.393831854136074,1.00000000020742,0.306303276631349
4099.99999999738,0.459310583132904,1.00000000024867,0.321360431282386
4199.99999999775,0.572606256106669,1.00000000029218,0.336082789063109
4299.99999999811,0.70701744199437,1.00000000033277,0.350384622846921
4399.99999999848,0.917288049976646,1.00000000039466,0.363820853148093
4499.99999999884,1.19729246909829,1.00000000042226,0.377416337861377
4599.9999999992,1.54826792332008,1.00000000047329,0.390102529552286
4699.99999999957,2.03019164776568,1.00000000050435,0.402093394425273
4799.99999999993,2.60522587302359,1.00000000055155,0.413840905181628
4900.00000000029,3.32576203066291,1.00000000058045,0.424961693440832
5000.00000000066,4.20976224424007,1.0000000005997,0.435802873816859
5100.00000000102,5.23253287203163,1.00000000063662,0.446042456892083
5200.00000000139,6.46350474049981,1.00000000069521,0.45526990065117
5300.00000000175,7.8694106686583,1.00000000068787,0.464706014625976
5400.00000000211,9.47252500238574,1.00000000070922,0.473360439500563
5500.00000000248,11.3112746915701,1.00000000073764,0.481338296356157
5600.00000000284,13.3413268281787,1.00000000073666,0.489165579324244
5700.00000000321,15.612311556196,1.00000000077554,0.496244084170395
5800.00000000357,18.1084812325954,1.00000000079986,0.503209536175545
5900.00000000393,20.8183329669722,1.00000000080958,0.509760251379319
6000.0000000043,23.7819635940138,1.00000000081176,0.515493765617162
6100.00000000466,26.9543375756554,1.00000000082582,0.521108049918346
6200.00000000502,30.3516917226233,1.00000000082386,0.526476044524929
6300.00000000539,33.9762232482101,1.0000000008438,0.531350744002014
6400.00000000575,37.7958217491404,1.00000000082661,0.536078149668862
6500.00000000612,41.8363342901559,1.00000000084082,0.540122219399537
6600.00000000648,46.0651812818203,1.00000000086271,0.544116086765482
6700.00000000684,50.4710372689864,1.00000000087357,0.548021460387759
6800.00000000721,55.0631974035439,1.00000000086244,0.55129138525861
6900.00000000757,59.8078679921856,1.00000000084096,0.55439100062948
7000.00000000793,64.708964798707,1.00000000081829,0.557475437846416
7100.0000000083,69.7496188049836,1.00000000085999,0.560146996127035
7200.00000000866,74.9048920728613,1.00000000083017,0.562873314644893
7300.00000000903,80.1812140899527,1.0000000008223,0.564886410403881
7400.00000000939,85.5531407908672,1.00000000083638,0.566857753371032
7500.00000000975,91.0074311282421,1.00000000083199,0.569072711880095
7600.00000001012,96.537907723669,1.00000000082438,0.570823064031983
7700.00000001048,102.119021715741,1.00000000080375,0.572393003959653
7800.00000001084,107.749616598361,1.0000000008255,0.573646005290709
7900.00000001121,113.415194994239,1.00000000080867,0.574965411210656
8000.00000001157,119.093638438073,1.00000000079344,0.576332738115456
8100.00000001194,124.783292807993,1.00000000078101,0.577285469479314
8200.0000000123,130.46636490848,1.00000000079383,0.577874962703937
8300.00000001266,136.132810025602,1.00000000078791,0.578931845209813
8400.00000001303,141.777542244616,1.00000000075337,0.579559780918789
8500.00000001339,147.378039448558,1.00000000077484,0.580089207310275
8600.00000001376,152.932716152224,1.00000000075357,0.580761401109366
8700.00000001412,158.431575646568,1.00000000074057,0.580817323813741
8800.00000001448,163.861742643019,1.00000000076711,0.581405053889709
8900.00000001485,169.221837708835,1.00000000074563,0.581362779871043
9000.00000001521,174.495969246268,1.00000000072269,0.581826461667509
9100.00000001557,179.676860786208,1.00000000071438,0.581658392582457
9200.00000001594,184.766568553849,1.00000000070732,0.581995846780088
9300.0000000163,189.748203902584,1.00000000070228,0.58147849171698
9400.00000001667,194.624245673077,1.00000000067482,0.58224349334036
9500.00000001703,199.384144393396,1.00000000067217,0.581077794236868
9600.00000001739,204.01925457178,1.00000000067071,0.581749298359593
9700.00000001776,208.538389742044,1.00000000066712,0.581429842075102
9800.00000001812,212.923607166045,1.00000000065265,0.580619693868154
9900.00000001848,217.179876348228,1.000000000658,0.581661277559122
10000.0000000188,221.301514587771,1.00000000063621,0.580072213621243
10100.0000000192,225.280076473438,1.00000000062801,0.580550369283931
10200.0000000196,229.126669097097,1.00000000061461,0.580063488875214
10300.0000000199,232.827068932302,1.00000000060701,0.579171571836615
10400.0000000203,236.38509484598,1.00000000060677,0.579459165294499
10500.0000000207,239.801595032392,1.00000000061639,0.578677286904324
10600.000000021,243.06939157619,1.00000000059929,0.578270463752467
10700.0000000214,246.196413983538,1.00000000060557,0.578094167703976
10800.0000000218,249.1771259619,1.00000000059415,0.578073920805355
10900.0000000221,252.01053488014,1.00000000060075,0.576768341207431
11000.0000000225,254.700408169048,1.00000000057998,0.577369004810759
11100.0000000229,257.245047180718,1.00000000057151,0.576808480247368
11200.0000000232,259.648131812962,1.00000000055265,0.57536198388246
11300.0000000236,261.906549322655,1.00000000055296,0.576295435061612
11400.0000000239,264.02386347132,1.00000000056164,0.575458214628471
11500.0000000243,266.002602628601,1.00000000052202,0.574612276312729
11600.0000000247,267.840997125493,1.00000000053886,0.575511440040278
11700.000000025,269.547282189796,1.00000000050576,0.573819087631956
11800.0000000254,271.116026772473,1.00000000052569,0.574113310342454
11900.0000000258,272.552264025022,1.00000000051743,0.575041759225388
12000.0000000261,273.863114369335,1.00000000049644,0.572029251187079
12100.0000000265,275.04183738463,1.00000000050692,0.571960137382968
12200.0000000269,276.098376260211,1.00000000050758,0.574449466399245
12300.0000000272,277.035922439088,1.00000000049919,0.573278799326218
12400.0000000276,277.852019118709,1.00000000046422,0.571046239528882
12500.0000000279,278.553212976892,1.00000000047008,0.570147709629212
12600.0000000283,279.13901991527,1.00000000046982,0.573304181348409
12700.0000000287,279.621091642712,1.00000000047708,0.574516294872673
12800.000000029,280.00220023478,1.00000000046218,0.569900211089937
12900.0000000294,280.275022658111,1.0000000004337,0.565446654173668
13000.0000000298,280.445837853046,1.00000000045693,0.570668950825754
13100.0000000301,280.527395205265,1.00000000047908,0.576669708703311
13200.0000000305,280.529325415347,1.00000000045721,0.571175098822288
13300.0000000309,280.44341747554,1.00000000042688,0.561473780059995
13400.0000000312,280.261447933761,1.00000000041419,0.5625110584162
13500.0000000316,280.002293478501,1.00000000047253,0.574499290280225
13600.0000000319,279.683270494322,1.0000000005024,0.575898966856818
13700.0000000323,279.303311534145,1.00000000044326,0.564437211839382
13800.0000000327,278.848318145439,1.00000000039444,0.554096512065591
13900.000000033,278.313605224031,1.00000000042037,0.559788471951763
14000.0000000334,277.726070139247,1.00000000050588,0.57680065593786
14100.0000000338,277.103328835939,1.00000000051031,0.574704105994162
14200.0000000341,276.439701312153,1.00000000045073,0.560813160075614
14300.0000000345,275.714429415308,1.00000000037744,0.545486605003964
14400.0000000349,274.921533718371,1.00000000039712,0.551246450153418
14500.0000000352,274.091012422722,1.00000000053639,0.576533958030126
14600.0000000356,273.244444157061,1.00000000054739,0.577298283337912
14700.0000000359,272.378875221884,1.00000000048802,0.56088080974192
14800.0000000363,271.470041500149,1.0000000003803,0.539277121681045
14900.0000000367,270.502973638659,1.00000000035747,0.53461822270234
15000.000000037,269.498247610993,1.00000000050581,0.565175449288043
15100.0000000374,268.488086611383,1.00000000057446,0.581959731302688
15200.0000000378,267.47902426485,1.00000000055854,0.569845642874188
15300.0000000381,266.456358982241,1.00000000041088,0.543160245232254
15400.0000000385,265.390098383574,1.00000000034247,0.523276346941737
15500.0000000389,264.281076777312,1.00000000037931,0.531714130151059
15600.0000000392,263.152784800413,1.00000000054234,0.569397155253585
15700.0000000396,262.035098750767,1.0000000006005,0.583170370631449
15800.0000000399,260.929437412743,1.00000000053198,0.563007754647512
15900.0000000403,259.814514388969,1.00000000043164,0.534014275505892
16000.0000000407,258.66894768702,1.0000000003373,0.514111146967274
16100.000000041,257.486939825838,1.00000000036733,0.52091748778751
16200.0000000414,256.290925134154,1.00000000052217,0.558857350783401
16300.0000000418,255.108928180802,1.00000000063398,0.583614062921475
16400.0000000418,253.946072115266,1.00000000062577,0.570335178518224
16500.0000000404,252.789374296549,1.00000000047859,0.53671521028976
16600.0000000389,251.616278154099,1.00000000037148,0.513424687187483
16700.0000000375,250.417250829697,1.00000000035963,0.508868636723518
16800.000000036,249.200404220564,1.00000000042082,0.526922992009379
16900.0000000346,247.984160820326,1.00000000057596,0.565769478513622
17000.0000000331,246.787360753723,1.0000000006528,0.581645811318766
17100.0000000317,245.611361682214,1.00000000059808,0.56041638988883
17200.0000000302,244.439970029631,1.00000000044925,0.525416753238162
17300.0000000287,243.260171418336,1.00000000037497,0.50831360116337
17400.0000000273,242.063867852878,1.00000000036354,0.506812140792784
17500.0000000258,240.857041340503,1.00000000044011,0.520618923314025
17600.0000000244,239.65203821334,1.00000000053735,0.549850289829175
17700.0000000229,238.461873382338,1.00000000063502,0.573801025308096
17800.0000000215,237.291996317678,1.00000000062182,0.564396478341297
17900.00000002,236.134696035798,1.00000000052285,0.534308909831272
18000.0000000186,234.978753728754,1.00000000041569,0.509510447972659
18100.0000000171,233.817461526089,1.00000000038215,0.504943854805182
18200.0000000156,232.649044792504,1.0000000004075,0.512320195049119
18300.0000000142,231.479848841801,1.0000000004623,0.523068909182144
18400.0000000127,230.316047457113,1.00000000052672,0.542894219745126
18500.0000000113,229.165291301196,1.00000000059083,0.561770912117636
18600.0000000098,228.031149199251,1.00000000060349,0.556548607637636
18700.0000000084,226.908756840163,1.00000000053438,0.533840475805153
18800.0000000069,225.792606263306,1.00000000044261,0.510856631469565
18900.0000000055,224.677298521578,1.00000000042704,0.506350468418715
19000.000000004,223.562571463228,1.00000000041356,0.513363380933769
19100.0000000026,222.450026205151,1.00000000045131,0.519004715930925
19200.0000000011,221.341255885251,1.00000000047581,0.523576648161474
19299.9999999996,220.240937227875,1.00000000053774,0.535659270793715
19399.9999999982,219.152243966054,1.00000000057427,0.547579507723205
19499.9999999967,218.075272456477,1.00000000055992,0.545485683714162
19599.9999999953,217.008879170873,1.00000000053183,0.528902658975326
19699.9999999938,215.949617357855,1.0000000004784,0.515215988697746
19799.9999999924,214.89653340641,1.00000000045019,0.51238480232762
19899.9999999909,213.848599154819,1.00000000042125,0.517064072206586
19999.9999999895,212.805848233283,1.00000000043809,0.519253596848608
20099.999999988,211.76912220808,1.00000000046098,0.519313358340585
20199.9999999865,210.738973915032,1.0000000004799,0.522151895115277
20299.9999999851,209.717464663446,1.00000000049731,0.527336607456791
20399.9999999836,208.705672865733,1.00000000053303,0.533692641563195
20499.9999999822,207.703145675856,1.0000000005364,0.538289702970189
20599.9999999807,206.70978099836,1.00000000050664,0.532173776560504
20699.9999999793,205.724837245995,1.00000000048069,0.524491288673449
20799.9999999778,204.748015172441,1.00000000047351,0.520423475656489
20899.9999999764,203.779270146317,1.00000000045522,0.522697138347362
20999.9999999749,202.818050916511,1.00000000043311,0.523357007670987
21099.9999999734,201.864597552273,1.00000000045528,0.520992427380067
21199.999999972,200.918370410331,1.00000000045425,0.515426211706734
21299.9999999705,199.980271695371,1.00000000045056,0.515323020222986
21399.9999999691,199.050955868086,1.00000000048749,0.518491200030596
21499.9999999676,198.130084480559,1.00000000052292,0.529912215992779
21599.9999999662,197.217615249415,1.00000000051148,0.538207143170785
21699.9999999647,196.313438394601,1.00000000050432,0.538069362016541
21799.9999999633,195.417417480443,1.00000000047224,0.530028940538796
21899.9999999618,194.529929997138,1.00000000047794,0.527795049342795
21999.9999999603,193.650883206815,1.00000000047047,0.532395587725316
22099.9999999589,192.780969542201,1.00000000046759,0.531916915701078
22199.9999999574,191.919844111651,1.00000000042992,0.525323076759731
22299.999999956,191.068128822189,1.00000000039729,0.512020038732726
22399.9999999545,190.225966425081,1.00000000041079,0.505522706825058
22499.9999999531,189.393016016916,1.00000000045361,0.509243320764538
22599.9999999516,188.568841569678,1.00000000051523,0.51716529260432
22699.9999999502,187.752688475268,1.00000000052979,0.525811518454572
22799.9999999487,186.943370395379,1.00000000051505,0.533362895247383
22899.9999999473,186.141416570875,1.00000000051471,0.538155098212
22999.9999999458,185.346881200105,1.00000000047168,0.534405199783231
23099.9999999443,184.560169379273,1.0000000004724,0.531591278922813
23199.9999999429,183.780727649004,1.00000000050967,0.538631570628555
23299.9999999414,183.008695455952,1.00000000051738,0.540811559733585
23399.99999994,182.244916627587,1.00000000048409,0.533756379803587
23499.9999999385,181.490959494903,1.0000000004083,0.519664783950638
23599.9999999371,180.749066263421,1.00000000036746,0.50361206851902
23699.9999999356,180.019342608299,1.00000000039264,0.495279515437853
23799.9999999342,179.300670231854,1.00000000043147,0.49992700244565
23899.9999999327,178.590588087547,1.0000000005155,0.511132911539064
23999.9999999312,177.887336184137,1.00000000052536,0.519374040637305
24099.9999999298,177.189507410453,1.00000000053698,0.522470894377493
24199.9999999283,176.497188391851,1.00000000051819,0.525347330557281
24299.9999999269,175.810884545218,1.00000000048176,0.533909424093394
24399.9999999254,175.130848256785,1.00000000047557,0.535664538381137
24499.999999924,174.456564932053,1.00000000049329,0.535455567007044
24599.9999999225,173.787006338825,1.00000000054167,0.543647263232238
24699.9999999211,173.121865727037,1.0000000005417,0.54709528587747
24799.9999999196,172.46282442193,1.00000000048694,0.534678481060146
24899.9999999181,171.8131616812,1.00000000043819,0.519549314914484
24999.9999999167,171.175963634892,1.00000000038513,0.50524574872375
25099.9999999152,170.553524905212,1.00000000035869,0.493845436551112
25199.9999999138,169.944619070245,1.00000000040583,0.491064973897391
25299.9999999123,169.346863668949,1.00000000045517,0.495164108008063
25399.9999999109,168.756556956519,1.00000000050377,0.507322309991621
25499.9999999094,168.171214301096,1.00000000054558,0.515721480808362
25599.999999908,167.589420900884,1.00000000051155,0.515218005909606
25699.9999999065,167.011749108694,1.00000000048558,0.513172842574145
25799.9999999051,166.438088076445,1.00000000048829,0.522879313153068
25899.9999999036,165.868217632489,1.00000000049582,0.536187388238896
25999.9999999021,165.301245730777,1.00000000052007,0.53996701455213
26099.9999999007,164.736552081345,1.00000000054117,0.539395886506399
26199.9999998992,164.174258139273,1.00000000055015,0.540748773189721
26299.9999998978,163.615038205538,1.0000000005367,0.541418873204634
26399.9999998963,163.060698527716,1.00000000050601,0.53173801659797
26499.9999998949,162.514588482561,1.00000000044163,0.51643822381289
26599.9999998934,161.980596299016,1.00000000041949,0.505019859258904
26699.999999892,161.460248958017,1.00000000038963,0.501044062053682
26799.9999998905,160.954261963662,1.0000000003849,0.495478102599569
26899.999999889,160.460745261308,1.00000000043222,0.494011953494262
26999.9999998876,159.97705109263,1.00000000047022,0.494786520960444
27099.9999998861,159.500445845474,1.00000000050183,0.50106258089173
27199.9999998847,159.028439075535,1.00000000051111,0.507247827629599
27299.9999998832,158.559718970156,1.0000000005043,0.511676500149878
27399.9999998818,158.092972712958,1.00000000051749,0.513349398293133
27499.9999998803,157.627407167784,1.00000000049882,0.518268343416744
27599.9999998789,157.162590830506,1.00000000051131,0.52720658954894
27699.9999998774,156.697762729014,1.00000000054092,0.537515998391105
27799.9999998759,156.232996265525,1.0000000005215,0.539921625073244
27899.9999998745,155.768863969535,1.00000000051503,0.538180054594793
27999.999999873,155.306777745167,1.00000000049577,0.532304368416102
28099.9999998716,154.848107009126,1.00000000049382,0.529628747935938
28199.9999998701,154.393868882563,1.00000000050739,0.529088921744549
28299.9999998687,153.945631502738,1.00000000048447,0.52118377150755
28399.9999998672,153.505999845319,1.00000000045469,0.513972209651977
28499.9999998658,153.076423706279,1.00000000042225,0.508398024764558
28599.9999998643,152.658649324595,1.00000000042118,0.505937226832368
28699.9999998629,152.252899473688,1.00000000041583,0.504957587950616
28799.9999998614,151.858926342987,1.0000000004267,0.499223089529202
28899.9999998599,151.475642491487,1.00000000043602,0.495158635877256
