Time,AGPnorm,Energy,Entropy
0,0,1,-7.54864574006112e-17
99.9999999999986,0.00143985731430038,0.999999999998635,0.00466403243535469
199.999999999993,0.0100708567429497,0.999999999997946,0.0135393883365673
300,0.0200486277879584,0.999999999999331,0.0249746677240256
400.000000000022,0.0299269680560775,1.00000000000044,0.0395441227891606
500.000000000045,0.0423361193881662,0.999999999998851,0.0572299257601776
600.000000000068,0.0583688290578895,0.99999999999784,0.0775921983462559
700.000000000091,0.0737500742615976,0.999999999998847,0.100818974601414
800.000000000113,0.089337813532047,1.00000000000067,0.127925222603003
900.000000000136,0.105395430331391,1.0000000000019,0.16098415427045
1000.00000000016,0.121545293924023,1.00000000002066,0.20208138638091
1100.0000000001,0.139355608885815,1.00000000011604,0.252514777127672
1200,0.171517719458166,1.00000000035002,0.306819163989562
1299.99999999991,0.229241286101799,1.00000000068447,0.358006934243649
1399.99999999982,0.367058553821706,1.00000000101104,0.402832084671123
1499.99999999973,0.702892554118178,1.0000000012565,0.440855838145487
1599.99999999964,1.32430769702412,1.00000000155056,0.472645369561562
1699.99999999955,2.27697045296021,1.00000000170237,0.499812172644335
1799.99999999946,3.63797129711044,1.00000000186783,0.521684167100865
1899.99999999937,5.4549857929676,1.00000000193573,0.538981240689596
1999.99999999928,7.68751052539552,1.00000000200031,0.552881960290976
2099.99999999919,10.2766617209408,1.0000000019963,0.564459255422401
2199.99999999909,13.1978849505152,1.00000000199182,0.572848846586409
2299.999999999,16.3984215045158,1.00000000204021,0.578161213963457
2399.99999999891,19.7630368667986,1.00000000192967,0.582067001166569
2499.99999999882,23.1940420260922,1.00000000198306,0.585538412898562
2599.99999999873,26.6464792420493,1.0000000018719,0.587009477069495
2699.99999999864,30.0723388783212,1.00000000178607,0.586644795601097
2799.99999999855,33.3925323941329,1.00000000179985,0.585737739490562
2899.99999999846,36.5328176372821,1.00000000175636,0.5851199871319
2999.99999999837,39.4651960300398,1.00000000166363,0.583109090343888
3099.99999999828,42.1819747055354,1.00000000154666,0.580487186672273
3199.99999999819,44.6564838055362,1.00000000161012,0.578614834999485
3299.99999999809,46.8545401622286,1.00000000150188,0.578602672001179
3399.999999998,48.7658366845519,1.0000000014457,0.576022749523503
3499.99999999791,50.4045583848048,1.00000000136243,0.573358619396064
3599.99999999782,51.7767872799103,1.00000000136608,0.572890144714363
3699.99999999773,52.8878366209836,1.00000000128812,0.566593975743121
3799.99999999764,53.7404150088223,1.00000000122671,0.571100349451908
3899.99999999755,54.3479953432388,1.00000000117316,0.565771396417122
3999.99999999746,54.7340563426189,1.00000000114668,0.568547521586228
4099.99999999738,54.9375669003865,1.00000000114046,0.560863643883704
4199.99999999775,54.9439031090278,1.00000000113517,0.563441904517328
4299.99999999811,54.8219169242437,1.00000000117355,0.565078789513879
4399.99999999848,54.540634202684,1.00000000099005,0.542006151020763
4499.99999999884,54.1697078086889,1.00000000140578,0.580018046571844
4599.9999999992,53.7233246413719,1.00000000097279,0.53250382771037
4699.99999999957,53.1691967465621,1.00000000119655,0.55777569681122
4799.99999999993,52.6026678796518,1.00000000135486,0.565283457537946
4900.00000000029,51.975395313388,1.00000000084163,0.510338654997114
5000.00000000066,51.2847661505896,1.00000000129068,0.559023119005547
5100.00000000102,50.6207452632296,1.00000000142123,0.562584774277766
5200.00000000139,49.9302408319462,1.00000000088274,0.49498416963412
5300.00000000175,49.1887428083574,1.00000000120398,0.528867410450983
5400.00000000211,48.474219035305,1.00000000159381,0.574344411784853
5500.00000000248,47.7785024953079,1.00000000107965,0.503698821078594
5600.00000000284,47.0538888653014,1.00000000087872,0.478945852314105
5700.00000000321,46.3225888111703,1.00000000148987,0.54392661795366
5800.00000000357,45.6266142604112,1.00000000148845,0.551696416010258
5900.00000000393,44.9464945023913,1.00000000099741,0.48656476918995
6000.0000000043,44.2577864214118,1.00000000091958,0.479357228388677
6100.00000000466,43.5713302058147,1.00000000135947,0.51291721940443
6200.00000000502,42.9084656937038,1.000000001577,0.547884562971216
6300.00000000539,42.2692983741069,1.0000000012501,0.506924794801197
6400.00000000575,41.6398394946799,1.00000000096906,0.480278754012583
6500.00000000612,41.0186108617108,1.00000000105786,0.499210999963744
6600.00000000648,40.4092958795873,1.00000000126998,0.509363183717852
6700.00000000684,39.8174474880031,1.00000000146619,0.535157154965061
6800.00000000721,39.2435240947703,1.0000000013521,0.519717898328815
6900.00000000757,38.6861429498661,1.00000000101425,0.485174351531931
7000.00000000793,38.1458787114518,1.00000000112004,0.504146173491378
7100.0000000083,37.6203002324924,1.00000000118549,0.519309750335365
7200.00000000866,37.1104849543111,1.00000000106719,0.501778225470928
7300.00000000903,36.6162679935479,1.00000000131545,0.521391316235017
7400.00000000939,36.1334416616858,1.00000000134192,0.520450864083469
7500.00000000975,35.6670261304939,1.00000000104123,0.499851490809903
7600.00000001012,35.2225269663147,1.00000000099719,0.498045548289326
7700.00000001048,34.7929741333843,1.00000000135048,0.518967325269388
7800.00000001084,34.3739845852078,1.00000000121996,0.523021541936183
7900.00000001121,33.9742480748753,1.00000000100191,0.487567733012576
8000.00000001157,33.5901277999142,1.00000000128816,0.513907703432364
8100.00000001194,33.2111098734396,1.00000000140008,0.529753587144844
8200.0000000123,32.8403018980441,1.0000000011873,0.509135968883555
8300.00000001266,32.4898504145407,1.00000000101599,0.495880833866549
8400.00000001303,32.1582018958686,1.00000000111753,0.510500965937412
8500.00000001339,31.8343601052822,1.00000000139938,0.520403274906073
8600.00000001376,31.5150041847929,1.00000000127254,0.523190113260126
8700.00000001412,31.2124049292291,1.00000000104995,0.505505084857918
8800.00000001448,30.9269326558814,1.0000000011381,0.500090489415844
8900.00000001485,30.647782205768,1.00000000135814,0.530762536211902
9000.00000001521,30.3717291344272,1.0000000013437,0.531925673928374
9100.00000001557,30.1013231906271,1.00000000114764,0.517495478087089
9200.00000001594,29.8476916146934,1.0000000010905,0.509660255670037
9300.0000000163,29.609090199503,1.00000000118681,0.521640751794589
9400.00000001667,29.3797817488859,1.00000000114694,0.526051940620827
9500.00000001703,29.1574685972931,1.00000000124935,0.524572918456793
9600.00000001739,28.9401355932634,1.00000000122486,0.517494165835667
9700.00000001776,28.7285102722618,1.00000000117452,0.536657703646532
9800.00000001812,28.5241058660962,1.00000000114182,0.534084071885132
9900.00000001848,28.328940655478,1.00000000112728,0.521626908331506
10000.0000000188,28.1417117421889,1.00000000127483,0.534062904155612
10100.0000000192,27.9599783152891,1.00000000138263,0.544310329430865
10200.0000000196,27.7823122007909,1.0000000013142,0.538345878661608
10300.0000000199,27.6139466525786,1.00000000110673,0.528236267026384
10400.0000000203,27.4610178652907,1.00000000112528,0.523886535467147
10500.0000000207,27.3161903326301,1.00000000124552,0.533660105159011
10600.000000021,27.171338472011,1.00000000129447,0.537801823771217
10700.0000000214,27.0364326552688,1.00000000112175,0.517539386399664
10800.0000000218,26.91578406416,1.00000000117457,0.526480817804832
10900.0000000221,26.798726461603,1.00000000125829,0.529790986622408
11000.0000000225,26.6737252644897,1.00000000136567,0.552970627021577
11100.0000000229,26.5404830387917,1.00000000130936,0.564569730849683
11200.0000000232,26.4098227534424,1.00000000115932,0.555132736520952
11300.0000000236,26.2871616456776,1.00000000110931,0.54235450862754
11400.0000000239,26.1721281861703,1.00000000120392,0.551014720681383
11500.0000000243,26.0614641550182,1.0000000013691,0.555392712067928
11600.0000000247,25.955128111374,1.00000000137048,0.549754780865846
11700.000000025,25.8530477415254,1.00000000122909,0.543206742612939
11800.0000000254,25.7615958709502,1.0000000011614,0.546945699065971
11900.0000000258,25.6797912066194,1.00000000115029,0.547537326034018
12000.0000000261,25.6053866959021,1.00000000116766,0.542220508522188
12100.0000000265,25.5318766862151,1.00000000132943,0.546851141500394
12200.0000000269,25.4577360657677,1.00000000131129,0.551675690301483
12300.0000000272,25.3902900407964,1.00000000113189,0.537510838031758
12400.0000000276,25.3358979486775,1.00000000108023,0.536396038507009
12500.0000000279,25.2868485613054,1.0000000012721,0.559585784883002
12600.0000000283,25.2331881801452,1.00000000133912,0.564472701950975
12700.0000000287,25.1749253314713,1.00000000132123,0.559003093912762
12800.000000029,25.1095538006638,1.00000000135196,0.566760393597232
12900.0000000294,25.0378910103975,1.00000000134927,0.573297906047672
13000.0000000298,24.961901120416,1.00000000134521,0.582908137090797
13100.0000000301,24.882740084919,1.00000000125341,0.581310051036877
13200.0000000305,24.8059465424633,1.00000000117698,0.573465516641794
13300.0000000309,24.7360245515146,1.00000000117236,0.568413874628751
13400.0000000312,24.6741572744529,1.00000000133353,0.564296893509819
13500.0000000316,24.618095380763,1.00000000129908,0.555557854234977
13600.0000000319,24.5662489635703,1.00000000130834,0.556649073543859
13700.0000000323,24.5204771532472,1.00000000122356,0.558115308026236
13800.0000000327,24.483730359771,1.00000000114855,0.559849027694532
13900.000000033,24.455957552511,1.00000000124998,0.561674853568097
14000.0000000334,24.4280359889673,1.00000000133726,0.561486312816798
14100.0000000338,24.3976617011823,1.00000000127915,0.562927335836788
14200.0000000341,24.3745487052052,1.00000000113049,0.551044638600966
14300.0000000345,24.3584882999081,1.00000000119688,0.547764159394936
14400.0000000349,24.3444143301335,1.00000000131439,0.554903361555202
14500.0000000352,24.3305233676706,1.00000000133359,0.565017436713233
14600.0000000356,24.3180887909207,1.0000000012379,0.574754332278614
14700.0000000359,24.3058127023648,1.00000000125062,0.582945283612704
14800.0000000363,24.2916044904725,1.00000000131258,0.590999717714171
14900.0000000367,24.2718116804337,1.00000000129633,0.596077916895953
15000.000000037,24.2509733287787,1.00000000122209,0.593725340963779
15100.0000000374,24.229957343585,1.00000000117609,0.588246715552133
15200.0000000378,24.2088277552026,1.00000000135733,0.590727145871383
15300.0000000381,24.1816725980579,1.00000000137683,0.593319868454252
15400.0000000385,24.1477469997289,1.00000000135164,0.601412902484695
15500.0000000389,24.1033543317096,1.00000000140964,0.60214059092408
15600.0000000392,24.0508108904768,1.0000000014085,0.606715090029662
15700.0000000396,23.9931885383792,1.00000000134568,0.612169479907948
15800.0000000399,23.9364665656391,1.0000000012045,0.606047907585438
15900.0000000403,23.8859508433278,1.00000000118725,0.595898090861389
16000.0000000407,23.8445342095131,1.00000000126898,0.585924861267596
16100.000000041,23.8104343735573,1.00000000127103,0.581962533190001
16200.0000000414,23.7814374430297,1.00000000131675,0.585280432242349
16300.0000000418,23.7581012306369,1.00000000128211,0.57949996570713
16400.0000000418,23.7407301385679,1.00000000130371,0.578830679347336
16500.0000000404,23.7292425880327,1.00000000128796,0.578556601590884
16600.0000000389,23.7246542453505,1.00000000127956,0.584087055946466
16700.0000000375,23.7239686862497,1.0000000013184,0.581349911132145
16800.000000036,23.7247892602172,1.00000000131637,0.578137323893571
16900.0000000346,23.7272756109081,1.00000000130359,0.574077274560255
17000.0000000331,23.7332321438021,1.00000000130979,0.566421002778218
17100.0000000317,23.7425539077504,1.00000000129244,0.564706369564593
17200.0000000302,23.7559522544732,1.00000000127188,0.575717386176489
17300.0000000287,23.7731288309508,1.00000000128249,0.580315081427919
17400.0000000273,23.7914818656678,1.00000000136326,0.582734348185624
17500.0000000258,23.8071163601224,1.0000000014561,0.584461299196409
17600.0000000244,23.8165276910483,1.00000000139944,0.578055434831768
17700.0000000229,23.8250892875666,1.00000000138063,0.573139895465712
17800.0000000215,23.8328366819075,1.00000000130632,0.579733499774302
17900.00000002,23.8415868858056,1.00000000130906,0.59434279262117
18000.0000000186,23.8506004717991,1.00000000134954,0.603338433347294
18100.0000000171,23.8574103644483,1.00000000132813,0.606255662598065
18200.0000000156,23.8609316247209,1.00000000142221,0.605567466908834
18300.0000000142,23.8603113140525,1.00000000138977,0.605726707989063
18400.0000000127,23.8548364089897,1.0000000013656,0.607549152445674
18500.0000000113,23.8483326446664,1.00000000132477,0.613318267291333
18600.0000000098,23.8430175699762,1.00000000136893,0.618995029335157
18700.0000000084,23.8355195096865,1.00000000133499,0.624944842838562
18800.0000000069,23.8220384140801,1.0000000013624,0.626995604075035
18900.0000000055,23.8034701238738,1.00000000134678,0.625913931716854
19000.000000004,23.7812194211273,1.00000000133338,0.620922709026574
19100.0000000026,23.7560263165833,1.00000000138582,0.62049862022251
19200.0000000011,23.7258058406677,1.00000000147223,0.618993006210553
19299.9999999996,23.6888773165104,1.00000000152298,0.61667570476201
19399.9999999982,23.6456654787993,1.00000000146068,0.614730852688948
19499.9999999967,23.5966677983212,1.00000000139538,0.609680069376993
19599.9999999953,23.5450705767285,1.00000000136773,0.61290228578324
19699.9999999938,23.4959371856172,1.0000000012898,0.606042014019845
19799.9999999924,23.4510964925576,1.00000000125183,0.595292817501201
19899.9999999909,23.4128095375483,1.0000000012569,0.594761905036013
19999.9999999895,23.3801838156563,1.00000000138688,0.591602841800954
20099.999999988,23.353342659167,1.00000000141325,0.590591644922596
20199.9999999865,23.3316061186636,1.00000000130792,0.594200274002692
20299.9999999851,23.3163343917758,1.00000000137604,0.588694931475513
20399.9999999836,23.3064641682864,1.00000000129294,0.579119885354677
20499.9999999822,23.3027424057132,1.00000000131143,0.575009130521934
20599.9999999807,23.3035362043935,1.00000000136988,0.580315275827599
20699.9999999793,23.3093792038443,1.00000000141923,0.586913809357823
20799.9999999778,23.320596722142,1.00000000134439,0.582427862339167
20899.9999999764,23.3345968960802,1.00000000144887,0.592877987532282
20999.9999999749,23.3488943710447,1.00000000141918,0.585432364098108
21099.9999999734,23.3653663635676,1.00000000135871,0.584766885690678
21199.999999972,23.3862382268848,1.00000000133165,0.58142260560139
21299.9999999705,23.4096283941679,1.00000000139432,0.569137861853809
21399.9999999691,23.435408655066,1.00000000130431,0.567920808361615
21499.9999999676,23.4673477984141,1.0000000012731,0.57212583709684
21599.9999999662,23.5030802263732,1.00000000136737,0.578762160044249
21699.9999999647,23.5369083628673,1.00000000150158,0.58302124491651
21799.9999999633,23.5669789018505,1.00000000142322,0.588954875264282
21899.9999999618,23.5975552589909,1.00000000134332,0.590068507906851
21999.9999999603,23.6284563213172,1.00000000141181,0.591203689860935
22099.9999999589,23.6557986989952,1.00000000146462,0.593525013111852
22199.9999999574,23.6768927201232,1.00000000147581,0.597641365349227
22299.999999956,23.6936587430654,1.0000000014332,0.602411464667983
22399.9999999545,23.7103302093289,1.00000000137667,0.611925196897529
22499.9999999531,23.7283053050139,1.00000000125551,0.621896189938494
22599.9999999516,23.7485084587612,1.00000000141054,0.624298356981246
22699.9999999502,23.76602410602,1.00000000146299,0.628566269112466
22799.9999999487,23.779204611243,1.00000000144308,0.621495255912181
22899.9999999473,23.788941087636,1.0000000013829,0.62529523553938
22999.9999999458,23.7980915827288,1.00000000136427,0.628822095147005
23099.9999999443,23.8084309254457,1.00000000141947,0.63402634604697
23199.9999999429,23.8197995944431,1.00000000135294,0.630134055091698
23299.9999999414,23.8324020828297,1.00000000136452,0.626055040517821
23399.99999994,23.8421448400572,1.00000000153667,0.625626400554738
23499.9999999385,23.8438767107542,1.00000000150204,0.632717485988227
23599.9999999371,23.8436360430765,1.00000000139927,0.642845050802767
23699.9999999356,23.8426404539345,1.00000000136514,0.637254184834283
23799.9999999342,23.8398238776205,1.00000000147013,0.639610070654491
23899.9999999327,23.8336454124757,1.00000000141969,0.641951166085597
23999.9999999312,23.8268460357709,1.00000000141,0.644700249199891
24099.9999999298,23.8235015063874,1.0000000013165,0.634998939939288
24199.9999999283,23.8209256402373,1.00000000141212,0.63253114842038
24299.9999999269,23.8152787670455,1.0000000014998,0.642186982159379
24399.9999999254,23.806719686912,1.00000000143086,0.640634724179687
24499.999999924,23.7936941500876,1.00000000143351,0.644870578332026
24599.9999999225,23.7752610217668,1.0000000014875,0.637918643846117
24699.9999999211,23.7550226630957,1.00000000142805,0.641469963618702
24799.9999999196,23.7350904301811,1.0000000014433,0.647272813098374
24899.9999999181,23.7141152357999,1.0000000013975,0.639381291867067
24999.9999999167,23.6920860061711,1.00000000147728,0.640219522373964
25099.9999999152,23.6678891424925,1.00000000142597,0.643413825584435
25199.9999999138,23.6413384547881,1.00000000138559,0.640056436141401
25299.9999999123,23.6127028684367,1.0000000014666,0.634574339117018
25399.9999999109,23.5815237674746,1.00000000141779,0.63752013347203
25499.9999999094,23.5481336034122,1.00000000142813,0.641494915713798
25599.999999908,23.5119861148792,1.00000000146468,0.646287801693081
25699.9999999065,23.4736140150104,1.00000000152724,0.651566959341785
25799.9999999051,23.4323583928053,1.00000000149193,0.652123918663735
25899.9999999036,23.3881005482757,1.00000000153943,0.651789315868497
25999.9999999021,23.34164824702,1.0000000014629,0.651311284911185
26099.9999999007,23.2945278166706,1.00000000143526,0.654005074721726
26199.9999998992,23.2471135276673,1.00000000146176,0.654669702058358
26299.9999998978,23.2001349080225,1.00000000131404,0.647194098487257
26399.9999998963,23.1557601620073,1.0000000013981,0.642396131376348
26499.9999998949,23.1151649410014,1.00000000131376,0.633222106550929
26599.9999998934,23.0801058453175,1.0000000013957,0.627649966309373
26699.999999892,23.0496816949129,1.00000000138126,0.625514059418846
26799.9999998905,23.0239599870446,1.00000000146409,0.62917898216831
26899.999999889,23.0028229989626,1.00000000147397,0.637001759579593
26999.9999998876,22.9858882093999,1.00000000143482,0.635236682502034
27099.9999998861,22.9743722797897,1.00000000135133,0.627901356205566
27199.9999998847,22.9677814801156,1.00000000137981,0.624917244123122
27299.9999998832,22.9662164587481,1.00000000136423,0.618784308297076
27399.9999998818,22.9693756806677,1.00000000143973,0.615981853664796
27499.9999998803,22.9762005925819,1.00000000143048,0.614963834379706
27599.9999998789,22.9861325378053,1.00000000140779,0.615072529027169
27699.9999998774,23.0008381570997,1.00000000143434,0.613293145031531
27799.9999998759,23.0168554760736,1.00000000151246,0.615330834054868
27899.9999998745,23.0363915821513,1.00000000144395,0.609535908807516
27999.999999873,23.0587614758694,1.00000000143535,0.608238385338389
28099.9999998716,23.0819438549615,1.0000000015298,0.608487947062409
28199.9999998701,23.1058512268457,1.00000000146481,0.603278980013141
28299.9999998687,23.1315193309928,1.00000000139753,0.602171554028838
28399.9999998672,23.1620606691486,1.00000000140483,0.60011271883022
28499.9999998658,23.1965943834939,1.00000000140789,0.59363625479233
28599.9999998643,23.2330712805316,1.0000000014332,0.598386930734811
28699.9999998629,23.2729283618867,1.00000000141944,0.604783258835498
28799.9999998614,23.3153308094467,1.0000000014377,0.60818084571256
28899.9999998599,23.3563731571093,1.00000000150082,0.607988250798278
28999.9999998585,23.3983902795757,1.00000000145661,0.609788595137648
