Time,AGPnorm,Energy,Entropy
0,0,1,-7.39533890023569e-17
99.9999999999986,0.000803298762565291,1.00000000000182,0.00281958366049139
199.999999999993,0.00526532880963564,1.00000000000042,0.0083804260688468
300,0.0111499183582787,0.999999999998294,0.0153954007320111
400.000000000022,0.0171879238404967,0.999999999999106,0.0240525528513602
500.000000000045,0.0239145654019013,1.00000000000104,0.0347147943795785
600.000000000068,0.0331581980492023,1.00000000000119,0.0471075152274769
700.000000000091,0.0433851674796507,0.999999999999127,0.0606060688717345
800.000000000113,0.0535321852717834,0.999999999998751,0.0752643752992037
900.000000000136,0.0647875699046764,1.00000000000032,0.0919167425857544
1000.00000000016,0.0764358948600268,1.00000000000098,0.110647968856074
1100.0000000001,0.0891395705147214,1.00000000000046,0.131801985075177
1200,0.100783455965835,0.999999999999913,0.155523761850939
1299.99999999991,0.113614009457029,1.00000000000587,0.183466749545181
1399.99999999982,0.124046122677713,1.00000000002667,0.216889804979852
1499.99999999973,0.136176251839951,1.00000000007583,0.254834393510965
1599.99999999964,0.162911717443732,1.00000000016506,0.294649770186924
1699.99999999955,0.216934143802676,1.00000000028938,0.332746826856552
1799.99999999946,0.312853108334088,1.00000000041271,0.36813921496687
1899.99999999937,0.511828501360033,1.0000000005702,0.39967413392702
1999.99999999928,0.912638493612965,1.00000000068965,0.427442145049324
2099.99999999919,1.5746517908365,1.0000000007839,0.451256788939339
2199.99999999909,2.52926619954209,1.00000000091097,0.472201549664208
2299.999999999,3.84340924657762,1.0000000009777,0.490383139575159
2399.99999999891,5.59302467307933,1.00000000101902,0.505748793219033
2499.99999999882,7.80372844043219,1.00000000106946,0.518454462328372
2599.99999999873,10.4422294170469,1.00000000115557,0.529207755093981
2699.99999999864,13.4933454911742,1.00000000115501,0.538599536797173
2799.99999999855,16.9519159251433,1.00000000118402,0.546049073991887
2899.99999999846,20.7808427131141,1.00000000115135,0.551900198365398
2999.99999999837,24.9143307014322,1.0000000011462,0.556420735184363
3099.99999999828,29.2875254587859,1.0000000010966,0.560347822449298
3199.99999999819,33.8513463943937,1.00000000111231,0.563035387873172
3299.99999999809,38.5472356199982,1.00000000112522,0.565106245436419
3399.999999998,43.3123556387888,1.00000000111465,0.565640649178609
3499.99999999791,48.0892547804635,1.00000000102857,0.566257080549571
3599.99999999782,52.8253465410871,1.00000000112977,0.566394744803035
3699.99999999773,57.473492766325,1.00000000098406,0.565889643852314
3799.99999999764,61.9900893849266,1.0000000010168,0.564515536959981
3899.99999999755,66.3398578467084,1.00000000091722,0.564950994653223
3999.99999999746,70.4853301216446,1.0000000009646,0.563362515068381
4099.99999999738,74.406492260468,1.00000000092925,0.560195456458515
4199.99999999775,78.0794438883548,1.0000000008727,0.560405538247886
4299.99999999811,81.4837008581901,1.00000000091264,0.558170690296837
4399.99999999848,84.6192588866146,1.00000000082043,0.555673719922949
4499.99999999884,87.4734843985715,1.00000000084821,0.554972763976907
4599.9999999992,90.0441738114043,1.00000000081077,0.552417765203988
4699.99999999957,92.3277661888795,1.00000000081758,0.550121039771196
4799.99999999993,94.3298749525308,1.00000000074405,0.550494438953353
4900.00000000029,96.0616584444866,1.00000000075437,0.548422216612691
5000.00000000066,97.5230465685347,1.00000000068746,0.5413138507725
5100.00000000102,98.7260991002774,1.0000000006813,0.548906625732157
5200.00000000139,99.693688084957,1.00000000067946,0.546544980290473
5300.00000000175,100.422827990632,1.00000000062742,0.533169482502891
5400.00000000211,100.920843332266,1.00000000066989,0.546746411446603
5500.00000000248,101.245252044574,1.00000000069434,0.554842475067325
5600.00000000284,101.386535645347,1.00000000058475,0.526972490935607
5700.00000000321,101.311760589996,1.00000000057091,0.52742752279848
5800.00000000357,101.100154367172,1.00000000074264,0.562028754616346
5900.00000000393,100.809687121674,1.00000000071108,0.548344465464855
6000.0000000043,100.373635952328,1.00000000046169,0.501648630122204
6100.00000000466,99.7698933198102,1.00000000054066,0.52342172476927
6200.00000000502,99.1096727005704,1.00000000080277,0.569485860418084
6300.00000000539,98.4466959831845,1.00000000075478,0.550289198239962
6400.00000000575,97.699027397932,1.00000000042608,0.484808913067779
6500.00000000612,96.816948793423,1.00000000046805,0.488176575546829
6600.00000000648,95.8891292043914,1.00000000079708,0.558473737554738
6700.00000000684,95.0047166043885,1.00000000090401,0.5718483086745
6800.00000000721,94.1328904384368,1.00000000062461,0.514553314273253
6900.00000000757,93.1849924711379,1.00000000035737,0.444290177969678
7000.00000000793,92.1540871407122,1.00000000052143,0.478342235518964
7100.0000000083,91.1223810485133,1.00000000086327,0.557842628662196
7200.00000000866,90.151131391095,1.00000000098514,0.570264943606537
7300.00000000903,89.2206982920087,1.00000000071492,0.524256948042588
7400.00000000939,88.262947780977,1.00000000043212,0.437247866322809
7500.00000000975,87.247862025304,1.00000000038781,0.423587115345238
7600.00000001012,86.2113753822881,1.00000000067375,0.498685715146289
7700.00000001048,85.2063666874101,1.00000000091557,0.55474550708324
7800.00000001084,84.2556128158257,1.00000000091797,0.558038919316349
7900.00000001121,83.3401933410918,1.00000000071395,0.517040604225651
8000.00000001157,82.4204839135593,1.00000000050757,0.440656808294038
8100.00000001194,81.4778995800464,1.0000000003908,0.40974038539266
8200.0000000123,80.5252851296226,1.00000000055044,0.447576811189406
8300.00000001266,79.5849977820122,1.00000000074107,0.510727071153871
8400.00000001303,78.6734594159785,1.00000000090939,0.544106064315553
8500.00000001339,77.797281968526,1.0000000008653,0.544582525526628
8600.00000001376,76.9472786674305,1.00000000067413,0.510600247355623
8700.00000001412,76.1066775553636,1.00000000053364,0.460891314458672
8800.00000001448,75.2701795143906,1.00000000045136,0.426380639843437
8900.00000001485,74.4427249893294,1.00000000050255,0.433822714306213
9000.00000001521,73.627515167855,1.00000000058058,0.466307622550951
9100.00000001557,72.8274432330851,1.00000000071426,0.501217758258925
9200.00000001594,72.0441505438539,1.00000000078104,0.523477308357584
9300.0000000163,71.2782773213354,1.00000000085969,0.532768288007866
9400.00000001667,70.5298940793184,1.00000000078656,0.532817397011602
9500.00000001703,69.7973905924286,1.00000000063271,0.496342485697691
9600.00000001739,69.0810045676211,1.0000000004851,0.45191632870563
9700.00000001776,68.3847995360022,1.00000000048163,0.441510936025419
9800.00000001812,67.7106716835941,1.00000000061468,0.45290666941912
9900.00000001848,67.055117139085,1.00000000062517,0.479317866628785
10000.0000000188,66.4146192079259,1.00000000061869,0.487677822858916
10100.0000000192,65.7901813225783,1.00000000062878,0.496633730834566
10200.0000000196,65.178530243998,1.00000000064647,0.505833602161696
10300.0000000199,64.573735427022,1.00000000081594,0.527114088657159
10400.0000000203,63.9724348331308,1.0000000009255,0.539973482864453
10500.0000000207,63.3791628318982,1.0000000008176,0.526127934197914
10600.000000021,62.8034587669443,1.00000000053252,0.479939964336734
10700.0000000214,62.2548771831709,1.00000000045421,0.446275124838606
10800.0000000218,61.7355785812163,1.00000000053478,0.444937643802019
10900.0000000221,61.2367197507669,1.00000000065751,0.460722673947305
11000.0000000225,60.7494117403582,1.00000000075864,0.483260940020954
11100.0000000229,60.2704997486865,1.00000000072326,0.501825752743038
11200.0000000232,59.8040729372835,1.00000000058701,0.492399261757805
11300.0000000236,59.3550262196026,1.00000000056312,0.486699968110073
11400.0000000239,58.9205313008459,1.0000000006077,0.496912932542535
11500.0000000243,58.4907723214231,1.00000000074018,0.51555194089997
11600.0000000247,58.0553107932409,1.00000000086479,0.532307794171718
11700.000000025,57.6128249191841,1.0000000008739,0.540240917252095
11800.0000000254,57.1714467576997,1.00000000072174,0.528262753580116
11900.0000000258,56.7437141461789,1.00000000057841,0.498032436296739
12000.0000000261,56.3423133245981,1.00000000048252,0.46520785898554
12100.0000000265,55.9730224410068,1.00000000051512,0.454572810731346
12200.0000000269,55.6315358757584,1.00000000055273,0.457762724135957
12300.0000000272,55.3065195300798,1.00000000069888,0.474482050272206
12400.0000000276,54.9870979430696,1.00000000073101,0.487149929184712
12500.0000000279,54.6705442116565,1.00000000071802,0.494672336596541
12600.0000000283,54.3584696352571,1.00000000067048,0.50514579598251
12700.0000000287,54.0542066069077,1.00000000064137,0.510338269222826
12800.000000029,53.7590067159652,1.0000000006185,0.512675711209639
12900.0000000294,53.4717732871575,1.00000000062817,0.520249137883734
13000.0000000298,53.1885272630397,1.00000000062854,0.526158427262642
13100.0000000301,52.9062096407778,1.00000000071713,0.523387377060691
13200.0000000305,52.6209164089675,1.00000000073707,0.524758831398759
13300.0000000309,52.3296373248984,1.0000000008274,0.534813116040192
13400.0000000312,52.0309895645233,1.00000000085042,0.544252074322872
13500.0000000316,51.7326370967829,1.00000000069082,0.536489386018492
13600.0000000319,51.4485253621556,1.00000000059237,0.513425053953367
13700.0000000323,51.1903048174592,1.00000000050044,0.485387959853789
13800.0000000327,50.9613442191923,1.00000000054908,0.469614856526577
13900.000000033,50.7567745912304,1.00000000059496,0.480214720062128
14000.0000000334,50.5676187211801,1.00000000068167,0.484236865902989
14100.0000000338,50.3878808560963,1.00000000065124,0.482950686626004
14200.0000000341,50.2144428796929,1.00000000066625,0.493920556578366
14300.0000000345,50.0470171195081,1.00000000063417,0.499691698972726
14400.0000000349,49.8908006675895,1.00000000058093,0.496621568246911
14500.0000000352,49.746061428206,1.00000000063951,0.503735189054655
14600.0000000356,49.6029146157185,1.00000000074206,0.519269207206447
14700.0000000359,49.4501130897656,1.00000000079606,0.535877420877646
14800.0000000363,49.2830941247683,1.00000000078572,0.543466297648707
14900.0000000367,49.1053185308464,1.0000000006892,0.547161163772664
15000.000000037,48.9237344283498,1.00000000065456,0.547833745980979
15100.0000000374,48.7451275288968,1.0000000005829,0.534162380753568
15200.0000000378,48.57433703064,1.000000000581,0.525756225559963
15300.0000000381,48.4090419341736,1.00000000065762,0.521554714795917
15400.0000000385,48.241683733055,1.00000000073217,0.523018682573318
15500.0000000389,48.0673285212501,1.0000000007602,0.536146608701224
15600.0000000392,47.8831746249924,1.00000000079767,0.547496871932788
15700.0000000396,47.6931043700447,1.0000000007616,0.549322045535874
15800.0000000399,47.5079898325443,1.00000000069245,0.539450641370856
15900.0000000403,47.3398469785747,1.00000000057247,0.521026589823052
16000.0000000407,47.1963999129502,1.00000000052594,0.501914677173822
16100.000000041,47.0788893246557,1.00000000054966,0.488767759447705
16200.0000000414,46.9845053091148,1.00000000056103,0.485383125177755
16300.0000000418,46.9054053358529,1.00000000063999,0.488192485715915
16400.0000000418,46.8320829710893,1.0000000006905,0.495951288437547
16500.0000000404,46.7606958726364,1.00000000065625,0.495945669635713
16600.0000000389,46.6938698250178,1.0000000006363,0.493958936439921
16700.0000000375,46.6335739913206,1.00000000064401,0.50192144564716
16800.000000036,46.5784507328002,1.00000000066652,0.515675327670717
16900.0000000346,46.5256981329398,1.00000000069705,0.529787355196598
17000.0000000331,46.4768655253793,1.00000000065654,0.536093715578808
17100.0000000317,46.4343832646535,1.00000000063318,0.538863294042497
17200.0000000302,46.3957612636897,1.00000000061206,0.541995159964665
17300.0000000287,46.3566163902756,1.00000000065845,0.543583902937519
17400.0000000273,46.3095034182635,1.0000000006953,0.544871560607297
17500.0000000258,46.2473916100528,1.0000000007542,0.553295866750269
17600.0000000244,46.167693184325,1.00000000081187,0.550790155575932
17700.0000000229,46.0717570088821,1.0000000007642,0.54826865360878
17800.0000000215,45.9642792866233,1.00000000071614,0.55807004251713
17900.00000002,45.8499382845746,1.00000000068591,0.570201358580109
18000.0000000186,45.7335365697839,1.00000000069409,0.568291965123611
18100.0000000171,45.6200984865536,1.00000000058674,0.559539196220522
18200.0000000156,45.5120472921524,1.00000000057654,0.55723391067364
18300.0000000142,45.4100180060561,1.00000000062365,0.551795318920006
18400.0000000127,45.311132191426,1.00000000068469,0.545339255205555
18500.0000000113,45.2115916400497,1.00000000075061,0.551153604456671
18600.0000000098,45.1083932338667,1.00000000076024,0.556699163712011
18700.0000000084,44.9982846802512,1.00000000079772,0.563898722885809
18800.0000000069,44.8816250069694,1.00000000079826,0.567709730151777
18900.0000000055,44.7640821405312,1.00000000070938,0.564546745392532
19000.000000004,44.6549383635909,1.0000000006196,0.551698461306347
19100.0000000026,44.56262064435,1.00000000057586,0.537053678868272
19200.0000000011,44.4917728415955,1.00000000053789,0.526030634947547
19299.9999999996,44.4439505694322,1.00000000055971,0.515145448418356
19399.9999999982,44.4164146483498,1.0000000006166,0.50544093771833
19499.9999999967,44.4002493095371,1.00000000068928,0.507389593094828
19599.9999999953,44.3898575369818,1.0000000007227,0.514547236096996
19699.9999999938,44.3865014362606,1.00000000065795,0.513209727500545
19799.9999999924,44.3889817641701,1.00000000066889,0.506255593175498
19899.9999999909,44.3943120577801,1.00000000066854,0.506846505110108
19999.9999999895,44.4016643090802,1.00000000066751,0.510261976853473
20099.999999988,44.4152037836019,1.00000000063937,0.507082414085523
20199.9999999865,44.4375487785212,1.00000000060745,0.503836974023646
20299.9999999851,44.4667983265828,1.00000000063217,0.517135299532488
20399.9999999836,44.4952506945597,1.00000000071135,0.53997974094258
20499.9999999822,44.5159881070608,1.00000000073883,0.553658115069704
20599.9999999807,44.5267495655639,1.00000000074685,0.558341713017497
20699.9999999793,44.5297014525344,1.00000000069613,0.566051583719401
20799.9999999778,44.529859625868,1.0000000006562,0.568160006419038
20899.9999999764,44.5303269325114,1.00000000065404,0.565358525385705
20999.9999999749,44.5293476943022,1.00000000068973,0.565917064415085
21099.9999999734,44.5245474063882,1.00000000068979,0.575367927666617
21199.999999972,44.5161743435083,1.0000000006697,0.58501103921747
21299.9999999705,44.5054248127552,1.00000000066006,0.585370640992599
21399.9999999691,44.4900364515017,1.00000000068558,0.584766011969499
21499.9999999676,44.4658194247029,1.00000000068196,0.581560542625036
21599.9999999662,44.4324574491196,1.00000000066754,0.579332074554557
21699.9999999647,44.3908085152215,1.00000000068929,0.573406024213613
21799.9999999633,44.3411943281102,1.00000000072724,0.562245639372916
21899.9999999618,44.2834116925367,1.0000000007312,0.553023147957338
21999.9999999603,44.2171481481144,1.0000000007287,0.561787435315782
22099.9999999589,44.1406669546749,1.00000000076466,0.579103405069632
22199.9999999574,44.0554952531938,1.00000000075417,0.585212735374737
22299.999999956,43.9646391079288,1.00000000069081,0.583133136356438
22399.9999999545,43.8728757742252,1.00000000064757,0.580286817829917
22499.9999999531,43.7836128065423,1.00000000060878,0.58083921716832
22599.9999999516,43.6982784481304,1.00000000060613,0.584200792582911
22699.9999999502,43.6175504304068,1.00000000060983,0.587608129704969
22799.9999999487,43.540196777228,1.00000000061341,0.582943625540688
22899.9999999473,43.4652104305756,1.00000000064572,0.579635314272481
22999.9999999458,43.3923539917493,1.00000000068356,0.582579319863704
23099.9999999443,43.3197174683631,1.00000000071449,0.582446290094344
23199.9999999429,43.2460894865595,1.00000000077982,0.579464902076938
23299.9999999414,43.1696415454167,1.00000000078958,0.574230991028137
23399.99999994,43.0900425384928,1.00000000080126,0.570050226040942
23499.9999999385,43.0068808362745,1.00000000077815,0.568937585428005
23599.9999999371,42.9228804280873,1.00000000070167,0.562469459859016
23699.9999999356,42.8432709196057,1.00000000065121,0.560622947864188
23799.9999999342,42.7740994991486,1.00000000061568,0.55722080523449
23899.9999999327,42.7201965660347,1.00000000056788,0.550535393035979
23999.9999999312,42.6840379947514,1.00000000058103,0.541975426995954
24099.9999999298,42.6658948940963,1.00000000057825,0.537238363718804
24199.9999999283,42.663716050258,1.00000000059261,0.531265510191012
24299.9999999269,42.6739964499102,1.00000000068581,0.525057266374337
24399.9999999254,42.6929944005573,1.00000000063456,0.526051919994052
24499.999999924,42.7191203559469,1.00000000069658,0.525055880560103
24599.9999999225,42.7516011877451,1.00000000065282,0.522276864931646
24699.9999999211,42.788155620953,1.00000000070702,0.521389883113064
24799.9999999196,42.8265960639111,1.00000000068673,0.52297747293866
24899.9999999181,42.8697435724245,1.00000000065848,0.522169975650984
24999.9999999167,42.9202440859997,1.00000000063692,0.517426304202985
25099.9999999152,42.9777979810078,1.00000000063507,0.512990068411372
25199.9999999138,43.0398532897387,1.00000000063982,0.51628529344294
25299.9999999123,43.1017904333485,1.00000000070356,0.524200719675972
25399.9999999109,43.1601449585469,1.00000000075327,0.536921149920972
25499.9999999094,43.2132821568893,1.00000000071849,0.544550126857215
25599.999999908,43.2620590605469,1.00000000071521,0.55779174174225
25699.9999999065,43.30755894031,1.00000000068996,0.563585605474996
25799.9999999051,43.3497058894034,1.00000000068978,0.567926498944958
25899.9999999036,43.3883305442186,1.00000000070034,0.573847054278226
25999.9999999021,43.4220872515595,1.00000000069991,0.576898509336311
26099.9999999007,43.4510972692743,1.00000000069564,0.580738729472705
26199.9999998992,43.4762022353486,1.00000000068798,0.583348064960407
26299.9999998978,43.4982298369533,1.00000000070124,0.582920394520085
26399.9999998963,43.5161118432883,1.00000000068568,0.583782098403681
26499.9999998949,43.5293879746792,1.00000000073771,0.581707810233023
26599.9999998934,43.5384860861952,1.00000000072311,0.582132771767145
26699.999999892,43.542935742363,1.00000000070144,0.580129233692509
26799.9999998905,43.5433812545268,1.00000000070773,0.57949657914087
26899.999999889,43.541954195463,1.0000000006617,0.583954043785454
26999.9999998876,43.5396192850308,1.00000000067438,0.580606864802492
27099.9999998861,43.5361218687753,1.00000000067677,0.578474434030635
27199.9999998847,43.5299470286027,1.00000000067875,0.582320044806513
27299.9999998832,43.5194376203109,1.0000000007049,0.585370283916616
27399.9999998818,43.5051467828154,1.00000000070284,0.585878419295486
27499.9999998803,43.4878713252807,1.00000000067263,0.579729417049977
27599.9999998789,43.468290405447,1.0000000006917,0.575876086379313
27699.9999998774,43.4454218727441,1.00000000070111,0.575223802293253
27799.9999998759,43.4192009775668,1.00000000070865,0.572923000858118
27899.9999998745,43.3893270063699,1.00000000073481,0.575711521671638
27999.999999873,43.3540443128376,1.00000000073133,0.58009082331133
28099.9999998716,43.3139529548387,1.0000000007308,0.581673305582478
28199.9999998701,43.2703906640929,1.000000000718,0.590182272791917
28299.9999998687,43.2248392899642,1.00000000068253,0.592097121387761
28399.9999998672,43.1797515790935,1.0000000006426,0.586911916006989
28499.9999998658,43.1356509172041,1.00000000070944,0.588520339670496
28599.9999998643,43.0905255066958,1.00000000066686,0.589487674337479
28699.9999998629,43.044402179189,1.0000000006949,0.587071920974717
28799.9999998614,42.9976656567783,1.00000000065577,0.577749698071082
28899.9999998599,42.9498036495781,1.00000000067321,0.574776801773788
28999.9999998585,42.8986736554558,1.00000000069654,0.575865503194625
