Time,AGPnorm,Energy,Entropy
0,0,1,-1.46356548393043e-17
99.9999999999986,3.77840626719366e-05,0.999999999999438,0.00155708965161777
199.999999999993,0.00332302826671824,1.00000000000209,0.00243353297895061
300,0.00838282624986528,0.999999999998694,0.00426048026048334
400.000000000022,0.0116868278283568,1.00000000000128,0.00728389135982826
500.000000000045,0.0140782354713118,1.00000000000058,0.00962661306141934
600.000000000068,0.020067516916908,0.999999999999068,0.0134531986277175
700.000000000091,0.0246009573217483,1.00000000000207,0.017127014961046
800.000000000113,0.0314304636467398,0.999999999999149,0.0209990656262806
900.000000000136,0.0390126488346141,1.00000000000066,0.0259053890320256
1000.00000000016,0.0451711733398147,1.00000000000099,0.0302560536671714
1100.0000000001,0.0542838213968741,0.999999999998979,0.0355323662355659
1200,0.0635150342253751,1.00000000000186,0.0410217101336313
1299.99999999991,0.0726396652904769,0.999999999999629,0.0464653833393389
1399.99999999982,0.082283621972305,1.00000000000012,0.0528757192673144
1499.99999999973,0.0915254784192469,1.00000000000128,0.058949528159975
1599.99999999964,0.102922438590107,0.999999999999138,0.065708501446593
1699.99999999955,0.114857651081082,1.00000000000144,0.0729926556208128
1799.99999999946,0.125777964597075,0.999999999999974,0.0801448540692526
1899.99999999937,0.136941628972351,0.999999999999783,0.0882724180999353
1999.99999999928,0.148449420196585,1.00000000000146,0.0964363639292015
2099.99999999919,0.160725443712013,0.999999999999481,0.105227912533485
2199.99999999909,0.173315322131671,1.00000000000097,0.114937680677808
2299.999999999,0.185017528607332,1.00000000000025,0.124713376581149
2399.99999999891,0.197067861968854,0.999999999999734,0.135793869421492
2499.99999999882,0.209660609635377,1.00000000000197,0.147690206881409
2599.99999999873,0.221992456200713,1.00000000000161,0.160662031823185
2699.99999999864,0.233937172046488,1.00000000000592,0.175632083773206
2799.99999999855,0.244962668970676,1.00000000001544,0.191525864155197
2899.99999999846,0.258832881714996,1.00000000003129,0.209326322431307
2999.99999999837,0.26896905266636,1.0000000000605,0.228217936859519
3099.99999999828,0.284618076553563,1.00000000010378,0.247016930580604
3199.99999999819,0.304153559611643,1.00000000015343,0.266404601177965
3299.99999999809,0.321198253653238,1.00000000021279,0.284928163311003
3399.999999998,0.370230991891909,1.00000000027408,0.303355114878519
3499.99999999791,0.42185022475026,1.00000000033722,0.321698598993674
3599.99999999782,0.513290229417549,1.00000000041524,0.338685569273881
3699.99999999773,0.662759273319509,1.00000000048587,0.355736122742569
3799.99999999764,0.843585247948637,1.00000000054215,0.371883663826698
3899.99999999755,1.13605192794522,1.00000000062318,0.387080198602765
3999.99999999746,1.50478150242237,1.00000000068986,0.4020776898682
4099.99999999738,1.98395214469544,1.00000000074459,0.415907907008582
4199.99999999775,2.62549009997311,1.00000000080253,0.42926743616517
4299.99999999811,3.37800379917271,1.0000000008218,0.442192905332375
4399.99999999848,4.32895582697854,1.00000000085651,0.453930108584135
4499.99999999884,5.457027181854,1.00000000094885,0.465141785081511
4599.9999999992,6.76093102848183,1.00000000094091,0.47565508461929
4699.99999999957,8.30687575673353,1.00000000097521,0.485429681295324
4799.99999999993,10.0346016416711,1.00000000103732,0.494762312095798
4900.00000000029,11.9990136462491,1.00000000103822,0.50324978598276
5000.00000000066,14.1957908220805,1.00000000105238,0.511436939151683
5100.00000000102,16.5925665027714,1.00000000111557,0.518839853915201
5200.00000000139,19.2422319417364,1.00000000109164,0.525745683004644
5300.00000000175,22.0934004940283,1.00000000115689,0.532031829283347
5400.00000000211,25.161574103881,1.00000000112711,0.537993577472811
5500.00000000248,28.4490470274954,1.00000000114483,0.543468612312316
5600.00000000284,31.9141766821159,1.00000000115054,0.548710718416054
5700.00000000321,35.5841481861049,1.0000000011568,0.553316464527464
5800.00000000357,39.4215265379985,1.00000000112547,0.557794117326638
5900.00000000393,43.4187534652758,1.00000000111919,0.561721722265935
6000.0000000043,47.5735566999741,1.0000000011497,0.565088752851976
6100.00000000466,51.849943361029,1.0000000011677,0.568267927794893
6200.00000000502,56.2543263787689,1.00000000114818,0.571500453787966
6300.00000000539,60.7592668718689,1.00000000109941,0.574334331165627
6400.00000000575,65.3509524669174,1.00000000114602,0.576682456133305
6500.00000000612,70.0203905446161,1.00000000108971,0.579201493232691
6600.00000000648,74.7405373218961,1.00000000112836,0.580990336538304
6700.00000000684,79.5082987088345,1.00000000108945,0.582907640511151
6800.00000000721,84.3008333472636,1.00000000105315,0.584549297738793
6900.00000000757,89.1077585596002,1.00000000109239,0.585793527493319
7000.00000000793,93.916146307223,1.0000000010398,0.587320088124588
7100.0000000083,98.7060720437481,1.00000000105765,0.587958548972078
7200.00000000866,103.473939002449,1.00000000100501,0.588889919948969
7300.00000000903,108.199638009696,1.00000000103747,0.589924174505931
7400.00000000939,112.877187755388,1.00000000100585,0.590625887643047
7500.00000000975,117.494828227174,1.00000000099586,0.590903858477162
7600.00000001012,122.037859923471,1.00000000098673,0.591243156071612
7700.00000001048,126.505401265559,1.00000000100805,0.591576507260637
7800.00000001084,130.878989805051,1.00000000097297,0.59213470235825
7900.00000001121,135.157882873916,1.00000000092095,0.591965474827446
8000.00000001157,139.334707945842,1.0000000009462,0.592082330780729
8100.00000001194,143.395974027357,1.00000000094192,0.592421908508057
8200.0000000123,147.34761224385,1.0000000008959,0.591775291918295
8300.00000001266,151.171494103133,1.00000000090492,0.592190042900564
8400.00000001303,154.873797006248,1.00000000088323,0.591798272572688
8500.00000001339,158.445337788599,1.00000000087324,0.591419790796119
8600.00000001376,161.882411377063,1.00000000086283,0.591538353798552
8700.00000001412,165.18614505644,1.0000000008541,0.59027950478141
8800.00000001448,168.348950302471,1.00000000084453,0.590940425662976
8900.00000001485,171.37129431885,1.00000000083883,0.58960473000649
9000.00000001521,174.254981214665,1.00000000082645,0.590091116946713
9100.00000001557,176.991050964577,1.00000000079442,0.589090940784993
9200.00000001594,179.589482091698,1.00000000079282,0.589214837937666
9300.0000000163,182.040696948356,1.00000000079866,0.587658021357193
9400.00000001667,184.349628151177,1.00000000078295,0.588600655329969
9500.00000001703,186.519956825836,1.00000000075071,0.586692151198148
9600.00000001739,188.543096238032,1.00000000075702,0.587459459020236
9700.00000001776,190.433024703199,1.00000000074342,0.586771254871449
9800.00000001812,192.179602611527,1.00000000072276,0.585516176884012
9900.00000001848,193.790307169619,1.00000000073118,0.586983758779782
10000.0000000188,195.270215817043,1.00000000070998,0.584998994904786
10100.0000000192,196.612646041337,1.00000000073132,0.585707442351484
10200.0000000196,197.831203952658,1.00000000071583,0.58600274199311
10300.0000000199,198.921558537734,1.00000000069754,0.583669732305382
10400.0000000203,199.885845150483,1.00000000067135,0.585042724397447
10500.0000000207,200.734326520482,1.00000000066862,0.58510731642802
10600.000000021,201.461097192292,1.00000000065751,0.581960366049339
10700.0000000214,202.07399992303,1.00000000066047,0.584386458343716
10800.0000000218,202.579147303769,1.0000000006579,0.585361525836616
10900.0000000221,202.976915623697,1.00000000062042,0.580186871598857
11000.0000000225,203.268937440366,1.0000000006365,0.58252448687301
11100.0000000229,203.464867977257,1.00000000065202,0.58599677047209
11200.0000000232,203.572087912549,1.00000000061451,0.57894907901678
11300.0000000236,203.583271593595,1.00000000059424,0.57788824231636
11400.0000000239,203.51025059888,1.00000000064644,0.583981063955741
11500.0000000243,203.365167131545,1.0000000006436,0.58068195813641
11600.0000000247,203.14069613261,1.00000000059212,0.574837754109201
11700.000000025,202.839753307953,1.00000000059411,0.575931300228586
11800.0000000254,202.47406904631,1.00000000065529,0.582769307313552
11900.0000000258,202.053460220749,1.0000000006518,0.577969841875453
12000.0000000261,201.572984235398,1.00000000056485,0.568020154715094
12100.0000000265,201.026375975487,1.00000000058077,0.571026151313046
12200.0000000269,200.437115574453,1.00000000065319,0.583756683262117
12300.0000000272,199.813788898978,1.00000000063508,0.573938300840934
12400.0000000276,199.141373761265,1.0000000005369,0.560897899141267
12500.0000000279,198.415026542296,1.00000000056573,0.565168060928155
12600.0000000283,197.657737188666,1.00000000072003,0.584957215670303
12700.0000000287,196.883982903895,1.00000000066989,0.572704341331929
12800.000000029,196.077266944675,1.00000000055084,0.556488654161889
12900.0000000294,195.225840990156,1.00000000054934,0.553890605664617
13000.0000000298,194.349083929069,1.00000000072667,0.579482069201026
13100.0000000301,193.466164593557,1.00000000074626,0.57873833494322
13200.0000000305,192.570840297796,1.00000000058993,0.557186340124539
13300.0000000309,191.644149091447,1.00000000052924,0.545976613238439
13400.0000000312,190.688126895033,1.0000000006184,0.556513451926498
13500.0000000316,189.726049993847,1.00000000074182,0.583088890427875
13600.0000000319,188.769741030798,1.00000000074771,0.569126722734548
13700.0000000323,187.803945472809,1.00000000058746,0.547312268680586
13800.0000000327,186.814865408906,1.00000000054923,0.539114005165085
13900.000000033,185.806770616842,1.0000000006423,0.552228687697419
14000.0000000334,184.800612847649,1.00000000078103,0.582709160706821
14100.0000000338,183.806628855584,1.00000000074885,0.565685318725304
14200.0000000341,182.810115215159,1.00000000060115,0.540807749220441
14300.0000000345,181.799053163571,1.00000000056935,0.53505605840094
14400.0000000349,180.773660131858,1.00000000060717,0.54170697377391
14500.0000000352,179.749793390358,1.00000000077271,0.571222935317205
14600.0000000356,178.739978051601,1.00000000083184,0.574874586615235
14700.0000000359,177.737621935949,1.00000000062236,0.538245929204064
14800.0000000363,176.730409184901,1.00000000060918,0.53204846430005
14900.0000000367,175.714384194315,1.00000000057091,0.534804622286456
15000.000000037,174.695826508445,1.00000000069104,0.547226463567291
15100.0000000374,173.684480796987,1.00000000078972,0.570408793206904
15200.0000000378,172.687354571175,1.00000000079014,0.562280354711628
15300.0000000381,171.697536632141,1.00000000063295,0.530241812743403
15400.0000000385,170.705781119296,1.00000000061553,0.526403394310408
15500.0000000389,169.712702690679,1.0000000006158,0.53760043704036
15600.0000000392,168.720401449253,1.00000000066164,0.543330380465974
15700.0000000396,167.735744188439,1.0000000007431,0.55629054614041
15800.0000000399,166.763342170847,1.00000000078091,0.559249206157377
15900.0000000403,165.799313995865,1.00000000072006,0.536942876793963
16000.0000000407,164.840465518291,1.0000000006135,0.521507232709839
16100.000000041,163.883011150817,1.00000000061874,0.533407239686482
16200.0000000414,162.92978925587,1.0000000006672,0.543404132304852
16300.0000000418,161.982783469141,1.00000000068777,0.541092298691895
16400.0000000418,161.043614555293,1.00000000069574,0.546047508575557
16500.0000000404,160.114554099859,1.00000000074132,0.547887635160848
16600.0000000389,159.193930119507,1.00000000066424,0.531815338999295
16700.0000000375,158.279496418982,1.00000000063615,0.523483512382407
16800.000000036,157.371307789917,1.00000000063539,0.534494464780013
16900.0000000346,156.468998095146,1.0000000006623,0.542857935528238
17000.0000000331,155.57417125411,1.00000000063674,0.539742820985478
17100.0000000317,154.686865023226,1.0000000006757,0.534188418370622
17200.0000000302,153.807588782452,1.00000000068696,0.536797936571043
17300.0000000287,152.93727648443,1.00000000071892,0.538760856644054
17400.0000000273,152.074678323858,1.0000000006706,0.532813674801902
17500.0000000258,151.22026184537,1.00000000063457,0.529886321885569
17600.0000000244,150.37367225264,1.00000000063753,0.537735699761824
17700.0000000229,149.534891716599,1.00000000063255,0.542605455461787
17800.0000000215,148.704013148592,1.0000000006548,0.537058922980774
17900.00000002,147.880723040378,1.00000000064857,0.528385486855591
18000.0000000186,147.065863123629,1.00000000066274,0.528295823647931
18100.0000000171,146.259648687214,1.00000000065634,0.535650627052452
18200.0000000156,145.461397810324,1.00000000068755,0.542900877412968
18300.0000000142,144.671720548321,1.00000000067384,0.536455683250208
18400.0000000127,143.890336952698,1.00000000064175,0.537027003796558
18500.0000000113,143.117877600555,1.0000000006431,0.542908967708925
18600.0000000098,142.353847642117,1.00000000062428,0.540976540073521
18700.0000000084,141.59846895448,1.00000000060675,0.52988591689149
18800.0000000069,140.851976186636,1.00000000062794,0.52451183574131
18900.0000000055,140.113999611542,1.00000000069568,0.529780128680951
19000.000000004,139.384507654497,1.00000000065149,0.533818687626532
19100.0000000026,138.663361612445,1.0000000006841,0.543950307700249
19200.0000000011,137.949799361166,1.00000000064553,0.545427993893311
19299.9999999996,137.244425304081,1.00000000066023,0.540165140489791
19399.9999999982,136.547122638061,1.00000000066097,0.543022596713194
19499.9999999967,135.858715323118,1.00000000064602,0.543062263276719
19599.9999999953,135.180053176102,1.00000000056916,0.53262340026409
19699.9999999938,134.511714602979,1.00000000057635,0.522031534802244
19799.9999999924,133.852893077236,1.00000000064585,0.523899809856857
19899.9999999909,133.202213448515,1.00000000069045,0.529662158831598
19999.9999999895,132.558984645747,1.00000000067323,0.531922334093927
20099.999999988,131.923631980038,1.00000000065935,0.536674717052841
20199.9999999865,131.295034635026,1.00000000066596,0.547624002015434
20299.9999999851,130.67325757849,1.00000000070722,0.54744925283681
20399.9999999836,130.058056450502,1.00000000070048,0.544672600880739
20499.9999999822,129.450174036605,1.00000000067641,0.542927062773846
20599.9999999807,128.851654221027,1.00000000059269,0.533668130965451
20699.9999999793,128.264649011047,1.00000000054312,0.523516899986497
20799.9999999778,127.689248213847,1.00000000056112,0.517173232855572
20899.9999999764,127.12332142027,1.00000000065379,0.519264225843404
20999.9999999749,126.563836334426,1.00000000069894,0.528938880416296
21099.9999999734,126.01069170222,1.00000000067502,0.52542292297021
21199.999999972,125.464455889117,1.00000000067152,0.527869539055747
21299.9999999705,124.923616626908,1.00000000068497,0.540492303836005
21399.9999999691,124.387395205669,1.00000000070995,0.550717605548134
21499.9999999676,123.855550471991,1.00000000072683,0.549714257399238
21599.9999999662,123.328904661994,1.00000000070268,0.545073906514368
21699.9999999647,122.808815581266,1.00000000068247,0.539741190106967
21799.9999999633,122.298769427715,1.00000000058434,0.525756233101672
21899.9999999618,121.801258388166,1.00000000054915,0.521139737201457
21999.9999999603,121.315646671778,1.00000000058327,0.518278709014629
22099.9999999589,120.839462603715,1.00000000065976,0.517316546276733
22199.9999999574,120.369513296145,1.00000000069939,0.519672029241895
22299.999999956,119.904406920477,1.00000000069928,0.520547696736175
22399.9999999545,119.444385765204,1.00000000069189,0.519960774355033
22499.9999999531,118.989407931448,1.00000000064265,0.524334681941962
22599.9999999516,118.537627013209,1.00000000072961,0.53693092226496
22699.9999999502,118.087354931198,1.00000000072023,0.550563639457181
22799.9999999487,117.639262598919,1.00000000071483,0.551743841906148
22899.9999999473,117.195239126637,1.00000000068393,0.539504493574562
22999.9999999458,116.758000584712,1.00000000061685,0.532857343354156
23099.9999999443,116.329583183257,1.00000000061962,0.530557966675846
23199.9999999429,115.911828106772,1.00000000062297,0.522261704937606
23299.9999999414,115.505750682378,1.00000000058889,0.523496525364271
23399.99999994,115.109372762203,1.00000000061141,0.523197554350127
23499.9999999385,114.721381550819,1.0000000006648,0.517283735838468
23599.9999999371,114.339552404641,1.00000000068984,0.516403319755093
23699.9999999356,113.962405695287,1.00000000067119,0.517521026864723
23799.9999999342,113.589213817188,1.00000000066196,0.518839465132278
23899.9999999327,113.219004655888,1.00000000067888,0.525077610127942
23999.9999999312,112.849799340145,1.00000000074801,0.531918791970849
24099.9999999298,112.479890802717,1.0000000007343,0.537738511094543
24199.9999999283,112.110169276727,1.00000000069314,0.545063451182577
24299.9999999269,111.742801451984,1.00000000067549,0.546419565934378
24399.9999999254,111.379816443301,1.00000000066099,0.539874806619452
24499.999999924,111.023106011686,1.00000000066072,0.53434296977533
24599.9999999225,110.673794649524,1.00000000064501,0.532745678076722
24699.9999999211,110.333451154118,1.00000000061829,0.530552214244228
24799.9999999196,110.00303578626,1.00000000060422,0.525448574992397
24899.9999999181,109.681462010379,1.00000000061939,0.526208800895186
24999.9999999167,109.3681439399,1.00000000063434,0.526743412624208
25099.9999999152,109.061943641462,1.00000000062133,0.521707117050085
25199.9999999138,108.76240510381,1.00000000062132,0.520148453262822
25299.9999999123,108.467615893483,1.00000000065606,0.523537268278285
25399.9999999109,108.175596784599,1.00000000066033,0.526538627626392
25499.9999999094,107.885125262889,1.00000000069747,0.532160494570819
25599.999999908,107.594791180855,1.000000000697,0.531277723907914
25699.9999999065,107.304491144073,1.00000000068967,0.53270792877731
25799.9999999051,107.013513607991,1.00000000074453,0.536990632274685
25899.9999999036,106.721815947884,1.00000000069376,0.545654960990981
25999.9999999021,106.431771156892,1.00000000067275,0.547821131466915
26099.9999999007,106.145746053198,1.00000000063841,0.544906027801841
26199.9999998992,105.865387535401,1.00000000065154,0.542244705940885
26299.9999998978,105.591557108071,1.00000000062694,0.541103016084731
26399.9999998963,105.324294604901,1.00000000064761,0.540345921572212
26499.9999998949,105.064060724246,1.00000000064924,0.536168440752415
26599.9999998934,104.811634389088,1.00000000060625,0.529046601151875
26699.999999892,104.569081633644,1.00000000060118,0.5254337966198
26799.9999998905,104.335437635357,1.00000000062246,0.528269670688684
26899.999999889,104.107781008901,1.00000000064257,0.530188167420366
26999.9999998876,103.884160509255,1.0000000007011,0.53124223794827
27099.9999998861,103.663438539328,1.00000000066194,0.531477167920858
27199.9999998847,103.446373509632,1.00000000064488,0.529497952903071
27299.9999998832,103.231795104265,1.00000000066471,0.533811089568123
27399.9999998818,103.017931550879,1.00000000069306,0.540691154306366
27499.9999998803,102.803777255662,1.00000000067533,0.538901386315749
27599.9999998789,102.588539718981,1.00000000071596,0.538988897032659
27699.9999998774,102.371079426676,1.00000000071533,0.541161769884318
27799.9999998759,102.152729875275,1.00000000070153,0.54055589223813
27899.9999998745,101.935344509598,1.00000000064961,0.544761785703648
27999.999999873,101.721031440162,1.00000000066349,0.547782785013821
28099.9999998716,101.50966452907,1.00000000067321,0.551051457256385
28199.9999998701,101.30090186109,1.00000000069714,0.550826494164911
28299.9999998687,101.09541727503,1.0000000006819,0.545664277837459
28399.9999998672,100.894220135247,1.00000000067334,0.541876453709124
28499.9999998658,100.698114101262,1.00000000063718,0.53675452463353
28599.9999998643,100.510095399716,1.00000000059857,0.528733567661246
28699.9999998629,100.330888866145,1.00000000060052,0.526793206652282
28799.9999998614,100.160420766524,1.00000000062808,0.526812808431682
28899.9999998599,99.9958214751615,1.00000000067106,0.534293417941662
