Time,AGPnorm,Energy,Entropy
0,0,1,-1.4035012369839e-17
99.9999999999986,2.35872736183664e-05,1.00000000000154,0.00102458642974355
199.999999999993,0.00203896611453373,1.00000000000106,0.00160690566266154
300,0.00514409358105063,1.00000000000033,0.00286195047152903
400.000000000022,0.00722124467801524,1.00000000000196,0.00484801983814867
500.000000000045,0.0087891994105606,1.00000000000011,0.00649618024384842
600.000000000068,0.0124235559645647,1.00000000000129,0.00910340642408805
700.000000000091,0.0153668882638007,1.00000000000132,0.011585846698359
800.000000000113,0.0199192404659981,1.00000000000022,0.0143082229124685
900.000000000136,0.0248103101294653,1.00000000000191,0.0175809058631232
1000.00000000016,0.0287030033775133,1.00000000000024,0.0206227476998914
1100.0000000001,0.0343677916342545,1.00000000000108,0.0242599288373029
1200,0.040460750830092,1.00000000000158,0.0279275223592673
1299.99999999991,0.046840010318028,1.00000000000013,0.0317281005094854
1399.99999999982,0.0533148732247487,1.00000000000176,0.0359859270494504
1499.99999999973,0.0594876951418847,1.00000000000044,0.0400982447982078
1599.99999999964,0.067116200261662,1.00000000000092,0.0446632491377319
1699.99999999955,0.0752985228181946,1.00000000000175,0.049379782435786
1799.99999999946,0.0830163940641951,1.00000000000004,0.0541744988184988
1899.99999999937,0.0908058529840462,1.00000000000157,0.0593868370885174
1999.99999999928,0.0989706269442952,1.00000000000073,0.0645556724113396
2099.99999999919,0.108038306411861,1.00000000000079,0.0701502276349108
2199.99999999909,0.117235966195935,1.00000000000182,0.0759913768869405
2299.999999999,0.125820951105708,0.999999999999979,0.0818972768110793
2399.99999999891,0.134649983227626,1.00000000000142,0.0882644184545432
2499.99999999882,0.144313583310157,1.00000000000106,0.0947394063844355
2599.99999999873,0.154129605844989,1.00000000000063,0.101679439105129
2699.99999999864,0.163559320062967,1.00000000000178,0.108986880977175
2799.99999999855,0.172665417198376,1.00000000000005,0.116453808244317
2899.99999999846,0.182179097618965,1.00000000000138,0.124574775960722
2999.99999999837,0.19251851980603,1.00000000000138,0.133103709961761
3099.99999999828,0.202362866572831,1.00000000000065,0.142260534037911
3199.99999999819,0.211640988764129,1.00000000000221,0.152181910856622
3299.99999999809,0.220852367629454,1.00000000000177,0.162665404804045
3399.999999998,0.230976170951915,1.00000000000471,0.174347044304192
3499.99999999791,0.240639026537633,1.00000000000858,0.186986148737197
3599.99999999782,0.250260793924437,1.00000000001549,0.200466578661917
3699.99999999773,0.26055618579104,1.00000000002736,0.214849215415095
3799.99999999764,0.268804317228617,1.00000000004235,0.229499212935233
3899.99999999755,0.28453669834442,1.00000000006341,0.244671854220901
3999.99999999746,0.298140350918043,1.00000000008663,0.259824815762681
4099.99999999738,0.318136678555855,1.00000000011644,0.274608917961164
4199.99999999775,0.354382864026184,1.00000000014616,0.289363748303402
4299.99999999811,0.393434235413792,1.00000000018104,0.303650741670102
4399.99999999848,0.468477702833044,1.00000000022167,0.317689056785744
4499.99999999884,0.566494115850739,1.00000000025131,0.331427513111431
4599.9999999992,0.701674207410739,1.00000000029239,0.344468103881414
4699.99999999957,0.904469962406581,1.00000000031694,0.357413131839341
4799.99999999993,1.15270895931605,1.00000000034805,0.369821063770116
4900.00000000029,1.49631013650071,1.00000000039305,0.381755956755806
5000.00000000066,1.93076147892848,1.00000000042109,0.393258330785622
5100.00000000102,2.46413288276462,1.00000000043924,0.404275365483472
5200.00000000139,3.14092897165772,1.00000000047042,0.414934754326678
5300.00000000175,3.93771510248299,1.00000000053886,0.42497209649249
5400.00000000211,4.90045636124006,1.00000000053579,0.434713592295864
5500.00000000248,6.0322613128933,1.0000000005689,0.443971440015247
5600.00000000284,7.33149287657102,1.00000000060234,0.45273844071435
5700.00000000321,8.83936002430363,1.00000000061025,0.461264143726539
5800.00000000357,10.5351454391802,1.00000000061153,0.469313466643311
5900.00000000393,12.4495028226595,1.00000000064258,0.476762691590422
6000.0000000043,14.5835989245611,1.00000000064364,0.484089308538499
6100.00000000466,16.9310215888384,1.0000000006625,0.49071456383657
6200.00000000502,19.5183969066256,1.00000000066948,0.49732352407018
6300.00000000539,22.3250519531749,1.00000000069183,0.503244643459087
6400.00000000575,25.3690591485023,1.00000000070296,0.508946044079077
6500.00000000612,28.6413335499533,1.00000000071447,0.514418634429489
6600.00000000648,32.1350989002189,1.0000000007301,0.519334872122204
6700.00000000684,35.8628647166329,1.00000000071629,0.524208446119877
6800.00000000721,39.7982677433538,1.00000000071129,0.528640047287174
6900.00000000757,43.9549676097551,1.00000000074374,0.532672198954682
7000.00000000793,48.3126481816205,1.00000000074262,0.536795694777089
7100.0000000083,52.8630216295511,1.00000000074375,0.540311222155663
7200.00000000866,57.6129368390059,1.00000000072285,0.543639019665644
7300.00000000903,62.5264871505413,1.00000000073488,0.546948233268161
7400.00000000939,67.617988997335,1.00000000074731,0.549740014610621
7500.00000000975,72.8616439203074,1.00000000073779,0.552661670548374
7600.00000001012,78.2431957244815,1.00000000074574,0.554998149230219
7700.00000001048,83.7734262768505,1.0000000007239,0.557349538650616
7800.00000001084,89.4063356527412,1.00000000071787,0.559913879574646
7900.00000001121,95.1574860045005,1.00000000071819,0.561569580810419
8000.00000001157,101.003508539524,1.0000000007376,0.56343489642938
8100.00000001194,106.921473830249,1.00000000072779,0.565201915640742
8200.0000000123,112.928531345702,1.00000000071651,0.566714848596215
8300.00000001266,118.97592502403,1.00000000070303,0.568374719616524
8400.00000001303,125.076675882376,1.00000000070969,0.569218741349032
8500.00000001339,131.215697321572,1.0000000006685,0.570663946103559
8600.00000001376,137.360591473643,1.00000000066985,0.571894792063777
8700.00000001412,143.535611991246,1.00000000068443,0.572229192418342
8800.00000001448,149.694912214722,1.00000000065313,0.573508294490925
8900.00000001485,155.845141157345,1.00000000065816,0.573987048587742
9000.00000001521,161.98225742684,1.00000000066939,0.574355443025358
9100.00000001557,168.070263774306,1.0000000006557,0.575419923745469
9200.00000001594,174.133344856938,1.00000000066049,0.57527137233997
9300.0000000163,180.135383040668,1.00000000064518,0.576163995790617
9400.00000001667,186.07463583547,1.00000000061395,0.576293686248975
9500.00000001703,191.958153990105,1.00000000064369,0.576421196636156
9600.00000001739,197.748585195275,1.00000000064093,0.576708819182593
9700.00000001776,203.46842952851,1.000000000627,0.576790084010254
9800.00000001812,209.093315323308,1.00000000061497,0.576761577796554
9900.00000001848,214.613474635387,1.00000000062476,0.576944788508016
10000.0000000188,220.045799733194,1.00000000062041,0.576996307096166
10100.0000000192,225.353198573019,1.00000000060118,0.576536584839295
10200.0000000196,230.555657729961,1.00000000059213,0.577268725546417
10300.0000000199,235.640443175595,1.00000000057967,0.576252416628053
10400.0000000203,240.590756256358,1.00000000056611,0.57661999934986
10500.0000000207,245.430399189672,1.0000000005618,0.576527790955339
10600.000000021,250.12687559165,1.00000000055466,0.575317496706055
10700.0000000214,254.694026057883,1.00000000057438,0.576065923259563
10800.0000000218,259.130847025873,1.00000000055137,0.575309848576854
10900.0000000221,263.417357701625,1.00000000053811,0.574677715879363
11000.0000000225,267.576192356188,1.00000000054363,0.575447501436585
11100.0000000229,271.584968292177,1.00000000055231,0.573997272214698
11200.0000000232,275.449939348136,1.00000000051389,0.574019889100386
11300.0000000236,279.176677568504,1.00000000052952,0.574308462632662
11400.0000000239,282.748051147582,1.00000000051561,0.573138390298802
11500.0000000243,286.181930756556,1.00000000051334,0.572949817454303
11600.0000000247,289.464267453576,1.00000000051254,0.573202104534941
11700.000000025,292.600275835092,1.00000000049572,0.571985378886563
11800.0000000254,295.594982485057,1.00000000050872,0.571896215507497
11900.0000000258,298.436466936369,1.00000000047992,0.571770554047904
12000.0000000261,301.140791917818,1.00000000047501,0.57043607652831
12100.0000000265,303.696333298812,1.000000000487,0.570733501266447
12200.0000000269,306.108205952622,1.00000000047059,0.570572472499258
12300.0000000272,308.384313599187,1.00000000048256,0.569473031810903
12400.0000000276,310.512238260865,1.00000000047061,0.569564719749884
12500.0000000279,312.507795661656,1.00000000044318,0.568774075739504
12600.0000000283,314.364248088665,1.0000000004489,0.569184429152276
12700.0000000287,316.083969460572,1.00000000044181,0.569145605789356
12800.000000029,317.677435815161,1.00000000044567,0.566982153882586
12900.0000000294,319.131589868727,1.00000000043833,0.566820626914277
13000.0000000298,320.461491968756,1.000000000433,0.56865796338823
13100.0000000301,321.667266904761,1.00000000043039,0.568692544605217
13200.0000000305,322.747344077796,1.00000000041937,0.566659490660345
13300.0000000309,323.71121603692,1.00000000040815,0.564307876644572
13400.0000000312,324.54966928061,1.00000000039787,0.565404057197659
13500.0000000316,325.275553325748,1.00000000042318,0.569027547855604
13600.0000000319,325.896086613809,1.0000000004109,0.568793448731869
13700.0000000323,326.407635147382,1.00000000039422,0.563858263414318
13800.0000000327,326.813614427028,1.00000000038605,0.560018645727262
13900.000000033,327.10708300769,1.00000000037554,0.564673763950345
14000.0000000334,327.308247550942,1.00000000041502,0.571119141334064
14100.0000000338,327.427442937853,1.00000000041898,0.568607470575779
14200.0000000341,327.45639770858,1.00000000037046,0.560007169696956
14300.0000000345,327.392134773457,1.00000000035085,0.555051307623494
14400.0000000349,327.230434860781,1.00000000037207,0.561574454474866
14500.0000000352,326.994580364951,1.00000000042008,0.571398001056923
14600.0000000356,326.702720797426,1.00000000044152,0.570951224968494
14700.0000000359,326.343855448834,1.00000000037812,0.558605740615092
14800.0000000363,325.908411334088,1.00000000034086,0.547695172821558
14900.0000000367,325.385884994661,1.0000000003498,0.552012696341373
15000.000000037,324.800051658328,1.00000000041396,0.56867414223695
15100.0000000374,324.179286844256,1.00000000046283,0.575590528972375
15200.0000000378,323.520224618784,1.00000000041112,0.563016190443902
15300.0000000381,322.811858401573,1.00000000036313,0.545692019118384
15400.0000000385,322.027511353796,1.00000000030361,0.53687650085062
15500.0000000389,321.179540143893,1.00000000037662,0.552583423842444
15600.0000000392,320.297955090622,1.00000000046483,0.574453374499871
15700.0000000396,319.403442541718,1.0000000004805,0.575601187638929
15800.0000000399,318.492221998161,1.00000000041207,0.556416839366462
15900.0000000403,317.537810216053,1.00000000033433,0.534701057492314
16000.0000000407,316.521865980383,1.00000000028899,0.525602319628381
16100.000000041,315.454449527984,1.00000000036345,0.545322319615535
16200.0000000414,314.365419746742,1.00000000048552,0.573837179235055
16300.0000000418,313.282873500132,1.00000000051764,0.579333202377726
16400.0000000418,312.201467717201,1.00000000044128,0.558518163554211
16500.0000000404,311.095180322941,1.00000000033519,0.529403693858377
16600.0000000389,309.942239569075,1.00000000028377,0.513531166857849
16700.0000000375,308.739793974345,1.00000000032728,0.52344628542693
16800.000000036,307.516414272401,1.00000000043698,0.559249177117684
16900.0000000346,306.300425430754,1.000000000541,0.581450681672088
17000.0000000331,305.102554958211,1.00000000052145,0.572911873970213
17100.0000000317,303.909429302871,1.00000000040943,0.542159887550676
17200.0000000302,302.691468358888,1.00000000031762,0.513163650730644
17300.0000000287,301.436018460754,1.00000000027476,0.501265343296323
17400.0000000273,300.1444019114,1.00000000033985,0.518235980366873
17500.0000000258,298.842661582361,1.00000000045407,0.558797390472855
17600.0000000244,297.558286524163,1.00000000054304,0.581865029061945
17700.0000000229,296.297257926915,1.0000000005298,0.572509928337375
17800.0000000215,295.048530710481,1.00000000045011,0.542244487945465
17900.00000002,293.790052287696,1.00000000034674,0.509842022699583
18000.0000000186,292.504337607223,1.00000000028072,0.493739970430561
18100.0000000171,291.191803943707,1.00000000030109,0.501678778871702
18200.0000000156,289.864618758761,1.00000000040559,0.533662239336935
18300.0000000142,288.547104924737,1.00000000053675,0.569616822286346
18400.0000000127,287.253411664818,1.00000000057882,0.578915574313668
18500.0000000113,285.980992888006,1.00000000053893,0.561175390988713
18600.0000000098,284.71930243461,1.00000000043329,0.528054109682744
18700.0000000084,283.449242674945,1.00000000032975,0.498736149248365
18800.0000000069,282.162598549193,1.00000000029005,0.490534432345785
18900.0000000055,280.859283597021,1.0000000003191,0.499147589558462
19000.000000004,279.548620743933,1.00000000039168,0.524590527317527
19100.0000000026,278.246952859555,1.00000000049846,0.55605320733364
19200.0000000011,276.964311282427,1.00000000055378,0.571915774872551
19299.9999999996,275.702642545832,1.00000000053482,0.562846247916666
19399.9999999982,274.456638494189,1.00000000046178,0.536210435872578
19499.9999999967,273.213159971565,1.00000000037795,0.507251610689833
19599.9999999953,271.965386775242,1.00000000031308,0.492325248985886
19699.9999999938,270.708508198137,1.00000000030914,0.492820443560614
19799.9999999924,269.446391199791,1.00000000037178,0.504381449599566
19899.9999999909,268.185572935375,1.00000000041866,0.522763589175779
19999.9999999895,266.933285619887,1.00000000047368,0.544830263593726
20099.999999988,265.696721172609,1.00000000051356,0.558712099605884
20199.9999999865,264.477243288166,1.00000000051618,0.55468576317199
20299.9999999851,263.271227784651,1.00000000046916,0.536532650361182
20399.9999999836,262.073582315769,1.0000000004098,0.513648605318941
20499.9999999822,260.87770906568,1.00000000035642,0.498256148901515
20599.9999999807,259.682365304802,1.00000000034232,0.496102230538818
20699.9999999793,258.486791648326,1.00000000037109,0.501843614764494
20799.9999999778,257.293724976576,1.00000000039518,0.510265169990402
20899.9999999764,256.10629748592,1.00000000040703,0.519015604222899
20999.9999999749,254.927276073951,1.00000000046655,0.532139270761285
21099.9999999734,253.760246878324,1.00000000049809,0.543665116540546
21199.999999972,252.606331244388,1.00000000051122,0.54371462596943
21299.9999999705,251.463452953803,1.00000000048079,0.533982777202573
21399.9999999691,250.329924991161,1.00000000043943,0.51930836314809
21499.9999999676,249.202720315153,1.00000000038046,0.50854904439759
21599.9999999662,248.081388968711,1.00000000036794,0.505665056999123
21699.9999999647,246.965348756528,1.00000000037407,0.506722281373597
21799.9999999633,245.854690657949,1.00000000036688,0.507016439885393
21899.9999999618,244.750169786423,1.00000000037608,0.510075613512726
21999.9999999603,243.652113958619,1.00000000042183,0.514204348863845
22099.9999999589,242.562521606856,1.0000000004246,0.519488433780951
22199.9999999574,241.482523451635,1.00000000044627,0.52610516522727
22299.999999956,240.411996316866,1.00000000046405,0.532150352819401
22399.9999999545,239.351099699593,1.00000000045089,0.531702046690963
22499.9999999531,238.299050512272,1.00000000044686,0.526509257808302
22599.9999999516,237.25521093697,1.00000000041161,0.520923715216281
22699.9999999502,236.219676048614,1.00000000040399,0.517038184070039
22799.9999999487,235.192044872214,1.00000000037857,0.515496417794877
22899.9999999473,234.172984436356,1.00000000038772,0.516704275533771
22999.9999999458,233.161585463847,1.0000000003717,0.512494881211641
23099.9999999443,232.15839454949,1.00000000035874,0.507811049123686
23199.9999999429,231.163161055153,1.00000000037704,0.504325963323129
23299.9999999414,230.176170614396,1.00000000039579,0.506335992516519
23399.99999994,229.198000471392,1.00000000042879,0.512753479509452
23499.9999999385,228.2284580516,1.00000000043461,0.519898105109779
23599.9999999371,227.266806870353,1.00000000046101,0.530267571711297
23699.9999999356,226.313358936727,1.00000000043698,0.530745852330104
23799.9999999342,225.367876745228,1.00000000041836,0.528750663771305
23899.9999999327,224.430758385931,1.00000000040069,0.522804547537684
23999.9999999312,223.501906069322,1.00000000042255,0.525276015028546
24099.9999999298,222.581496846279,1.00000000042902,0.530710402631216
24199.9999999283,221.669830658698,1.00000000039963,0.527329485456765
24299.9999999269,220.767216495716,1.00000000039023,0.519587157216484
24399.9999999254,219.874613624197,1.00000000034592,0.507064310192601
24499.999999924,218.992064876595,1.0000000003296,0.494426817063381
24599.9999999225,218.120156453309,1.00000000035006,0.49166117102478
24699.9999999211,217.258121027584,1.00000000038549,0.497701194517122
24799.9999999196,216.404731487699,1.00000000044226,0.508793715283034
24899.9999999181,215.558482280142,1.00000000047301,0.518318772797504
24999.9999999167,214.718570885007,1.0000000004548,0.522033967337694
25099.9999999152,213.884815070044,1.00000000043834,0.527895049317748
25199.9999999138,213.058421221202,1.00000000040658,0.528374151717884
25299.9999999123,212.239831897889,1.00000000039446,0.525063648222608
25399.9999999109,211.428694337369,1.00000000040566,0.527021194270605
25499.9999999094,210.624102115075,1.00000000045593,0.537065769758534
25599.999999908,209.825759356103,1.00000000045562,0.540337264317493
25699.9999999065,209.034478652255,1.00000000043354,0.532132481843152
25799.9999999051,208.251897947472,1.00000000039015,0.51805936540583
25899.9999999036,207.480916294059,1.00000000033515,0.501476538347453
25999.9999999021,206.722771146223,1.00000000030862,0.486027220249685
26099.9999999007,205.978680562463,1.00000000030522,0.478216059502856
26199.9999998992,205.247035138173,1.0000000003602,0.485197834644399
26299.9999998978,204.524637261127,1.00000000042266,0.497577905141864
26399.9999998963,203.808465134784,1.00000000046647,0.509309639851388
26499.9999998949,203.096637953109,1.00000000047511,0.51384239394138
26599.9999998934,202.388305161121,1.00000000046945,0.515090369074674
26699.999999892,201.684423390143,1.00000000044121,0.517920270478579
26799.9999998905,200.986696374444,1.00000000038905,0.523905660134097
26899.999999889,200.295468718631,1.00000000040919,0.527085621490637
26999.9999998876,199.609789210226,1.00000000042427,0.525887010438917
27099.9999998861,198.928413860756,1.00000000044922,0.533918263163487
27199.9999998847,198.249996007375,1.00000000049059,0.544622577926824
27299.9999998832,197.574999611909,1.00000000047747,0.539518986848548
27399.9999998818,196.905670373511,1.00000000042596,0.525708570670769
27499.9999998803,196.245067716197,1.00000000038436,0.509737141088742
27599.9999998789,195.597125772511,1.00000000032229,0.494986456003693
27699.9999998774,194.964398157907,1.00000000029893,0.482822641231982
27799.9999998759,194.347152535392,1.00000000031534,0.47550791748785
27899.9999998745,193.7441003041,1.00000000034542,0.477380306761457
27999.999999873,193.151367842793,1.00000000040942,0.486804764908868
28099.9999998716,192.565586724909,1.00000000044885,0.498081965296104
28199.9999998701,191.983257887068,1.00000000046341,0.507548489600853
28299.9999998687,191.403086855714,1.00000000046432,0.510571166275029
28399.9999998672,190.824148863474,1.00000000044314,0.508486775531887
28499.9999998658,190.247344863795,1.00000000043835,0.511429318999617
28599.9999998643,189.674228623654,1.00000000042434,0.518958954129439
28699.9999998629,189.104926744249,1.0000000004227,0.529470370829552
28799.9999998614,188.538787198207,1.00000000041941,0.529489744090745
28899.9999998599,187.975105976251,1.00000000043297,0.529002783135635
