Time,AGPnorm,Energy,Entropy
0,0,1,-1.10918642694591e-17
99.9999999999986,3.12587922788241e-05,1.00000000000239,0.00124399729968812
199.999999999993,0.00263356252696309,0.999999999999604,0.00197055680567595
300,0.00656818826997657,1.00000000000156,0.00354486903560721
400.000000000022,0.00900986216164331,1.00000000000139,0.00595896678652042
500.000000000045,0.0111907246426708,0.999999999999626,0.00808839559057239
600.000000000068,0.0161029242250081,1.00000000000249,0.0112106199682897
700.000000000091,0.0199415295442585,0.999999999999815,0.0143030127630002
800.000000000113,0.0252863718500181,1.00000000000113,0.0177471752219979
900.000000000136,0.0315944457918047,1.00000000000185,0.0216703092893322
1000.00000000016,0.0371142327885624,0.999999999999355,0.0255512958691453
1100.0000000001,0.0441490188291978,1.00000000000241,0.0299765388082888
1200,0.0515140187967095,1.00000000000018,0.0345018877163926
1299.99999999991,0.0593212390195695,1.00000000000063,0.0393380349500182
1399.99999999982,0.0680085106952438,1.00000000000226,0.0444762487696819
1499.99999999973,0.0763802098709436,0.999999999999241,0.0497357056274204
1599.99999999964,0.0851191936066563,1.00000000000217,0.0554206158083994
1699.99999999955,0.0947112468617069,1.00000000000067,0.0612544028572333
1799.99999999946,0.104488210117844,1.00000000000017,0.067462728706891
1899.99999999937,0.114761503425685,1.00000000000251,0.0739504891909296
1999.99999999928,0.124976072893597,0.999999999999298,0.0806669089666454
2099.99999999919,0.134942369714211,1.00000000000174,0.0878705208059055
2199.99999999909,0.145804175506407,1.00000000000126,0.0953081760146422
2299.999999999,0.156822310017622,0.999999999999817,0.103266347423188
2399.99999999891,0.167701018339577,1.00000000000257,0.111678531014613
2499.99999999882,0.178659339795598,0.999999999999516,0.120483337225659
2599.99999999873,0.189365439479594,1.00000000000128,0.130081486272502
2699.99999999864,0.200714941126644,1.00000000000204,0.140263412668549
2799.99999999855,0.212109253904351,1.00000000000018,0.151424351755743
2899.99999999846,0.222882114026057,1.00000000000434,0.163665542076494
2999.99999999837,0.233347143188301,1.00000000000489,0.177001111789046
3099.99999999828,0.244466262411321,1.00000000001308,0.191824765608553
3199.99999999819,0.256171720773813,1.00000000002718,0.20777931847286
3299.99999999809,0.2660390603102,1.00000000004451,0.224519448301698
3399.999999998,0.28108020872181,1.00000000007676,0.24182178319351
3499.99999999791,0.293475805640042,1.00000000011241,0.258922308081354
3599.99999999782,0.315176373211508,1.00000000014907,0.276154835769901
3699.99999999773,0.350398081829222,1.0000000001939,0.293021763289841
3799.99999999764,0.391872468191582,1.00000000024898,0.309382473626719
3899.99999999755,0.470501309639662,1.00000000031086,0.32542291859675
3999.99999999746,0.575928293695614,1.00000000035639,0.340720409338227
4099.99999999738,0.731088439936207,1.00000000039309,0.355945781450305
4199.99999999775,0.955932282428108,1.00000000045736,0.370320141303859
4299.99999999811,1.24611986666344,1.00000000049565,0.384110844392093
4399.99999999848,1.64145076380224,1.00000000056315,0.397495377648309
4499.99999999884,2.14316099744614,1.00000000059497,0.410081096934615
4599.9999999992,2.77362685186763,1.00000000064631,0.422362010217305
4699.99999999957,3.5527003599423,1.00000000070813,0.433924713683575
4799.99999999993,4.48855316129382,1.00000000071846,0.444645637740748
4900.00000000029,5.60388244744749,1.00000000074749,0.455358235558395
5000.00000000066,6.90322620586159,1.00000000078616,0.465004144837686
5100.00000000102,8.41056481575927,1.00000000079238,0.474433195759319
5200.00000000139,10.1198501323898,1.00000000081107,0.483281250435304
5300.00000000175,12.0508042719724,1.00000000083668,0.491144152243748
5400.00000000211,14.2081032947404,1.00000000085337,0.499140228225853
5500.00000000248,16.5783586882468,1.00000000088112,0.506311475256057
5600.00000000284,19.1971822862496,1.00000000090048,0.512819522588429
5700.00000000321,22.0260929551789,1.00000000092017,0.519452592588886
5800.00000000357,25.0828084409182,1.00000000094095,0.525079741145766
5900.00000000393,28.3730332889866,1.0000000009531,0.530720882671033
6000.0000000043,31.8514591265662,1.00000000095129,0.536001656575198
6100.00000000466,35.5663948453019,1.00000000095241,0.540285694840044
6200.00000000502,39.4630232210783,1.00000000094443,0.545152444987417
6300.00000000539,43.540385724361,1.00000000097382,0.548956112989137
6400.00000000575,47.8220702887221,1.00000000094874,0.552756024630457
6500.00000000612,52.2344131020645,1.00000000092233,0.556645055520879
6600.00000000648,56.8276118301438,1.0000000009527,0.559354208743672
6700.00000000684,61.5539794653247,1.0000000009585,0.562712706564486
6800.00000000721,66.3852477360354,1.00000000097021,0.565392320537656
6900.00000000757,71.3657966325767,1.00000000093621,0.567611375941679
7000.00000000793,76.4096590632516,1.0000000009507,0.570290837176894
7100.0000000083,81.5551967734731,1.0000000009599,0.571928160258384
7200.00000000866,86.7776883277936,1.00000000090247,0.574268491389339
7300.00000000903,92.0253349158559,1.00000000092761,0.576030007667562
7400.00000000939,97.3536157083176,1.00000000088279,0.577102968978541
7500.00000000975,102.683095124443,1.0000000008887,0.578917853759524
7600.00000001012,108.033043585285,1.00000000088121,0.579935563769736
7700.00000001048,113.40327449773,1.00000000089523,0.580823068672468
7800.00000001084,118.730056191917,1.00000000087057,0.582146446043946
7900.00000001121,124.068965045627,1.00000000088396,0.582402637865242
8000.00000001157,129.358347862401,1.00000000085712,0.58351660937469
8100.00000001194,134.597617860442,1.00000000085907,0.584197895818942
8200.0000000123,139.807080463966,1.00000000082917,0.584384286444065
8300.00000001266,144.92224175991,1.0000000008336,0.585160258135836
8400.00000001303,149.989033233835,1.00000000083227,0.584883816123472
8500.00000001339,154.969758926734,1.00000000079678,0.585682614423933
8600.00000001376,159.847120680931,1.00000000080581,0.585618609776515
8700.00000001412,164.653982069613,1.0000000007799,0.585595852230283
8800.00000001448,169.331902645412,1.00000000076953,0.585594321126586
8900.00000001485,173.916847323688,1.00000000078732,0.585849042920397
9000.00000001521,178.388397598919,1.00000000075229,0.584854841799055
9100.00000001557,182.722800804492,1.00000000076251,0.586059550793553
9200.00000001594,186.956626226025,1.00000000073965,0.584341888097248
9300.0000000163,191.041509626111,1.00000000072692,0.585323999581587
9400.00000001667,195.005088580285,1.0000000007233,0.584751782293579
9500.00000001703,198.837357592729,1.00000000070979,0.583839102583732
9600.00000001739,202.515412962591,1.00000000069574,0.58502346185834
9700.00000001776,206.07252595266,1.00000000068923,0.582877327624014
9800.00000001812,209.47425537928,1.00000000069788,0.583719080979596
9900.00000001848,212.737106208073,1.00000000068302,0.582692775869395
10000.0000000188,215.862505856344,1.00000000067364,0.582351063274797
10100.0000000192,218.828524104289,1.00000000067154,0.582250101711579
10200.0000000196,221.664509501532,1.00000000065847,0.581389978661891
10300.0000000199,224.34850333721,1.00000000064784,0.581127365934511
10400.0000000203,226.887466574216,1.00000000063188,0.580374782874862
10500.0000000207,229.291824642343,1.0000000006325,0.580634182333014
10600.000000021,231.540631463135,1.00000000061208,0.579806424789563
10700.0000000214,233.658288158732,1.00000000058781,0.579490628121774
10800.0000000218,235.633251452874,1.00000000061002,0.580175054172496
10900.0000000221,237.466029689944,1.00000000059603,0.578350952393697
11000.0000000225,239.170016179669,1.00000000058913,0.578719827570525
11100.0000000229,240.730072005582,1.00000000057923,0.578490735429482
11200.0000000232,242.165300730941,1.00000000056214,0.577684934248803
11300.0000000236,243.46849057965,1.00000000059582,0.577851345598477
11400.0000000239,244.641274652197,1.00000000055842,0.576725567556948
11500.0000000243,245.694905514156,1.00000000055348,0.576426467473027
11600.0000000247,246.61891143201,1.00000000054923,0.578995829963973
11700.000000025,247.432698672589,1.00000000053441,0.575706323492012
11800.0000000254,248.126802147946,1.00000000051565,0.573835911543893
11900.0000000258,248.70272731971,1.00000000054633,0.578206975833663
12000.0000000261,249.181556834617,1.00000000053891,0.577509203745143
12100.0000000265,249.54941503018,1.00000000051946,0.572594459847252
12200.0000000269,249.81461769211,1.00000000050707,0.572236938199948
12300.0000000272,249.981564950945,1.00000000052067,0.577102797558599
12400.0000000276,250.057431041256,1.00000000052318,0.578151129992962
12500.0000000279,250.053950306966,1.0000000004983,0.570842037231421
12600.0000000283,249.952783631309,1.00000000047595,0.565743304790146
12700.0000000287,249.767733172221,1.00000000050026,0.575538429110826
12800.000000029,249.518216180331,1.00000000054493,0.579391403192767
12900.0000000294,249.201274756909,1.00000000049882,0.569317373847721
13000.0000000298,248.810923818582,1.00000000043988,0.559394507664611
13100.0000000301,248.340314448789,1.00000000049416,0.568273898563856
13200.0000000305,247.81962161597,1.00000000055485,0.580464806297233
13300.0000000309,247.261011988587,1.00000000055707,0.572280228244571
13400.0000000312,246.644790870765,1.00000000045355,0.557822209340583
13500.0000000316,245.965206963725,1.00000000043427,0.55338768467561
13600.0000000319,245.229615686417,1.00000000052545,0.572456863118561
13700.0000000323,244.469928661542,1.00000000059703,0.581337955108756
13800.0000000327,243.689874111573,1.00000000053445,0.565310534171075
13900.000000033,242.863266447553,1.00000000045161,0.548520761202131
14000.0000000334,241.984073853163,1.00000000043744,0.544580516559636
14100.0000000338,241.065429033222,1.00000000056105,0.573473977817713
14200.0000000341,240.142595522588,1.00000000062891,0.582709681659968
14300.0000000345,239.212728678428,1.0000000005722,0.562386395436034
14400.0000000349,238.250943884612,1.00000000044401,0.540399694735586
14500.0000000352,237.245592847268,1.00000000041414,0.532807607518705
14600.0000000356,236.206278086651,1.00000000054696,0.563082443289151
14700.0000000359,235.170999018648,1.00000000068193,0.58648675835664
14800.0000000363,234.143497054612,1.0000000005835,0.565818108404719
14900.0000000367,233.103740718155,1.00000000047812,0.541199523852875
15000.000000037,232.033286655038,1.00000000039671,0.523919919304293
15100.0000000374,230.928347279468,1.0000000004533,0.534779548617902
15200.0000000378,229.816556817197,1.00000000063529,0.576940297102978
15300.0000000381,228.72318594185,1.00000000068799,0.581548972285539
15400.0000000385,227.637471514192,1.00000000058355,0.553302929681152
15500.0000000389,226.543907860961,1.00000000045535,0.528020974070409
15600.0000000392,225.424510968572,1.00000000040629,0.517039656459114
15700.0000000396,224.282894404292,1.00000000049535,0.531861926948868
15800.0000000399,223.142983661502,1.00000000065851,0.571509660293729
15900.0000000403,222.01939634011,1.00000000071152,0.581927743160052
16000.0000000407,220.912959241761,1.00000000064361,0.553673262073701
16100.000000041,219.804636138886,1.00000000046116,0.523227134791127
16200.0000000414,218.68134652612,1.00000000042385,0.51514607942138
16300.0000000418,217.543712236942,1.00000000044431,0.520046434247307
16400.0000000418,216.400698743701,1.00000000057489,0.547640688953127
16500.0000000404,215.271009790765,1.00000000064822,0.576603648536345
16600.0000000389,214.160657709415,1.00000000068609,0.568347725592213
16700.0000000375,213.060366755045,1.00000000056277,0.53551362831357
16800.000000036,211.960396462994,1.00000000044922,0.513640390865615
16900.0000000346,210.851019479081,1.00000000043511,0.51468299773128
17000.0000000331,209.73657413707,1.00000000048254,0.523279078990667
17100.0000000317,208.623257640504,1.00000000055362,0.53959699109882
17200.0000000302,207.519990845988,1.00000000065885,0.56457207679321
17300.0000000287,206.433853747162,1.00000000068189,0.564709077643464
17400.0000000273,205.359597345523,1.00000000059208,0.536906343578412
17500.0000000258,204.290203779754,1.00000000049201,0.513815811171661
17600.0000000244,203.220905753395,1.00000000047162,0.513611723532066
17700.0000000229,202.150399305252,1.00000000047691,0.522446990605777
17800.0000000215,201.082723979053,1.00000000052622,0.527052178668352
17900.00000002,200.02019783778,1.00000000055708,0.537266795387309
18000.0000000186,198.968440984873,1.0000000006294,0.553905922357418
18100.0000000171,197.92976814628,1.00000000065573,0.55065497178655
18200.0000000156,196.900591453436,1.00000000057782,0.532304438231518
18300.0000000142,195.87893936785,1.00000000050545,0.515706341554338
18400.0000000127,194.861537713283,1.00000000050007,0.516045771721057
18500.0000000113,193.848796893379,1.00000000051388,0.52464303075296
18600.0000000098,192.841043352755,1.00000000050747,0.526821474280575
18700.0000000084,191.838734912181,1.00000000056637,0.526961676774163
18800.0000000069,190.844804221305,1.00000000055891,0.530273590531897
18900.0000000055,189.860315421696,1.00000000061334,0.541140657147408
19000.000000004,188.885271930595,1.00000000058835,0.540602744601547
19100.0000000026,187.919747885947,1.00000000058152,0.531137184942496
19200.0000000011,186.961758034038,1.00000000054201,0.521376048776543
19299.9999999996,186.011968836938,1.00000000053829,0.523722682487804
19399.9999999982,185.069149899785,1.00000000051008,0.528332146226435
19499.9999999967,184.133526215742,1.0000000005212,0.527887565229622
19599.9999999953,183.204964994354,1.00000000051313,0.522644565368095
19699.9999999938,182.283545241713,1.00000000053785,0.521604990394693
19799.9999999924,181.370577048025,1.00000000056355,0.524944014356663
19899.9999999909,180.466330712242,1.00000000057869,0.534582812624633
19999.9999999895,179.570411963284,1.00000000056797,0.54089668469896
20099.999999988,178.683285884175,1.00000000054845,0.5348661453828
20199.9999999865,177.804407309381,1.00000000051898,0.529943289609282
20299.9999999851,176.934479470012,1.00000000051681,0.531816443486116
20399.9999999836,176.07315543958,1.00000000051417,0.534346674295238
20499.9999999822,175.22047091613,1.00000000050083,0.529180211135591
20599.9999999807,174.376124530265,1.00000000049829,0.51987770369304
20699.9999999793,173.539889364081,1.00000000050844,0.513348826938248
20799.9999999778,172.712333902829,1.00000000053494,0.517227005260502
20899.9999999764,171.893362214923,1.00000000057508,0.524964273663497
20999.9999999749,171.082218460568,1.00000000058154,0.538239080413198
21099.9999999734,170.278993597098,1.0000000005659,0.543113160757783
21199.999999972,169.483568128145,1.00000000055977,0.538296840945147
21299.9999999705,168.696281460011,1.00000000053899,0.535103260292878
21399.9999999691,167.916940529227,1.00000000057232,0.541923834125592
21499.9999999676,167.14608442213,1.0000000005574,0.53977975372661
21599.9999999662,166.384606271217,1.00000000049862,0.531456659588089
21699.9999999647,165.633097385878,1.0000000004577,0.514161510983329
21799.9999999633,164.892427562458,1.00000000044686,0.504954990211409
21899.9999999618,164.1615815344,1.00000000051392,0.508421388488983
21999.9999999603,163.439260906355,1.00000000054882,0.520107636200999
22099.9999999589,162.724331901903,1.00000000059415,0.52572110295617
22199.9999999574,162.015999121754,1.00000000056919,0.532123193944996
22299.999999956,161.314498977376,1.00000000054035,0.541506343830813
22399.9999999545,160.619925816804,1.00000000052983,0.540772194626964
22499.9999999531,159.931957763094,1.00000000053686,0.540785082240287
22599.9999999516,159.249580768756,1.00000000060438,0.549111758114611
22699.9999999502,158.573329479888,1.00000000059273,0.545561929501345
22799.9999999487,157.905559030622,1.00000000051804,0.533349314021342
22899.9999999473,157.248489737646,1.00000000044385,0.518168082037826
22999.9999999458,156.604725896848,1.00000000039585,0.501021111897109
23099.9999999443,155.973675073254,1.00000000044184,0.49696889148841
23199.9999999429,155.353164425217,1.00000000051443,0.503382212895251
23299.9999999414,154.739973700177,1.00000000058409,0.518417737001049
23399.99999994,154.132434409098,1.00000000058842,0.519761572065037
23499.9999999385,153.530056684768,1.00000000057124,0.522315290657934
23599.9999999371,152.932670072084,1.00000000054999,0.532781661726482
23699.9999999356,152.340343239889,1.0000000005504,0.542135605347303
23799.9999999342,151.752455767714,1.00000000057249,0.544740271941225
23899.9999999327,151.168231219278,1.00000000057593,0.544332757641633
23999.9999999312,150.587189756634,1.00000000061902,0.550198610292145
24099.9999999298,150.010380287258,1.0000000005952,0.544834454877561
24199.9999999283,149.441021407016,1.0000000005119,0.527058881033698
24299.9999999269,148.883659250377,1.00000000044346,0.512544906895975
24399.9999999254,148.340245972107,1.00000000042478,0.502880600289635
24499.999999924,147.811228823871,1.00000000045528,0.494335461240239
24599.9999999225,147.294060820501,1.00000000049639,0.495969835861109
24699.9999999211,146.78527584857,1.00000000055439,0.503932127213786
24799.9999999196,146.281863198142,1.00000000058082,0.515494494134792
24899.9999999181,145.781924619591,1.00000000058891,0.516463209248878
24999.9999999167,145.285121018971,1.00000000057743,0.516910028052623
25099.9999999152,144.791011838067,1.00000000056211,0.526883292463783
25199.9999999138,144.29938510474,1.00000000057098,0.539034778661776
25299.9999999123,143.809557362097,1.00000000059118,0.545465358780983
25399.9999999109,143.321261206144,1.00000000058578,0.543359614885257
25499.9999999094,142.834878370166,1.00000000057868,0.543248684357012
25599.999999908,142.350977648257,1.00000000059574,0.543578345355692
25699.9999999065,141.871630311487,1.00000000054783,0.535293632980183
25799.9999999051,141.400251211975,1.00000000051179,0.522371371769774
25899.9999999036,140.939642776939,1.000000000467,0.511227779066622
25999.9999999021,140.492394245656,1.00000000044762,0.50535030123978
26099.9999999007,140.05888561547,1.00000000044324,0.501771518991266
26199.9999998992,139.63761891641,1.00000000047823,0.495718356206904
26299.9999998978,139.227141056109,1.00000000050087,0.496409060571604
26399.9999998963,138.823742765299,1.00000000054129,0.504944333940244
26499.9999998949,138.424705514181,1.000000000571,0.512354698969434
26599.9999998934,138.027576945313,1.00000000058663,0.520780864487173
26699.999999892,137.630605397125,1.00000000058291,0.522322355923762
26799.9999998905,137.233333152805,1.00000000057369,0.527019655495437
26899.999999889,136.83583453653,1.00000000056793,0.535661234108758
26999.9999998876,136.437935941316,1.00000000058038,0.541924965465844
27099.9999998861,136.040379076309,1.00000000057596,0.543097840484485
27199.9999998847,135.644568781626,1.0000000005417,0.538494753590637
27299.9999998832,135.251550644185,1.00000000056557,0.536424049557122
27399.9999998818,134.86156550554,1.00000000057362,0.53607416169588
27499.9999998803,134.475882588348,1.00000000055472,0.531483198986506
27599.9999998789,134.096066025692,1.0000000005445,0.528744836751208
27699.9999998774,133.723225697238,1.00000000052454,0.521189567224223
27799.9999998759,133.36091757091,1.00000000047043,0.51226759608441
27899.9999998745,133.010894629471,1.00000000046538,0.509456973426645
27999.999999873,132.673545884998,1.00000000045981,0.502801064822814
28099.9999998716,132.348398294207,1.00000000048656,0.498984380005069
28199.9999998701,132.033555101422,1.00000000049906,0.500507767170183
28299.9999998687,131.726933040162,1.00000000054237,0.509490395092312
28399.9999998672,131.424189566086,1.00000000056439,0.518016851727356
28499.9999998658,131.122883083821,1.00000000055387,0.52225682405614
28599.9999998643,130.820528920396,1.00000000058307,0.535113999167808
28699.9999998629,130.515058665187,1.00000000058149,0.533780623092236
28799.9999998614,130.207463219633,1.00000000057664,0.533264163785717
28899.9999998599,129.898352096335,1.00000000056875,0.536743931989991
