Time,AGPnorm,Energy,Entropy
0,0,1,1.52162758931207e-18
99.9999999999986,0.010932153757869,0.999999999999026,0.0293868437058319
199.999999999993,0.0288630493349815,1.0000000000012,0.087213967090749
300,0.0554944184848555,1.00000000001049,0.179723813589516
400.000000000022,0.0868981934686397,1.0000000006625,0.328723463382838
500.000000000045,0.25871708764638,1.00000000253561,0.469941414283892
600.000000000068,1.02059316807093,1.0000000040099,0.548810041855235
700.000000000091,2.61962192824952,1.00000000411471,0.583694239431992
800.000000000113,4.7434450560025,1.00000000397701,0.596593092300785
900.000000000136,7.11209437785994,1.00000000390432,0.593121240073911
1000.00000000016,9.24974355158997,1.00000000359643,0.585587154373595
1100.0000000001,11.0160085990297,1.00000000331148,0.574637469574336
1200,12.2484779915255,1.0000000027015,0.564275940978308
1299.99999999991,12.9756996659997,1.00000000255689,0.559015707182799
1399.99999999982,13.2692107444266,1.00000000248871,0.568278222317485
1499.99999999973,13.2075969900039,1.00000000288081,0.575969393186844
1599.99999999964,12.9464141853926,1.00000000194587,0.489380434274497
1699.99999999955,12.6022378606073,1.00000000270416,0.537352614641567
1799.99999999946,12.1335673942033,1.00000000252926,0.519624955205219
1899.99999999937,11.7013856158753,1.00000000218998,0.493372506671341
1999.99999999928,11.2135010290887,1.0000000024036,0.480105968364981
2099.99999999919,10.7656173759743,1.00000000291124,0.544920376302103
2199.99999999909,10.3388779890005,1.00000000182192,0.424227084747907
2299.999999999,9.90936352721563,1.00000000326083,0.528388439493515
2399.99999999891,9.51525462236963,1.0000000031327,0.549986939117678
2499.99999999882,9.1712020301015,1.00000000158746,0.418554022107681
2599.99999999873,8.8405350323044,1.00000000263616,0.522445616340396
2699.99999999864,8.52649955515381,1.00000000252243,0.534932858950516
2799.99999999855,8.22481711015587,1.00000000293301,0.552963474087197
2899.99999999846,7.98495531450138,1.00000000160156,0.430680772175968
2999.99999999837,7.78681730322608,1.0000000030536,0.494317191962691
3099.99999999828,7.5773949994199,1.00000000256506,0.539400746579871
3199.99999999819,7.37947203341154,1.00000000264426,0.55420691962197
3299.99999999809,7.17639856990998,1.00000000326668,0.553648457787315
3399.999999998,6.98600055024702,1.00000000242252,0.529130637178382
3499.99999999791,6.87879739856057,1.00000000188221,0.443448733642917
3599.99999999782,6.80777542540561,1.00000000276803,0.504416776055168
3699.99999999773,6.71745863627896,1.00000000251133,0.543799293240349
3799.99999999764,6.63040508732453,1.00000000271981,0.562267125868393
3899.99999999755,6.52670522835497,1.00000000283341,0.581618947355736
3999.99999999746,6.41470799760088,1.00000000253006,0.579983347869679
4099.99999999738,6.29664705451255,1.00000000313053,0.575933321560878
4199.99999999775,6.17148826889669,1.00000000314999,0.575691056273164
4299.99999999811,6.08854652981835,1.00000000185417,0.500844053307932
4399.99999999848,6.09552180533453,1.00000000188836,0.481801139112121
4499.99999999884,6.12250824900963,1.00000000302708,0.527067002291196
4599.9999999992,6.13338318589725,1.00000000249054,0.545856866624517
4699.99999999957,6.12986975307012,1.00000000287428,0.580059484760545
4799.99999999993,6.10449036689086,1.00000000289378,0.599152711277876
4900.00000000029,6.08088075767935,1.0000000026302,0.595817188626209
5000.00000000066,6.05102078575906,1.00000000274159,0.605445397135598
5100.00000000102,6.00381402406841,1.00000000288948,0.591791029356091
5200.00000000139,5.94107382344969,1.00000000274938,0.612528286966006
5300.00000000175,5.87574792428651,1.00000000260489,0.614173856461998
5400.00000000211,5.80504197205609,1.00000000282776,0.614989689669834
5500.00000000248,5.72791600708867,1.00000000323492,0.617723802628642
5600.00000000284,5.64761072787785,1.00000000306216,0.59392320349673
5700.00000000321,5.58876810167269,1.00000000216985,0.542704145199568
5800.00000000357,5.60532199614782,1.00000000200922,0.496262996679266
5900.00000000393,5.69544290095846,1.00000000235679,0.513432698905158
6000.0000000043,5.79183901371654,1.00000000306685,0.549692650390732
6100.00000000466,5.86965339283108,1.00000000282829,0.566284642641209
6200.00000000502,5.93492344690582,1.00000000273108,0.578998524261252
6300.00000000539,5.9845085874005,1.00000000283768,0.607953428977925
6400.00000000575,6.01151261171658,1.00000000293857,0.627059187062825
6500.00000000612,6.0263535250337,1.00000000286938,0.631856592059085
6600.00000000648,6.03241694258735,1.00000000287379,0.631844293923935
6700.00000000684,6.02379586375081,1.00000000309117,0.637819788533632
6800.00000000721,6.01089404215349,1.00000000259169,0.62569562357075
6900.00000000757,6.00444350677401,1.00000000262324,0.621292995610406
7000.00000000793,6.00028759322241,1.00000000294994,0.609084754572684
7100.0000000083,5.98171511774752,1.00000000306289,0.618528481999866
7200.00000000866,5.96056278549342,1.00000000290661,0.634158370859684
7300.00000000903,5.9401215473392,1.00000000287003,0.643032057214477
7400.00000000939,5.91541388174044,1.00000000282126,0.642024561064192
7500.00000000975,5.89011735931416,1.00000000285089,0.629488540418482
7600.00000001012,5.86431737067217,1.00000000287047,0.622786104924257
7700.00000001048,5.82850604146107,1.00000000324325,0.64329874409708
7800.00000001084,5.782144872964,1.00000000297998,0.652778584215472
7900.00000001121,5.72928348273924,1.00000000293775,0.655250621273623
8000.00000001157,5.6765263880416,1.000000002834,0.658571201889958
8100.00000001194,5.62450762987044,1.00000000303458,0.654657513182068
8200.0000000123,5.57426393073741,1.0000000034484,0.663709664345647
8300.00000001266,5.52631973310586,1.00000000353485,0.654987957745688
8400.00000001303,5.47495397690371,1.00000000342271,0.620722325979529
8500.00000001339,5.4234727821054,1.00000000264913,0.580446288495258
8600.00000001376,5.40302839369697,1.00000000232025,0.540849835707517
8700.00000001412,5.44823658246915,1.00000000220819,0.520288900565268
8800.00000001448,5.56446983466355,1.00000000248238,0.524097456767188
8900.00000001485,5.71538102472374,1.00000000306136,0.538584601019703
9000.00000001521,5.8685980251805,1.00000000315821,0.558354875854413
9100.00000001557,6.01409819170664,1.00000000321223,0.569269955047911
9200.00000001594,6.14384546739191,1.0000000029725,0.583079328670186
9300.0000000163,6.26651733563175,1.00000000335574,0.600850161484965
9400.00000001667,6.36764198411018,1.00000000329752,0.606726512186817
9500.00000001703,6.45512680040727,1.00000000318089,0.626065465269393
9600.00000001739,6.52702322233589,1.00000000313244,0.640794019520302
9700.00000001776,6.58684378811438,1.00000000311938,0.632410486999322
9800.00000001812,6.63944742247307,1.00000000334271,0.635957476854099
9900.00000001848,6.68473924714382,1.00000000347113,0.65503890362781
10000.0000000188,6.71688407820241,1.00000000328339,0.67492094613241
10100.0000000192,6.74914617682822,1.00000000318668,0.662410963876755
10200.0000000196,6.77884919022778,1.00000000327704,0.663481172322776
10300.0000000199,6.79896905681262,1.00000000341563,0.676317849625001
10400.0000000203,6.81055701556533,1.00000000329133,0.675634544581066
10500.0000000207,6.82528977865397,1.000000003197,0.670216102937016
10600.000000021,6.82886574911774,1.00000000355731,0.684422776860988
10700.0000000214,6.82881480767496,1.000000003453,0.678323297884415
10800.0000000218,6.81952848132474,1.00000000314148,0.662487561986124
10900.0000000221,6.81013060839137,1.00000000336257,0.674637354709126
11000.0000000225,6.79592215616946,1.00000000316036,0.672459036473569
11100.0000000229,6.77672370858251,1.00000000358946,0.68255642502809
11200.0000000232,6.7599847250338,1.00000000304874,0.671790525522518
11300.0000000236,6.75173638392049,1.00000000303908,0.656922790237545
11400.0000000239,6.75823443713848,1.00000000310217,0.63965260864539
11500.0000000243,6.7773189704088,1.00000000297317,0.633983140333625
11600.0000000247,6.80513716592893,1.00000000348216,0.632066690440275
11700.000000025,6.82547865732684,1.00000000336088,0.634726176093732
11800.0000000254,6.84417867803626,1.00000000412895,0.639656477784352
11900.0000000258,6.85765067411994,1.0000000037521,0.648656730057639
12000.0000000261,6.87390115266991,1.00000000333383,0.654987002182694
12100.0000000265,6.88356721018992,1.0000000036098,0.650415501575603
12200.0000000269,6.89212724595825,1.00000000338861,0.659173666261161
12300.0000000272,6.90221657093594,1.00000000361216,0.669275447047966
12400.0000000276,6.91333044041683,1.00000000355751,0.674963534389656
12500.0000000279,6.91503018854077,1.00000000382866,0.674793763301787
12600.0000000283,6.92008787782517,1.00000000347868,0.669125093650563
12700.0000000287,6.92739770640784,1.00000000362995,0.67028249807284
12800.000000029,6.94302152733271,1.00000000340405,0.661430364654376
12900.0000000294,6.96234070708268,1.00000000369774,0.653778140795569
13000.0000000298,6.97662179939254,1.00000000381391,0.675483429606578
13100.0000000301,6.99361700125727,1.00000000352025,0.679921328758335
13200.0000000305,7.01246480501903,1.00000000360023,0.687114780870494
13300.0000000309,7.0298761322896,1.00000000384582,0.67755169931857
13400.0000000312,7.04940257046977,1.00000000338076,0.662790027348003
13500.0000000316,7.06790618943127,1.00000000387391,0.69491645980993
13600.0000000319,7.08092182514096,1.00000000367023,0.687825814006229
13700.0000000323,7.09521497204673,1.00000000398645,0.690362371997123
13800.0000000327,7.10385329752426,1.00000000322968,0.68272773141737
13900.000000033,7.11545301561005,1.00000000371925,0.700275674249626
14000.0000000334,7.12796688084044,1.0000000031707,0.679445738488964
14100.0000000338,7.14137576061564,1.00000000398201,0.689929383878066
14200.0000000341,7.14211940247444,1.00000000389936,0.681693612688824
14300.0000000345,7.14747761880912,1.00000000372924,0.673523688965369
14400.0000000349,7.15052449977571,1.00000000403609,0.681157081970992
14500.0000000352,7.15105008142329,1.00000000387642,0.673505414686027
14600.0000000356,7.15220669685584,1.00000000399878,0.684027188877007
14700.0000000359,7.15334282270236,1.000000003764,0.670945355945037
14800.0000000363,7.1549916723328,1.00000000424306,0.685214791060738
14900.0000000367,7.1509644977997,1.00000000391593,0.695545624155564
15000.000000037,7.14654860563015,1.00000000360206,0.684796243133003
15100.0000000374,7.14388513845737,1.00000000390114,0.689683938744207
15200.0000000378,7.13463684413028,1.000000003944,0.684850246321345
15300.0000000381,7.12576484127991,1.00000000421506,0.694365451692014
15400.0000000385,7.11166584028881,1.00000000461798,0.700667831173649
15500.0000000389,7.09237787850768,1.00000000394666,0.673662141317961
15600.0000000392,7.064796041589,1.00000000423708,0.693725467855814
15700.0000000396,7.0324780060952,1.00000000416713,0.685614722361083
15800.0000000399,6.99930654737482,1.00000000361256,0.698561657490649
15900.0000000403,6.96453221905224,1.00000000389509,0.691782949220252
16000.0000000407,6.93130962604024,1.00000000346166,0.70417496310609
16100.000000041,6.9000169090566,1.00000000390321,0.697759647786364
16200.0000000414,6.87144148089815,1.00000000377719,0.705905730462284
16300.0000000418,6.84908186436355,1.00000000453964,0.695880993706954
16400.0000000418,6.83044614625292,1.00000000431054,0.700840294346597
16500.0000000404,6.8190916263973,1.00000000408061,0.693638052656113
16600.0000000389,6.80961223376722,1.00000000411977,0.704465572584504
16700.0000000375,6.80369795467565,1.00000000424345,0.698497055347721
16800.000000036,6.79242497200063,1.00000000407171,0.672861070193684
16900.0000000346,6.7795862990689,1.00000000475556,0.662535896777733
17000.0000000331,6.76319330158239,1.00000000433744,0.636953531891991
17100.0000000317,6.76126809730556,1.00000000349709,0.62287966322521
17200.0000000302,6.7878336447002,1.00000000346745,0.606368754367535
17300.0000000287,6.86545113310562,1.00000000350177,0.589418753818729
17400.0000000273,7.00478493703856,1.00000000341702,0.572275192318155
17500.0000000258,7.22126434557834,1.00000000342051,0.575092231069533
17600.0000000244,7.49177153879364,1.00000000342807,0.582524324869209
17700.0000000229,7.8283378261839,1.00000000387469,0.591625406220138
17800.0000000215,8.16831118046069,1.00000000390695,0.589901897619751
17900.00000002,8.53277197833631,1.00000000406945,0.588117814633666
18000.0000000186,8.871979786388,1.00000000448607,0.601221903415266
18100.0000000171,9.22569793440215,1.00000000406882,0.605638910225784
18200.0000000156,9.56481511798083,1.00000000410452,0.609901461191531
18300.0000000142,9.90036632765419,1.00000000408867,0.611765540459045
18400.0000000127,10.2327457984969,1.00000000441735,0.612407693568752
18500.0000000113,10.547897384872,1.00000000393941,0.614258090130625
18600.0000000098,10.8736705714184,1.00000000436324,0.630109640168688
18700.0000000084,11.1773844654586,1.00000000452031,0.623659655146671
18800.0000000069,11.484395276635,1.00000000386721,0.628432374431552
18900.0000000055,11.7623428208669,1.00000000424465,0.661310538633148
19000.000000004,12.0376405691897,1.00000000454264,0.657114382710728
19100.0000000026,12.2949712987985,1.00000000446191,0.675403077786196
19200.0000000011,12.5334388005989,1.0000000043098,0.67583298859405
19299.9999999996,12.7850471982553,1.00000000427488,0.674190814662931
19399.9999999982,13.0111820288833,1.00000000448651,0.661847898450832
19499.9999999967,13.2354865354484,1.00000000489379,0.693896895346397
19599.9999999953,13.4453180946416,1.00000000447728,0.680166993275225
19699.9999999938,13.6523049408134,1.00000000442327,0.670030524524332
19799.9999999924,13.8590427899964,1.00000000490986,0.695274018195498
19899.9999999909,14.052491951351,1.00000000450717,0.686493906825422
19999.9999999895,14.247113860784,1.00000000417198,0.693217145946653
20099.999999988,14.4287727363185,1.00000000444655,0.691201811759804
20199.9999999865,14.608996339013,1.00000000455928,0.698849099781634
20299.9999999851,14.7861172776965,1.00000000444083,0.703513701412563
20399.9999999836,14.9780460130472,1.00000000456596,0.700369686742653
20499.9999999822,15.1570949332051,1.00000000520997,0.707545909317126
20599.9999999807,15.3115435693283,1.00000000488235,0.685905008749633
20699.9999999793,15.462207027735,1.00000000491605,0.711912537270604
20799.9999999778,15.6105045390773,1.00000000464167,0.698045627455945
20899.9999999764,15.7624358847001,1.00000000455672,0.710730351768506
20999.9999999749,15.9189161581745,1.00000000476535,0.70878180377855
21099.9999999734,16.083103449606,1.00000000434047,0.71850668700997
21199.999999972,16.242663597947,1.00000000483606,0.70476847720951
21299.9999999705,16.4003859508835,1.00000000437099,0.714969087419379
21399.9999999691,16.5565681326053,1.00000000479953,0.713453452453765
21499.9999999676,16.6995217860201,1.00000000488557,0.713968286896341
21599.9999999662,16.8407207875296,1.00000000529121,0.697601866438962
21699.9999999647,16.9801157882756,1.00000000465108,0.69846388397307
21799.9999999633,17.1203333729654,1.0000000046486,0.705237400957253
21899.9999999618,17.2547180051614,1.0000000048886,0.699767443760179
21999.9999999603,17.3995572354236,1.00000000474875,0.70200281416973
22099.9999999589,17.5444342635129,1.00000000465432,0.713029850042151
22199.9999999574,17.6874718991016,1.00000000486828,0.69769447578785
22299.999999956,17.8391454409932,1.00000000433009,0.696979310702662
22399.9999999545,18.0031357967177,1.00000000452179,0.712286242617959
22499.9999999531,18.1686580058224,1.00000000482961,0.709432704516074
22599.9999999516,18.31852393525,1.00000000538714,0.721542301053901
22699.9999999502,18.4638041882019,1.00000000485328,0.709100739235459
22799.9999999487,18.6176464062909,1.00000000476601,0.679307556420609
22899.9999999473,18.7829636284355,1.00000000456558,0.696941737428403
22999.9999999458,18.957840159606,1.00000000481806,0.695381099290039
23099.9999999443,19.1378344710538,1.00000000505477,0.710026228889427
23199.9999999429,19.3177372633257,1.00000000524021,0.718603281266919
23299.9999999414,19.4944496531889,1.00000000487658,0.706493791516703
23399.99999994,19.656308273324,1.0000000051749,0.698542953779384
23499.9999999385,19.8109276859575,1.00000000528076,0.692623369289952
23599.9999999371,19.9635051967906,1.000000004723,0.697926831208736
23699.9999999356,20.1345704164965,1.00000000502611,0.715012921160585
23799.9999999342,20.310235553028,1.0000000050922,0.707414512745305
23899.9999999327,20.4906762239237,1.00000000567513,0.702231481422391
23999.9999999312,20.6767910579988,1.00000000492064,0.696685953110106
24099.9999999298,20.8602906351499,1.00000000534505,0.706478777269274
24199.9999999283,21.0256253739412,1.00000000546878,0.71323657373503
24299.9999999269,21.1731231035949,1.00000000557576,0.709002638714631
24399.9999999254,21.3242104756117,1.00000000498907,0.693135551574111
24499.999999924,21.4941594166258,1.00000000478415,0.70271574936508
24599.9999999225,21.6710198121163,1.00000000566132,0.714875034387413
24699.9999999211,21.8520089325443,1.0000000051448,0.692162684880183
24799.9999999196,22.0379837458569,1.00000000514608,0.689475395951585
24899.9999999181,22.2132573774899,1.0000000052531,0.707475898769335
24999.9999999167,22.3752509812726,1.0000000050804,0.710612307761864
25099.9999999152,22.5289938161346,1.00000000513532,0.71686579795341
25199.9999999138,22.678832444061,1.0000000051889,0.710855698285691
25299.9999999123,22.8344241306791,1.00000000482834,0.711020676310422
25399.9999999109,23.0019668170222,1.00000000509901,0.710866907488141
25499.9999999094,23.1938473130166,1.00000000507706,0.704840090967566
25599.999999908,23.4064044792102,1.0000000050017,0.717712333773035
25699.9999999065,23.6335148875878,1.00000000506852,0.721644469618174
25799.9999999051,23.8798367785765,1.00000000469394,0.714234598294643
25899.9999999036,24.1083482730471,1.00000000581971,0.726965581127081
25999.9999999021,24.3133541722077,1.00000000503813,0.716546876440577
26099.9999999007,24.5203309805076,1.00000000533492,0.722095446118769
26199.9999998992,24.7248295879166,1.00000000543124,0.728627671574561
26299.9999998978,24.9286596022755,1.00000000533727,0.700863684059755
26399.9999998963,25.1364550571811,1.00000000563816,0.706977533922913
26499.9999998949,25.3585156371388,1.00000000494295,0.706323031862919
26599.9999998934,25.5977278365552,1.00000000586882,0.707309476751988
26699.999999892,25.8334261290349,1.00000000562058,0.718740595820227
26799.9999998905,26.0719884229428,1.00000000501619,0.692328119899962
26899.999999889,26.331944746325,1.00000000474602,0.698584776626245
26999.9999998876,26.5968796373798,1.00000000599673,0.706914352632572
27099.9999998861,26.8562239643381,1.00000000562438,0.711644800087748
27199.9999998847,27.1115869968705,1.00000000554306,0.718088281413283
27299.9999998832,27.3619838779934,1.00000000524608,0.714531394145402
27399.9999998818,27.6002833408159,1.0000000056593,0.712884085186613
27499.9999998803,27.8274034713909,1.00000000517081,0.701722271353471
27599.9999998789,28.0541990245511,1.00000000509401,0.706731107146321
27699.9999998774,28.2850727831939,1.00000000522716,0.719799851295781
27799.9999998759,28.5292201926094,1.00000000578426,0.721543890186708
27899.9999998745,28.7684892892572,1.00000000620995,0.718435296779831
27999.999999873,29.0084018298073,1.00000000603183,0.711753997837564
28099.9999998716,29.2514346587348,1.00000000526522,0.715776527818997
28199.9999998701,29.4956318599301,1.00000000527335,0.698206616680678
28299.9999998687,29.7580889803637,1.00000000508652,0.666390741209806
28399.9999998672,30.0310474453187,1.00000000588359,0.688846829164789
28499.9999998658,30.2909839408385,1.00000000624202,0.731976798094609
28599.9999998643,30.5412842848606,1.00000000537783,0.727980786729764
28699.9999998629,30.7848453899504,1.00000000544302,0.71809106000959
28799.9999998614,31.0211009580552,1.0000000060344,0.722670033435811
28899.9999998599,31.2528038577817,1.0000000058911,0.72286002177788
28999.9999998585,31.4887585802337,1.00000000544065,0.712417734067516
29099.999999857,31.7328797156317,1.00000000513144,0.716749059838861
