Time,AGPnorm,Energy,Entropy
0,0,1,3.09664562035442e-18
99.9999999999986,0.00572041963558248,0.999999999999976,0.0168165790769191
199.999999999993,0.015739896395573,1.0000000000004,0.0490304848768749
300,0.0320820546752506,0.999999999999963,0.0963155808496581
400.000000000022,0.0491226960856944,1.00000000000512,0.159647267000027
500.000000000045,0.0658595325545202,1.00000000009456,0.250418594129421
600.000000000068,0.120181967663612,1.00000000059601,0.363181958221029
700.000000000091,0.346946272804594,1.00000000125981,0.457995612813629
800.000000000113,1.13574230510497,1.00000000176104,0.518433231722946
900.000000000136,2.70656835455666,1.00000000216534,0.552465378570545
1000.00000000016,5.07283340506884,1.00000000220837,0.568810563458082
1100.0000000001,8.06547705665112,1.00000000209782,0.57402571968632
1200,11.3415512287537,1.00000000209752,0.572211323037162
1299.99999999991,14.6370676954342,1.00000000200674,0.568078420032154
1399.99999999982,17.6793123473328,1.0000000019514,0.561132453956471
1499.99999999973,20.303679548671,1.00000000171881,0.549558826185883
1599.99999999964,22.4243156007764,1.00000000162493,0.54565862023222
1699.99999999955,23.9910945317432,1.0000000015133,0.536005080334517
1799.99999999946,25.0722251382069,1.00000000144535,0.531849538145921
1899.99999999937,25.6334360246705,1.00000000141639,0.532558395720191
1999.99999999928,25.8762946858513,1.00000000130979,0.521331605462051
2099.99999999919,25.7018763208615,1.00000000111369,0.509116906121817
2199.99999999909,25.418674872068,1.00000000159254,0.559263610625746
2299.999999999,24.9185154712986,1.00000000072716,0.416836067036555
2399.99999999891,24.2777895646254,1.00000000166599,0.56436824468355
2499.99999999882,23.7237050443323,1.00000000149251,0.52848536026325
2599.99999999873,23.0473084406735,1.0000000005802,0.36284582966291
2699.99999999864,22.309154593323,1.00000000165496,0.527144666765519
2799.99999999855,21.6686406894487,1.00000000181744,0.57166658719025
2899.99999999846,21.0712775185316,1.00000000098644,0.426323115581608
2999.99999999837,20.4338523002717,1.00000000079096,0.359649796933307
3099.99999999828,19.7958920065852,1.00000000149169,0.510390259845713
3199.99999999819,19.1957068588029,1.00000000181458,0.542872773735397
3299.99999999809,18.6588883280766,1.00000000164013,0.556702798692272
3399.999999998,18.1480940408471,1.00000000076033,0.394572771703335
3499.99999999791,17.6829478447568,1.00000000082565,0.360575193605595
3599.99999999782,17.2467328809713,1.00000000145777,0.488476091267506
3699.99999999773,16.8085646872124,1.00000000137604,0.535738066809155
3799.99999999764,16.3869299506109,1.00000000140533,0.508409163981274
3899.99999999755,15.9690270699718,1.00000000189692,0.57454999832844
3999.99999999746,15.5781926055818,1.00000000132301,0.522849033294119
4099.99999999738,15.2434582396305,1.00000000060535,0.376954773631889
4199.99999999775,15.0132551229631,1.00000000092729,0.361348879519978
4299.99999999811,14.8256075634513,1.00000000135331,0.471427607684368
4399.99999999848,14.611932746331,1.00000000168311,0.530647929369777
4499.99999999884,14.3679710873653,1.00000000147053,0.548193852203839
4599.9999999992,14.1317824513985,1.00000000107491,0.521485707499842
4699.99999999957,13.8977682666314,1.00000000135928,0.523244746701417
4799.99999999993,13.6414841886589,1.00000000173136,0.540359540016783
4900.00000000029,13.372791701928,1.00000000184228,0.584162416192525
5000.00000000066,13.1169533543246,1.00000000130658,0.532363334056429
5100.00000000102,12.9208542143099,1.00000000068477,0.408739757334674
5200.00000000139,12.846598263643,1.00000000072504,0.362407799452959
5300.00000000175,12.8737129223836,1.00000000112471,0.402523265315458
5400.00000000211,12.9059026275581,1.00000000141745,0.486960928517556
5500.00000000248,12.8877415682128,1.00000000145725,0.539613941277947
5600.00000000284,12.849962637199,1.00000000124108,0.535162901264763
5700.00000000321,12.7906955810263,1.00000000145638,0.549375103053199
5800.00000000357,12.695194013748,1.00000000147615,0.556090042778512
5900.00000000393,12.581652067594,1.00000000136513,0.533248174775179
6000.0000000043,12.4622853875685,1.00000000137263,0.552755605075675
6100.00000000466,12.3452262878808,1.0000000011239,0.543155343732117
6200.00000000502,12.2297723416448,1.00000000128333,0.550734222535222
6300.00000000539,12.0960192778661,1.00000000150556,0.559832708056858
6400.00000000575,11.9420688716597,1.00000000169417,0.557320246865342
6500.00000000612,11.7729009340318,1.00000000183925,0.576515641050688
6600.00000000648,11.6008553093488,1.00000000155739,0.577329619286304
6700.00000000684,11.4434190494574,1.00000000101957,0.509707402033231
6800.00000000721,11.3450369712327,1.00000000070707,0.426571899251047
6900.00000000757,11.3630790497255,1.00000000065375,0.377337032412285
7000.00000000793,11.5054207658274,1.00000000094213,0.393335370738546
7100.0000000083,11.7148241984284,1.00000000124608,0.431908611426337
7200.00000000866,11.9123614901846,1.00000000144323,0.487868744989011
7300.00000000903,12.0766038841272,1.00000000141264,0.524899195482569
7400.00000000939,12.198740449774,1.00000000147621,0.553046761753748
7500.00000000975,12.2890671310352,1.0000000014891,0.559632617224192
7600.00000001012,12.3483869745238,1.00000000141813,0.581460934741534
7700.00000001048,12.3672302152105,1.00000000156064,0.592148335287575
7800.00000001084,12.3526666146953,1.0000000013371,0.584790514149541
7900.00000001121,12.3223069574509,1.00000000140184,0.564548511798634
8000.00000001157,12.2830910408554,1.00000000137104,0.561596352230764
8100.00000001194,12.2367569084564,1.00000000140902,0.553913840346409
8200.0000000123,12.1808587902176,1.00000000146094,0.546180815724159
8300.00000001266,12.1247261130991,1.00000000133154,0.559853088807879
8400.00000001303,12.0722393779578,1.00000000126375,0.55630341138751
8500.00000001339,12.0213285842695,1.00000000138017,0.558325512768144
8600.00000001376,11.9695434311648,1.00000000134196,0.568767973280343
8700.00000001412,11.9146773340051,1.00000000137114,0.568623154674753
8800.00000001448,11.8528180891603,1.00000000132492,0.565456000848224
8900.00000001485,11.7823569071631,1.00000000145125,0.565408909130025
9000.00000001521,11.7005800023787,1.00000000142497,0.590418816963038
9100.00000001557,11.6119048831505,1.00000000135296,0.607787680012453
9200.00000001594,11.5238671676188,1.00000000119717,0.590460805129305
9300.0000000163,11.4355694787215,1.00000000135726,0.59859928188546
9400.00000001667,11.3419814446379,1.00000000146342,0.596984706765045
9500.00000001703,11.2415887637073,1.00000000157533,0.59676101391209
9600.00000001739,11.1383509100215,1.00000000182731,0.603979100603009
9700.00000001776,11.0384967280869,1.00000000182393,0.595546698207365
9800.00000001812,10.9421999995193,1.00000000190322,0.596581520513242
9900.00000001848,10.8439640173687,1.00000000163811,0.585917058350953
10000.0000000188,10.7392892049862,1.00000000122529,0.551777542866512
10100.0000000192,10.6408439583789,1.00000000096249,0.493814132270428
10200.0000000196,10.5833498163412,1.00000000079407,0.444491808400267
10300.0000000199,10.6102791320344,1.00000000069493,0.399968550385818
10400.0000000203,10.7500056775599,1.00000000089781,0.394592268778087
10500.0000000207,10.9993476984417,1.0000000009838,0.406216120236781
10600.000000021,11.3166576808085,1.00000000137172,0.431240830903703
10700.0000000214,11.6548144355592,1.00000000142559,0.46322967063138
10800.0000000218,11.9782808919439,1.00000000159662,0.494141692483184
10900.0000000221,12.2691406334353,1.00000000153485,0.514107871615042
11000.0000000225,12.5313890227523,1.00000000161478,0.539676288987402
11100.0000000229,12.7594850795448,1.00000000142618,0.560939984776434
11200.0000000232,12.9583560092544,1.00000000149156,0.575644347464446
11300.0000000236,13.1267941720063,1.00000000149339,0.582987097646862
11400.0000000239,13.2635436843989,1.00000000147158,0.596627493250133
11500.0000000243,13.3701272408281,1.00000000158274,0.611148304429676
11600.0000000247,13.4452232464121,1.00000000155387,0.613186470419178
11700.000000025,13.4903640488414,1.00000000150864,0.616528335446862
11800.0000000254,13.5176624613563,1.0000000014342,0.617711762765608
11900.0000000258,13.5299607918082,1.00000000142701,0.61463209051618
12000.0000000261,13.5296768507505,1.00000000136092,0.606772056567873
12100.0000000265,13.5234439230259,1.0000000015176,0.601402091213955
12200.0000000269,13.5032116242862,1.00000000151795,0.600423155546499
12300.0000000272,13.4725730164582,1.00000000143921,0.588838901429636
12400.0000000276,13.4396282888472,1.00000000147087,0.595098284259322
12500.0000000279,13.3947641808015,1.00000000150373,0.599453258166575
12600.0000000283,13.3438444355801,1.00000000142817,0.604405759245569
12700.0000000287,13.2880927543245,1.00000000142286,0.608561163589447
12800.000000029,13.2267130075946,1.00000000155513,0.618988638122427
12900.0000000294,13.1596166508285,1.00000000149741,0.619355517844787
13000.0000000298,13.0929323176301,1.00000000136779,0.60563180974929
13100.0000000301,13.0311105736613,1.00000000136596,0.592830941265726
13200.0000000305,12.9769285122399,1.00000000131504,0.575375665940666
13300.0000000309,12.928724769672,1.00000000151905,0.581521992474206
13400.0000000312,12.8818871222693,1.0000000014202,0.589905841142782
13500.0000000316,12.8365040036959,1.00000000147327,0.589294376938127
13600.0000000319,12.7903313088993,1.00000000139171,0.583057083306948
13700.0000000323,12.7437661828633,1.00000000146092,0.590328646856195
13800.0000000327,12.7015592925539,1.00000000139153,0.591590952922754
13900.000000033,12.6610615549011,1.00000000163984,0.590466262052589
14000.0000000334,12.6180007281372,1.0000000014738,0.585424911268478
14100.0000000338,12.5788585215007,1.00000000133919,0.589165124070671
14200.0000000341,12.5470570097257,1.00000000133165,0.57281004090248
14300.0000000345,12.5188779662446,1.00000000147395,0.563399722509036
14400.0000000349,12.4864494346344,1.00000000156854,0.572262733027098
14500.0000000352,12.4548945995261,1.00000000139375,0.57975285223354
14600.0000000356,12.4257881811129,1.0000000015059,0.596456601887866
14700.0000000359,12.3936487555731,1.00000000150711,0.614280803514511
14800.0000000363,12.3624221161504,1.00000000135465,0.613016405744741
14900.0000000367,12.3342218397974,1.00000000142274,0.595833931653778
15000.000000037,12.3020324000551,1.00000000158941,0.588957786718348
15100.0000000374,12.2682794962774,1.00000000140036,0.600318121682079
15200.0000000378,12.2376725428909,1.00000000152645,0.607344463687663
15300.0000000381,12.2042348541858,1.00000000151738,0.614971233446046
15400.0000000385,12.1667807678722,1.0000000014599,0.622398913309934
15500.0000000389,12.1299947563422,1.00000000153114,0.619342498283874
15600.0000000392,12.0903876474776,1.000000001556,0.625933766816912
15700.0000000396,12.0445379075499,1.00000000163185,0.626065649864378
15800.0000000399,11.9978338244234,1.00000000147099,0.611631611712921
15900.0000000403,11.9495332542638,1.00000000153177,0.619742213528405
16000.0000000407,11.9018855035515,1.00000000141981,0.624661007875702
16100.000000041,11.858306483261,1.00000000141102,0.624927722577909
16200.0000000414,11.8165629239097,1.00000000148634,0.623502690689874
16300.0000000418,11.7697550067641,1.0000000017055,0.622441980526692
16400.0000000418,11.7179591834637,1.00000000154684,0.619066918951621
16500.0000000404,11.6690533582051,1.0000000012989,0.620702101564019
16600.0000000389,11.6207269497776,1.00000000156415,0.631143533501005
16700.0000000375,11.569840248029,1.00000000153311,0.621035419903432
16800.000000036,11.5213035688,1.00000000137191,0.610740394103585
16900.0000000346,11.4745995019569,1.00000000150806,0.619259721954877
17000.0000000331,11.425579580421,1.00000000147565,0.613593444711693
17100.0000000317,11.375175557378,1.00000000144601,0.626366869504395
17200.0000000302,11.3232277064382,1.00000000149556,0.628790763433247
17300.0000000287,11.2695629691017,1.0000000015004,0.628202881118003
17400.0000000273,11.2142000772068,1.00000000142692,0.625088850732601
17500.0000000258,11.1566245970852,1.00000000166453,0.640294748133564
17600.0000000244,11.0976773779486,1.00000000156617,0.641778829877233
17700.0000000229,11.0392479294054,1.00000000140954,0.635589904020191
17800.0000000215,10.9806645860114,1.00000000164249,0.64975156944178
17900.00000002,10.9206321362786,1.00000000167354,0.638570069024508
18000.0000000186,10.860858883,1.00000000160489,0.642033043401422
18100.0000000171,10.8015243092416,1.00000000146907,0.62342051783432
18200.0000000156,10.7426356745046,1.00000000150376,0.634206045820001
18300.0000000142,10.684616343655,1.00000000138709,0.647576496355595
18400.0000000127,10.6275518145695,1.00000000129494,0.635410890230834
18500.0000000113,10.5708214510378,1.00000000150926,0.63620385806096
18600.0000000098,10.5153872300684,1.00000000135918,0.638629389626593
18700.0000000084,10.4623548798643,1.00000000151104,0.642539348132596
18800.0000000069,10.4132527933202,1.00000000166508,0.637248296721192
18900.0000000055,10.3702536402263,1.00000000166246,0.646892873263492
19000.000000004,10.3370568129906,1.0000000016481,0.648084734961551
19100.0000000026,10.3139767113778,1.0000000018745,0.652195504237546
19200.0000000011,10.3102532269939,1.00000000182618,0.656223875969383
19299.9999999996,10.3184362557456,1.00000000198618,0.656449901599006
19399.9999999982,10.3550180035585,1.0000000019788,0.658349076340875
19499.9999999967,10.3989289520374,1.00000000197925,0.646540472695279
19599.9999999953,10.4690412353009,1.00000000199428,0.633166950299167
19699.9999999938,10.5340896655989,1.00000000202023,0.617336416118416
19799.9999999924,10.6042919805917,1.00000000181433,0.603415382874393
19899.9999999909,10.6486208196811,1.00000000151433,0.593819182518535
19999.9999999895,10.6678788090084,1.00000000149006,0.57622043590706
20099.999999988,10.6562093472319,1.00000000122717,0.54221115856258
20199.9999999865,10.6199337717121,1.00000000114821,0.511942947967679
20299.9999999851,10.577187618581,1.00000000106941,0.482986603373338
20399.9999999836,10.54593856342,1.00000000098193,0.456572501697617
20499.9999999822,10.5526971871836,1.00000000092737,0.435082949669624
20599.9999999807,10.6206237454357,1.00000000089554,0.418047369014133
20699.9999999793,10.7757839249362,1.00000000089345,0.413448562482561
20799.9999999778,11.0190382092345,1.00000000106166,0.41072860289593
20899.9999999764,11.3755252014655,1.00000000122875,0.420680683402601
20999.9999999749,11.7945213240009,1.00000000124502,0.431312387856381
21099.9999999734,12.3070810958036,1.00000000152907,0.439343352071026
21199.999999972,12.8363999622226,1.00000000144316,0.452962819441345
21299.9999999705,13.4178227532316,1.00000000166691,0.457669203999376
21399.9999999691,13.985453092039,1.00000000172428,0.477252444899943
21499.9999999676,14.5581978818957,1.00000000184964,0.480896047191591
21599.9999999662,15.1137948048363,1.00000000179111,0.504432363046992
21699.9999999647,15.6446560315018,1.00000000178091,0.509117439907294
21799.9999999633,16.1629699692585,1.00000000177673,0.522350680934016
21899.9999999618,16.6488148478817,1.00000000167718,0.532043549853926
21999.9999999603,17.131025479255,1.00000000165432,0.544392281054013
22099.9999999589,17.5783160319772,1.00000000177362,0.554367778477195
22199.9999999574,18.0138098461251,1.00000000167831,0.559534651186848
22299.999999956,18.4394248421938,1.00000000165882,0.577741377466193
22399.9999999545,18.8358817007997,1.00000000173725,0.57675416138027
22499.9999999531,19.222234317372,1.00000000167081,0.596593979987655
22599.9999999516,19.5755807156807,1.00000000165702,0.610320830120069
22699.9999999502,19.9188853429004,1.00000000171552,0.611165026462439
22799.9999999487,20.2273389409811,1.00000000185171,0.617253858571115
22899.9999999473,20.5170130613029,1.00000000156579,0.632731825863319
22999.9999999458,20.78161661373,1.00000000186578,0.645181834115762
23099.9999999443,21.0219083111451,1.00000000170545,0.634200831989438
23199.9999999429,21.2458162903125,1.0000000019082,0.641957963458891
23299.9999999414,21.4388902670547,1.00000000189086,0.648407113678751
23399.99999994,21.6185087599259,1.00000000172161,0.658520837508749
23499.9999999385,21.7718170103753,1.00000000170956,0.650267055966823
23599.9999999371,21.9208253459751,1.00000000160522,0.6456212915106
23699.9999999356,22.0526151670772,1.00000000196227,0.656397887316248
23799.9999999342,22.1707606733969,1.00000000181961,0.645865061366843
23899.9999999327,22.275381475079,1.00000000180786,0.651959835655338
23999.9999999312,22.3649230003144,1.00000000187897,0.64672791187517
24099.9999999298,22.4520278587547,1.00000000170522,0.649281814915363
24199.9999999283,22.5339981407441,1.0000000015089,0.634550889815463
24299.9999999269,22.6137170166652,1.00000000163539,0.639673056378246
24399.9999999254,22.6707805386413,1.00000000198054,0.660896132960713
24499.999999924,22.7102328952153,1.00000000194356,0.651328162855217
24599.9999999225,22.7473428872051,1.00000000160313,0.639285052818029
24699.9999999211,22.7850413011322,1.00000000169733,0.634970397915925
24799.9999999196,22.8238267638443,1.0000000017144,0.629779623844642
24899.9999999181,22.8520945262671,1.00000000190951,0.631221775882955
24999.9999999167,22.8778655652856,1.000000001676,0.628834534943053
25099.9999999152,22.8966677443761,1.00000000176683,0.640352483841577
25199.9999999138,22.9105665782559,1.00000000165659,0.645748126225062
25299.9999999123,22.9162617729902,1.00000000203572,0.652061553916795
25399.9999999109,22.9217383735954,1.00000000164964,0.621559011683336
25499.9999999094,22.9372740892848,1.00000000164982,0.599589970277563
25599.999999908,22.9539993902142,1.00000000174148,0.613522844655638
25699.9999999065,22.961544522472,1.00000000202232,0.618890226933152
25799.9999999051,22.9529310513529,1.00000000192715,0.6260781205041
25899.9999999036,22.9438307087511,1.00000000171969,0.621594720274401
25999.9999999021,22.9437042810117,1.00000000164507,0.622310931307164
26099.9999999007,22.946030191739,1.00000000191345,0.645770821151268
26199.9999998992,22.9400025992648,1.00000000194553,0.645486888946949
26299.9999998978,22.9245128394178,1.00000000185581,0.650095605566567
26399.9999998963,22.9139909112283,1.00000000185203,0.637784958783791
26499.9999998949,22.9097924722741,1.00000000179386,0.639164283455824
26599.9999998934,22.9102541174769,1.00000000175025,0.644164474951636
26699.999999892,22.907240258369,1.00000000188556,0.640002858404946
26799.9999998905,22.9066273816476,1.00000000141258,0.61622665055401
26899.999999889,22.9180768984084,1.00000000173807,0.601440778659421
26999.9999998876,22.9356777307349,1.00000000183097,0.614446941941106
27099.9999998861,22.9402249260239,1.00000000217944,0.619412620182102
27199.9999998847,22.9279821893106,1.00000000183944,0.622958777842213
27299.9999998832,22.9154983411235,1.00000000183856,0.614195427166098
27399.9999998818,22.9131480894849,1.00000000173089,0.621309375194975
27499.9999998803,22.9145470776814,1.00000000191106,0.647428722107715
27599.9999998789,22.9125798952628,1.0000000018272,0.645853177277159
27699.9999998774,22.9017189877892,1.00000000181186,0.633124901075841
27799.9999998759,22.8903518487588,1.00000000168229,0.619571094606613
27899.9999998745,22.8849984759588,1.00000000151326,0.618701542490608
27999.999999873,22.8852638849413,1.00000000170137,0.618084722093182
28099.9999998716,22.8861469499217,1.00000000184739,0.629869305632718
28199.9999998701,22.8813395479268,1.00000000186167,0.631609000712415
28299.9999998687,22.8759556579447,1.00000000172465,0.627928587780581
28399.9999998672,22.8684864089417,1.0000000020889,0.640478378088575
28499.9999998658,22.8595258764751,1.00000000167912,0.631230915044844
28599.9999998643,22.8538644399686,1.00000000184836,0.6392411293625
28699.9999998629,22.8461103195061,1.00000000155407,0.632676401644747
28799.9999998614,22.8337238540184,1.00000000159403,0.640634295602334
28899.9999998599,22.8154742723066,1.00000000187744,0.642458594294241
28999.9999998585,22.7938784736468,1.00000000182597,0.63951677285211
29099.999999857,22.7757670127061,1.00000000146495,0.633968925680001
