Time,AGPnorm,Energy,Entropy
0,0,1,8.51577545597466e-18
99.9999999999986,0.00699759794620006,0.999999999997967,0.0196065788163867
199.999999999993,0.0185539369014145,1.00000000000134,0.0584802798819272
300,0.0380884632958089,0.999999999997517,0.115402845224313
400.000000000022,0.0567473044907635,1.00000000002361,0.197130648887026
500.000000000045,0.0774116726109231,1.00000000035005,0.315504339014793
600.000000000068,0.213964984965873,1.00000000133054,0.43401898271398
700.000000000091,0.787644492198779,1.00000000216013,0.511674551810042
800.000000000113,2.09330692172875,1.00000000256864,0.554677148025697
900.000000000136,4.25621611396561,1.00000000269316,0.574261006926384
1000.00000000016,6.94204890662051,1.00000000272761,0.581157340849455
1100.0000000001,9.94006912297933,1.00000000267278,0.578506977696936
1200,12.829704750369,1.00000000232589,0.57156876147844
1299.99999999991,15.4271609874013,1.00000000231503,0.564747964256595
1399.99999999982,17.5548761326987,1.0000000020503,0.558772964262238
1499.99999999973,19.1391215365563,1.00000000183942,0.549559446135603
1599.99999999964,20.2022162617953,1.00000000166051,0.528638197234591
1699.99999999955,20.7916068144777,1.00000000179382,0.552178582847963
1799.99999999946,20.9502777744042,1.00000000141464,0.521234756057535
1899.99999999937,20.880079748262,1.00000000160639,0.532986435798753
1999.99999999928,20.4976981158148,1.0000000013532,0.505839910409634
2099.99999999919,20.088499669404,1.00000000196561,0.555629136309376
2199.99999999909,19.5169294505348,1.00000000087329,0.413333748195338
2299.999999999,18.909891778802,1.0000000023848,0.580879071071294
2399.99999999891,18.3700191914227,1.00000000139019,0.468414417540049
2499.99999999882,17.7463337869749,1.0000000011372,0.402767303085773
2599.99999999873,17.1270480988157,1.00000000225599,0.559917511993691
2699.99999999864,16.5938206359973,1.00000000181718,0.533895612865643
2799.99999999855,16.0672586768224,1.00000000092529,0.368044068937311
2899.99999999846,15.544060609038,1.00000000152511,0.458662738197213
2999.99999999837,15.0330138750511,1.00000000195447,0.534415683759538
3099.99999999828,14.5607497674354,1.00000000229028,0.568790286951176
3199.99999999819,14.1299676470524,1.00000000117836,0.45894411891721
3299.99999999809,13.7574224367521,1.00000000112121,0.374141259200991
3399.999999998,13.4134368934239,1.0000000017636,0.490678516495223
3499.99999999791,13.0663138881932,1.00000000166224,0.532816018205865
3599.99999999782,12.7349989755545,1.00000000173573,0.513775864134643
3699.99999999773,12.3962561253802,1.00000000236483,0.564962637535871
3799.99999999764,12.0786233166497,1.00000000157407,0.525356754576562
3899.99999999755,11.8294551479927,1.00000000093515,0.395457925401118
3999.99999999746,11.6762145935084,1.00000000135952,0.405394672252067
4099.99999999738,11.5296632966177,1.00000000180111,0.506521048282326
4199.99999999775,11.3641748405377,1.00000000172231,0.538744230079406
4299.99999999811,11.1823933256872,1.00000000170189,0.544436658742333
4399.99999999848,11.0014696289485,1.00000000151537,0.545817092463622
4499.99999999884,10.8148390112332,1.00000000178936,0.53330495257886
4599.9999999992,10.6103287470284,1.00000000216782,0.557201167600776
4699.99999999957,10.3966622053682,1.00000000210261,0.579764837999694
4799.99999999993,10.2187288246012,1.00000000113417,0.479709749848486
4900.00000000029,10.1431454243752,1.00000000088092,0.40277994126116
5000.00000000066,10.1672797277899,1.00000000151698,0.427114445509195
5100.00000000102,10.2062085320165,1.00000000171069,0.487628241006127
5200.00000000139,10.2057293193352,1.0000000020503,0.543684148686194
5300.00000000175,10.1857380478243,1.00000000170262,0.553093573011502
5400.00000000211,10.1520829982681,1.00000000163737,0.572589842073798
5500.00000000248,10.096262569056,1.00000000184224,0.569576603405173
5600.00000000284,10.0216548913772,1.00000000172929,0.553083343128912
5700.00000000321,9.92966441178303,1.00000000179578,0.58519722535103
5800.00000000357,9.83499664982382,1.00000000142837,0.569430656513022
5900.00000000393,9.74244082299208,1.00000000158733,0.58543786321012
6000.0000000043,9.63600319831687,1.00000000177416,0.586171395430862
6100.00000000466,9.51371975656785,1.00000000217722,0.587356225540965
6200.00000000502,9.37919036628386,1.00000000214416,0.592770173723562
6300.00000000539,9.24309273623992,1.00000000180652,0.574711184460133
6400.00000000575,9.13853748791903,1.00000000118964,0.502648415582707
6500.00000000612,9.12109453736931,1.00000000101878,0.436442349869672
6600.00000000648,9.21646275912901,1.00000000121916,0.430615578834446
6700.00000000684,9.3776207624224,1.00000000150639,0.463067044489365
6800.00000000721,9.5333666841324,1.00000000195038,0.504560644346655
6900.00000000757,9.66027166266919,1.00000000176004,0.530922332013248
7000.00000000793,9.76370750615747,1.00000000176927,0.565783534982516
7100.0000000083,9.84062293040163,1.00000000185543,0.577299653328664
7200.00000000866,9.89546045735742,1.00000000181443,0.597324095013782
7300.00000000903,9.92131075161756,1.00000000185243,0.603883719252208
7400.00000000939,9.91423910599785,1.00000000184386,0.606311580422277
7500.00000000975,9.89206486613583,1.00000000164407,0.588803958554669
7600.00000001012,9.86795128754394,1.00000000178305,0.587517476606026
7700.00000001048,9.84705920769631,1.00000000170373,0.570526608395982
7800.00000001084,9.8179083603905,1.0000000019123,0.561230856498293
7900.00000001121,9.77925241715026,1.00000000189002,0.586173786570497
8000.00000001157,9.73971197654683,1.00000000167053,0.58394843923192
8100.00000001194,9.70412533376629,1.00000000184928,0.589592557763146
8200.0000000123,9.66508997654668,1.00000000169761,0.596016656605029
8300.00000001266,9.6242374963497,1.00000000176399,0.585837533520178
8400.00000001303,9.57899972292349,1.00000000169647,0.579927176581263
8500.00000001339,9.52670428313965,1.00000000200749,0.585839550829113
8600.00000001376,9.46050390784526,1.0000000019106,0.619096151849739
8700.00000001412,9.38610865042161,1.00000000178602,0.615930220810062
8800.00000001448,9.31329774047244,1.00000000151019,0.60964474503668
8900.00000001485,9.23892256330535,1.00000000177035,0.615514696604102
9000.00000001521,9.16155495683345,1.00000000193166,0.610784985842035
9100.00000001557,9.08082813871646,1.00000000215473,0.621700961326759
9200.00000001594,9.00016061531547,1.00000000219624,0.61456468944645
9300.0000000163,8.91999334252216,1.00000000238316,0.6015525340093
9400.00000001667,8.83350455243841,1.00000000226536,0.592774353672965
9500.00000001703,8.74399257481081,1.00000000165607,0.55939044299143
9600.00000001739,8.67099616224081,1.00000000130223,0.513260394248691
9700.00000001776,8.65320787849067,1.00000000104159,0.465817525464159
9800.00000001812,8.72273073658384,1.00000000119821,0.445941664205875
9900.00000001848,8.88919449188091,1.00000000144812,0.448657949437028
10000.0000000188,9.11928326199452,1.00000000153121,0.465598412496724
10100.0000000192,9.37473151448757,1.00000000197903,0.484769646372493
10200.0000000196,9.61768406433978,1.00000000185579,0.512341952453255
10300.0000000199,9.84332078131894,1.00000000211767,0.537281868347475
10400.0000000203,10.0433404848209,1.00000000188736,0.544958385027578
10500.0000000207,10.2284826790438,1.00000000203147,0.565740413783021
10600.000000021,10.3936217168946,1.0000000019456,0.587981383124342
10700.0000000214,10.5391389166096,1.00000000203033,0.603674100407486
10800.0000000218,10.6573525734719,1.00000000209024,0.600998758036612
10900.0000000221,10.7529567063525,1.00000000182539,0.617423782256552
11000.0000000225,10.8210038706569,1.00000000216872,0.641988133546977
11100.0000000229,10.8715999215693,1.00000000201131,0.637462753109934
11200.0000000232,10.9069957932645,1.00000000184657,0.637089397246061
11300.0000000236,10.9338679497673,1.00000000196268,0.632458627112633
11400.0000000239,10.9482420580627,1.00000000202441,0.6438564128235
11500.0000000243,10.9536196090906,1.00000000184717,0.634773761104582
11600.0000000247,10.9530704879245,1.00000000197874,0.631094540838585
11700.000000025,10.9384597990184,1.00000000186862,0.626501173276891
11800.0000000254,10.9232079344405,1.00000000190397,0.620389431628972
11900.0000000258,10.8998315867007,1.00000000207435,0.632962145531456
12000.0000000261,10.8677146291603,1.00000000191602,0.627504290651064
12100.0000000265,10.8318843074192,1.00000000202641,0.638142254741471
12200.0000000269,10.78976143898,1.00000000195177,0.647911885719688
12300.0000000272,10.7417922036078,1.00000000194999,0.651432474868564
12400.0000000276,10.6927697288316,1.0000000018628,0.641571112800955
12500.0000000279,10.6506305653765,1.00000000188995,0.624777720041533
12600.0000000283,10.6194473254527,1.0000000018835,0.606831918719278
12700.0000000287,10.5975795457614,1.00000000195746,0.609105826740007
12800.000000029,10.5808997998671,1.00000000190538,0.611256311291015
12900.0000000294,10.5663218149925,1.00000000190031,0.614075677308228
13000.0000000298,10.5527588364087,1.00000000202922,0.609432641914738
13100.0000000301,10.5336382996736,1.00000000208038,0.623897048073183
13200.0000000305,10.5105329140214,1.00000000217836,0.621814412161803
13300.0000000309,10.4876472690391,1.00000000199479,0.609999494567056
13400.0000000312,10.4654615124324,1.00000000190056,0.617513698784363
13500.0000000316,10.447598594947,1.00000000191203,0.613320322056783
13600.0000000319,10.4313568285783,1.00000000187253,0.602194943638809
13700.0000000323,10.4138897121905,1.00000000210152,0.604733761998314
13800.0000000327,10.3899493812969,1.0000000020729,0.609830745297092
13900.000000033,10.3684509457503,1.00000000193711,0.608999962767202
14000.0000000334,10.349016128609,1.00000000212297,0.630100815121858
14100.0000000338,10.3291514651869,1.00000000181206,0.628759210531606
14200.0000000341,10.3134671946255,1.00000000184858,0.619236554566844
14300.0000000345,10.2951704009377,1.00000000202496,0.610896727181475
14400.0000000349,10.274292274982,1.00000000195381,0.636102368986211
14500.0000000352,10.2572571440892,1.00000000182625,0.629024791304767
14600.0000000356,10.2384241630162,1.00000000201348,0.643575208825778
14700.0000000359,10.2137431890241,1.00000000198866,0.637805848125993
14800.0000000363,10.1939373549974,1.00000000170581,0.616883079563449
14900.0000000367,10.1771749475836,1.00000000203354,0.64559848365746
15000.000000037,10.151735772651,1.00000000204159,0.643303420357082
15100.0000000374,10.1237980033001,1.00000000191775,0.635189067799381
15200.0000000378,10.0910778175651,1.00000000188537,0.635540748066167
15300.0000000381,10.0587165701888,1.0000000018979,0.653495855367575
15400.0000000385,10.0299982194942,1.00000000196327,0.658305659648324
15500.0000000389,10.0017317897171,1.00000000218502,0.645255636213263
15600.0000000392,9.96744538258845,1.00000000209708,0.644010951891971
15700.0000000396,9.93338377871745,1.00000000183714,0.633963849860964
15800.0000000399,9.90356282750167,1.00000000202278,0.642669786669908
15900.0000000403,9.86771741882758,1.00000000212361,0.644691391817828
16000.0000000407,9.83026410158965,1.00000000200781,0.634202547432818
16100.000000041,9.7957127720786,1.00000000203062,0.639409815568781
16200.0000000414,9.76173592437127,1.00000000194902,0.63320551251438
16300.0000000418,9.72741328524822,1.00000000185343,0.649597482327697
16400.0000000418,9.69076635938323,1.00000000213869,0.659043495687557
16500.0000000404,9.65064319363349,1.00000000198042,0.662605048373999
16600.0000000389,9.6097466600527,1.00000000202997,0.633037067152332
16700.0000000375,9.56732101305956,1.00000000218354,0.652869358329833
16800.000000036,9.52059767966082,1.00000000214075,0.652837829249871
16900.0000000346,9.47335991114381,1.00000000199183,0.652053049891719
17000.0000000331,9.42663858760433,1.00000000193913,0.655404640082004
17100.0000000317,9.37651789793457,1.00000000223712,0.666330850334532
17200.0000000302,9.32397634797797,1.00000000218414,0.656246734734836
17300.0000000287,9.27159996606946,1.0000000019332,0.635143196392505
17400.0000000273,9.2193519141361,1.0000000018946,0.652101370303986
17500.0000000258,9.16734061407612,1.00000000215686,0.661146791358779
17600.0000000244,9.11620936252928,1.00000000170778,0.650240814340329
17700.0000000229,9.06691205859189,1.00000000184852,0.651027098923266
17800.0000000215,9.01956883865871,1.0000000020323,0.65312677184553
17900.00000002,8.9763042649905,1.00000000207424,0.656875291082452
18000.0000000186,8.93813869112114,1.00000000228225,0.658320674541253
18100.0000000171,8.90619834414278,1.00000000218767,0.673036763984061
18200.0000000156,8.88458879045712,1.00000000259354,0.673416821617447
18300.0000000142,8.8691518398837,1.00000000242434,0.679805073213541
18400.0000000127,8.86931029463536,1.00000000324617,0.670508992175766
18500.0000000113,8.869768733617,1.00000000269031,0.674765173439602
18600.0000000098,8.88399782856049,1.00000000229686,0.660381433458758
18700.0000000084,8.88802493098817,1.00000000243259,0.63741764214515
18800.0000000069,8.89268653768025,1.00000000234147,0.615925516197466
18900.0000000055,8.87888640906705,1.00000000238512,0.599536966902782
19000.000000004,8.85188149903455,1.00000000208823,0.594762662401306
19100.0000000026,8.8119503065343,1.00000000205968,0.566357334696564
19200.0000000011,8.76895841302323,1.00000000158796,0.540609611060592
19299.9999999996,8.74295584419706,1.00000000139486,0.514658839822607
19399.9999999982,8.75348844328495,1.00000000152626,0.496441796059819
19499.9999999967,8.82248783424256,1.00000000144754,0.482574503335744
19599.9999999953,8.9628056774056,1.00000000150721,0.476269268095129
19699.9999999938,9.19133765764778,1.00000000157028,0.476316161272421
19799.9999999924,9.48908647976684,1.0000000016653,0.474387997135594
19899.9999999909,9.87335476774207,1.00000000188121,0.48797031608837
19999.9999999895,10.2836043180368,1.00000000228509,0.492199300427347
20099.999999988,10.7443720433063,1.00000000211961,0.505501529921775
20199.9999999865,11.185568626693,1.00000000242772,0.513153138846558
20299.9999999851,11.6439488596428,1.00000000250158,0.522874318887847
20399.9999999836,12.0815542312523,1.00000000232893,0.529317808046808
20499.9999999822,12.5148253586778,1.00000000237896,0.536120300839729
20599.9999999807,12.9421520963948,1.00000000230563,0.543207941551928
20699.9999999793,13.3431396512299,1.00000000244351,0.553750438704756
20799.9999999778,13.7461565266896,1.00000000269679,0.56611226796081
20899.9999999764,14.1165351406866,1.00000000228494,0.571164065603184
20999.9999999749,14.5003609095038,1.00000000227319,0.574931297412538
21099.9999999734,14.8711894963586,1.00000000249468,0.594982077092577
21199.999999972,15.2398353289488,1.00000000208408,0.584292606908046
21299.9999999705,15.6126281892536,1.00000000259898,0.609533620648078
21399.9999999691,15.9475985133335,1.0000000026888,0.615815871786914
21499.9999999676,16.2813355747908,1.00000000231001,0.625760352993408
21599.9999999662,16.5927697174681,1.00000000237872,0.637910521593822
21699.9999999647,16.9005539100903,1.00000000246406,0.637110360427787
21799.9999999633,17.1874973141442,1.00000000263337,0.649846554335633
21899.9999999618,17.4641523842595,1.00000000265182,0.666346227438046
21999.9999999603,17.7180109342413,1.00000000273159,0.668002849611609
22099.9999999589,17.950355881937,1.00000000239774,0.66630214776243
22199.9999999574,18.179472619567,1.00000000229486,0.664986367088107
22299.999999956,18.4008143305533,1.00000000237976,0.674618514304498
22399.9999999545,18.628204755092,1.00000000283556,0.673213571322776
22499.9999999531,18.8326326544436,1.00000000251183,0.675221702274914
22599.9999999516,19.0289253418401,1.00000000271543,0.669594176607475
22699.9999999502,19.2158350761669,1.00000000245114,0.668550249395263
22799.9999999487,19.3988532620925,1.00000000255828,0.678608757918318
22899.9999999473,19.5740671433569,1.00000000259858,0.680169971531964
22999.9999999458,19.7376237695995,1.00000000247034,0.678006590173244
23099.9999999443,19.909670056995,1.00000000243998,0.665999612306619
23199.9999999429,20.0742909047383,1.00000000259064,0.664618736954166
23299.9999999414,20.2323024719643,1.00000000261311,0.651658320499278
23399.99999994,20.3723915717581,1.00000000279935,0.671299895133153
23499.9999999385,20.5114473122926,1.00000000232538,0.666676547450152
23599.9999999371,20.656622679002,1.0000000028401,0.686144024026864
23699.9999999356,20.7995774782745,1.00000000256423,0.662343725564365
23799.9999999342,20.9487908624461,1.00000000260148,0.674640015540359
23899.9999999327,21.0888960978633,1.00000000261451,0.678523112778512
23999.9999999312,21.2202304280261,1.00000000264004,0.676143679897977
24099.9999999298,21.3375296124236,1.00000000296,0.683372831802588
24199.9999999283,21.4542455291081,1.00000000266478,0.682034990089614
24299.9999999269,21.5758316733266,1.00000000250781,0.666864049075795
24399.9999999254,21.7014931369167,1.00000000252094,0.651322952742095
24499.999999924,21.8316911665886,1.00000000269335,0.659652870484017
24599.9999999225,21.9519976273823,1.00000000286055,0.665236434519284
24699.9999999211,22.0602896406395,1.00000000254193,0.665788492631554
24799.9999999196,22.17270247433,1.00000000253735,0.657833443525584
24899.9999999181,22.2977658014479,1.00000000324674,0.657907246790479
24999.9999999167,22.4279278142326,1.00000000273914,0.682074093799409
25099.9999999152,22.5477652395462,1.00000000301975,0.670135792140041
25199.9999999138,22.6622656781646,1.00000000310107,0.67005999494209
25299.9999999123,22.7839821685314,1.00000000243654,0.673513723596302
25399.9999999109,22.9172785935105,1.00000000281422,0.681710317184033
25499.9999999094,23.048462785374,1.00000000288054,0.683464168136156
25599.999999908,23.1808537498691,1.00000000270896,0.674291987449351
25699.9999999065,23.3286787944767,1.0000000025954,0.647041408187784
25799.9999999051,23.4895823984551,1.00000000288525,0.652487085926518
25899.9999999036,23.6372729372275,1.00000000308943,0.661744417786356
25999.9999999021,23.76688927262,1.00000000267585,0.645705555094476
26099.9999999007,23.8937281715965,1.00000000295514,0.656885941565135
26199.9999998992,24.0277131068195,1.00000000255981,0.645446347439631
26299.9999998978,24.1675537125017,1.00000000307223,0.674724102866751
26399.9999998963,24.3006966510179,1.00000000304224,0.679521826858065
26499.9999998949,24.4230109072745,1.00000000313979,0.675316466221271
26599.9999998934,24.5460500410773,1.00000000282327,0.662355540620617
26699.999999892,24.6865727866904,1.00000000290167,0.644768007211081
26799.9999998905,24.8342787484779,1.00000000304498,0.658657829665158
26899.999999889,24.9704296836283,1.00000000306161,0.660614582059464
26999.9999998876,25.1003430192677,1.00000000291335,0.659648075909686
27099.9999998861,25.2393929880037,1.00000000264661,0.657636810980986
27199.9999998847,25.383961114266,1.00000000317121,0.667411087935413
27299.9999998832,25.5266729482103,1.0000000029022,0.666065075430282
27399.9999998818,25.6723489230125,1.000000002792,0.658575606027307
27499.9999998803,25.8148574945262,1.00000000304719,0.672408179626006
27599.9999998789,25.9400893273515,1.00000000312901,0.663787412202092
27699.9999998774,26.056399384091,1.00000000281338,0.679418548329967
27799.9999998759,26.1684591830434,1.00000000286612,0.679311779171977
27899.9999998745,26.284341037049,1.00000000316531,0.676647808797532
27999.999999873,26.4133699877303,1.00000000327112,0.672698180815481
28099.9999998716,26.5501930732974,1.00000000300749,0.670119101353482
28199.9999998701,26.7001519462314,1.00000000286217,0.673405717533623
28299.9999998687,26.871349983427,1.00000000256217,0.655987572012025
28399.9999998672,27.0609913422709,1.00000000286772,0.659476064370355
28499.9999998658,27.2606328324228,1.0000000031478,0.666306314764103
28599.9999998643,27.4606799360755,1.00000000240199,0.656342505399605
28699.9999998629,27.6615563769025,1.00000000326512,0.660449858124563
28799.9999998614,27.8552668624425,1.00000000297161,0.656359593922662
28899.9999998599,28.0529539446512,1.00000000283415,0.664434147680164
28999.9999998585,28.2524024311453,1.00000000291862,0.672151615720458
