Time,AGPnorm,Energy,Entropy
0,0,1,-7.37245728235129e-17
99.9999999999986,0.000840863187230221,1.00000000000056,0.00283531556567832
199.999999999993,0.00547416778627669,0.99999999999937,0.00838834502512474
300,0.0112468569071836,0.999999999998637,0.0154991867442744
400.000000000022,0.0173000336633026,0.999999999999532,0.0243259408724854
500.000000000045,0.0242391914869249,1.00000000000028,0.0351560868152422
600.000000000068,0.0338684312811829,0.99999999999986,0.047611598596232
700.000000000091,0.0436173286761829,0.999999999998827,0.0612391617855824
800.000000000113,0.0545980128558227,0.999999999999418,0.0762295836838817
900.000000000136,0.0651506198132506,0.999999999999904,0.0931502418124421
1000.00000000016,0.0778049675101758,1.00000000000012,0.112178143926847
1100.0000000001,0.089860222714808,0.999999999999272,0.13361741869352
1200,0.102463333653133,1.00000000000075,0.157895345554389
1299.99999999991,0.114471064287978,1.00000000000722,0.186721958406107
1399.99999999982,0.125493260001079,1.0000000000293,0.220823819828332
1499.99999999973,0.137920424617858,1.0000000000859,0.259653157276664
1599.99999999964,0.167018788363301,1.00000000017872,0.29946813781069
1699.99999999955,0.225845713409549,1.00000000029617,0.337954626858771
1799.99999999946,0.332155137820974,1.00000000044785,0.372959889675788
1899.99999999937,0.554631291837922,1.00000000058765,0.404369243347572
1999.99999999928,0.988257679632447,1.0000000007257,0.431418201021096
2099.99999999919,1.6882900903427,1.00000000086451,0.45516258205734
2199.99999999909,2.69427466434293,1.00000000093457,0.475839441015415
2299.999999999,4.07597221461028,1.00000000096214,0.493873820260955
2399.99999999891,5.90176039011746,1.00000000111357,0.508340619041224
2499.99999999882,8.17535154371548,1.00000000110359,0.521273078620825
2599.99999999873,10.8763322568063,1.00000000118356,0.531726372910081
2699.99999999864,13.9960316846665,1.00000000116344,0.540793386874426
2799.99999999855,17.5192521600776,1.00000000120732,0.547756568224515
2899.99999999846,21.3919358931466,1.00000000118297,0.553627768225317
2999.99999999837,25.5473344903363,1.00000000113255,0.558075035051629
3099.99999999828,29.9391225643491,1.0000000011877,0.561301494942077
3199.99999999819,34.5124319676945,1.00000000112699,0.564096785230848
3299.99999999809,39.1987209161826,1.00000000113573,0.565753293743484
3399.999999998,43.9294562289124,1.00000000113107,0.566690581709435
3499.99999999791,48.6579523701765,1.00000000105143,0.566945833289112
3599.99999999782,53.3406890874704,1.0000000011029,0.567054011455941
3699.99999999773,57.9221534526519,1.00000000099105,0.565779546952613
3799.99999999764,62.3574730065847,1.00000000102785,0.565016325035032
3899.99999999755,66.6077909096232,1.00000000097362,0.565116622343705
3999.99999999746,70.6515208953566,1.00000000094796,0.563293114537723
4099.99999999738,74.4680050210319,1.00000000092485,0.560277941050289
4199.99999999775,78.0259111685335,1.0000000009331,0.560544144853814
4299.99999999811,81.3093522734655,1.00000000085402,0.558356205448753
4399.99999999848,84.3199344134504,1.00000000083372,0.555572207423026
4499.99999999884,87.0515655561386,1.000000000842,0.555093440834807
4599.9999999992,89.4994388758072,1.00000000083107,0.552003600343615
4699.99999999957,91.6587563884249,1.00000000077277,0.550278595829764
4799.99999999993,93.5365224172454,1.00000000076215,0.55110795387464
4900.00000000029,95.148196572191,1.00000000075986,0.547330715665256
5000.00000000066,96.492764392716,1.00000000067049,0.541716854651876
5100.00000000102,97.5849819242168,1.00000000071807,0.551151171141956
5200.00000000139,98.4473122824518,1.00000000069418,0.544179701389948
5300.00000000175,99.0689606234669,1.00000000062384,0.53263410096363
5400.00000000211,99.4737894678234,1.0000000006831,0.551682618717808
5500.00000000248,99.7185650693158,1.00000000068572,0.552158753733934
5600.00000000284,99.774453078823,1.00000000058226,0.521332419676319
5700.00000000321,99.6218424427759,1.00000000059919,0.53484425643278
5800.00000000357,99.3587418910029,1.00000000076768,0.565708171388408
5900.00000000393,99.0183812129835,1.00000000065615,0.538595893251795
6000.0000000043,98.5195743155665,1.00000000045308,0.496746996539879
6100.00000000466,97.8721050437909,1.00000000062864,0.536990755785083
6200.00000000502,97.1965837929391,1.00000000082184,0.573139450657899
6300.00000000539,96.512867007772,1.00000000067713,0.536923799667502
6400.00000000575,95.7249696987389,1.0000000004174,0.47309114668647
6500.00000000612,94.8155888678535,1.00000000053642,0.504865198885244
6600.00000000648,93.8920192356472,1.00000000088039,0.56939693674942
6700.00000000684,93.0169684405684,1.00000000089733,0.564891936537907
6800.00000000721,92.1342250189442,1.00000000054189,0.49175509031447
6900.00000000757,91.1641920620373,1.00000000035189,0.439302781117904
7000.00000000793,90.130022548527,1.00000000063924,0.501688156903273
7100.0000000083,89.1176974112238,1.00000000093494,0.568533337326512
7200.00000000866,88.1685655577106,1.00000000091003,0.564209095225905
7300.00000000903,87.2440758281741,1.00000000065829,0.501225140486785
7400.00000000939,86.2793074633524,1.00000000038485,0.421992542183878
7500.00000000975,85.2633891919584,1.00000000045176,0.438456836629999
7600.00000001012,84.2426015703546,1.0000000007802,0.521301042319091
7700.00000001048,83.2631665612649,1.00000000093475,0.560156819063055
7800.00000001084,82.3359322907227,1.00000000090345,0.550195336560669
7900.00000001121,81.4331384291796,1.00000000068409,0.497746108774555
8000.00000001157,80.5181611716558,1.00000000046181,0.424686079012886
8100.00000001194,79.5829179017141,1.00000000040515,0.415660135989589
8200.0000000123,78.6451835152491,1.00000000060868,0.467136386163158
8300.00000001266,77.7255737576305,1.00000000081415,0.525554251825181
8400.00000001303,76.837205047687,1.00000000094579,0.547013669259248
8500.00000001339,75.9817685051909,1.00000000081344,0.539071481043267
8600.00000001376,75.146856786244,1.00000000063767,0.496298691919764
8700.00000001412,74.3187907217413,1.00000000049391,0.450068111238384
8800.00000001448,73.4971551298192,1.00000000046617,0.425223180686073
8900.00000001485,72.6867659649432,1.00000000052463,0.444228590194056
9000.00000001521,71.8899643843568,1.00000000063086,0.478073077484829
9100.00000001557,71.1086866038878,1.00000000074674,0.511473523455184
9200.00000001594,70.3439119105842,1.00000000086063,0.526850789041061
9300.0000000163,69.5960861698134,1.0000000008772,0.535417839178167
9400.00000001667,68.8650026045214,1.00000000074602,0.524965111109895
9500.00000001703,68.1495469743957,1.00000000059133,0.480951656083045
9600.00000001739,67.4518461456429,1.00000000048667,0.448170317619581
9700.00000001776,66.7755505170689,1.00000000050619,0.44543323373706
9800.00000001812,66.1202352709685,1.00000000064475,0.465134980085883
9900.00000001848,65.482271405663,1.00000000061696,0.483503292197658
10000.0000000188,64.8596721259229,1.00000000062572,0.488990798678471
10100.0000000192,64.2526616222762,1.00000000061693,0.500074040450365
10200.0000000196,63.6565888860993,1.00000000070456,0.511293120514136
10300.0000000199,63.0644442866993,1.00000000091641,0.532102653224796
10400.0000000203,62.4758885797701,1.00000000083897,0.53914085509264
10500.0000000207,61.8983834552826,1.00000000068405,0.513408327258711
10600.000000021,61.3430219639744,1.00000000047854,0.466635812137446
10700.0000000214,60.8165965232173,1.00000000049461,0.445724018028374
10800.0000000218,60.316190446811,1.00000000060366,0.454670592486863
10900.0000000221,59.8313673928417,1.00000000071519,0.470015457161344
11000.0000000225,59.3555803837071,1.00000000071533,0.492874352243792
11100.0000000229,58.8896005825652,1.00000000069952,0.499623628461255
11200.0000000232,58.4388495090981,1.00000000058913,0.488299453217047
11300.0000000236,58.0056306084778,1.00000000056949,0.492013968103222
11400.0000000239,57.5834863777463,1.00000000068567,0.505366174360375
11500.0000000243,57.1613090558994,1.00000000078734,0.522802407724509
11600.0000000247,56.7308012576819,1.00000000091238,0.537620305954744
11700.000000025,56.2960480661593,1.00000000083719,0.538874923797415
11800.0000000254,55.8675519925428,1.000000000663,0.518459477246036
11900.0000000258,55.4581715610581,1.00000000050531,0.484362254498107
12000.0000000261,55.0782273178944,1.000000000483,0.461124266530461
12100.0000000265,54.7289168213278,1.00000000055214,0.457132158179394
12200.0000000269,54.401994636789,1.000000000654,0.466182707802552
12300.0000000272,54.085267530789,1.00000000068544,0.48311595888682
12400.0000000276,53.7721135179926,1.00000000074439,0.490584555610704
12500.0000000279,53.4633871018308,1.00000000070437,0.499443969544575
12600.0000000283,53.1610807800144,1.00000000069847,0.508664183082188
12700.0000000287,52.8672957642149,1.00000000063367,0.513385691948736
12800.000000029,52.5815658538743,1.00000000063522,0.518994450451239
12900.0000000294,52.3020460490907,1.000000000647,0.524687594234145
13000.0000000298,52.0256741966852,1.00000000063892,0.526044383216908
13100.0000000301,51.7493229918211,1.00000000073045,0.521825473441849
13200.0000000305,51.4683900590316,1.000000000778,0.528695893389989
13300.0000000309,51.1795922417577,1.00000000083236,0.540978585190719
13400.0000000312,50.8856499941097,1.00000000076661,0.545486022004469
13500.0000000316,50.598628838122,1.00000000066203,0.527033484152967
13600.0000000319,50.3320637775084,1.00000000054103,0.502482989654153
13700.0000000323,50.0938021812853,1.00000000054726,0.477712553505313
13800.0000000327,49.8818643817944,1.00000000058404,0.477499688668149
13900.000000033,49.6890196980007,1.00000000063057,0.485780241210567
14000.0000000334,49.5071777380204,1.00000000067943,0.483845907777674
14100.0000000338,49.3330291983984,1.00000000069352,0.48855447129812
14200.0000000341,49.1636384322613,1.00000000065469,0.500035292286853
14300.0000000345,49.0041605672034,1.00000000060788,0.498625645494559
14400.0000000349,48.8579153273515,1.00000000058342,0.498062875812915
14500.0000000352,48.7192523141578,1.00000000063931,0.511952918843411
14600.0000000356,48.5748108077699,1.0000000007279,0.528330854661332
14700.0000000359,48.4164877116313,1.00000000081294,0.542587802920921
14800.0000000363,48.2444704268929,1.00000000076862,0.546933616961329
14900.0000000367,48.0654492957744,1.00000000069112,0.550753455669037
15000.000000037,47.8871616017495,1.00000000064045,0.542631484961996
15100.0000000374,47.7161063593609,1.00000000058562,0.529346626647859
15200.0000000378,47.552771512584,1.00000000062305,0.523446132340695
15300.0000000381,47.3913496286957,1.00000000074096,0.522079756118053
15400.0000000385,47.2245136192136,1.00000000078911,0.53116572907944
15500.0000000389,47.0482386653765,1.00000000083343,0.545395765862679
15600.0000000392,46.8636179838097,1.00000000077185,0.551860941310751
15700.0000000396,46.6783381517899,1.00000000068909,0.544472303266794
15800.0000000399,46.5047754642109,1.00000000059331,0.53038657710291
15900.0000000403,46.3528389590458,1.00000000057431,0.511759134221306
16000.0000000407,46.2266010813723,1.00000000053605,0.496740652221564
16100.000000041,46.1236696826803,1.00000000059368,0.490293406946616
16200.0000000414,46.0391117210021,1.0000000006376,0.490473364743102
16300.0000000418,45.9628451755905,1.00000000067384,0.493015677920255
16400.0000000418,45.8890953959536,1.00000000069578,0.497366431951198
16500.0000000404,45.8194781412231,1.00000000068294,0.49477506575974
16600.0000000389,45.7568500667863,1.00000000061936,0.497718683150009
16700.0000000375,45.6991891449034,1.00000000067125,0.510173339212003
16800.000000036,45.6440368742104,1.00000000067669,0.526075778488626
16900.0000000346,45.5920088487861,1.00000000064856,0.535180192299664
17000.0000000331,45.5460304644574,1.00000000063697,0.537911958742641
17100.0000000317,45.5065907146073,1.0000000006239,0.542851824290837
17200.0000000302,45.4692244519687,1.00000000067749,0.542763793143127
17300.0000000287,45.4262441988075,1.00000000073677,0.54566203751995
17400.0000000273,45.3706646864675,1.00000000075142,0.550191675833719
17500.0000000258,45.2972959421601,1.00000000076983,0.551787963427508
17600.0000000244,45.205717789807,1.00000000079233,0.548829179554556
17700.0000000229,45.1002614263174,1.00000000077023,0.558605308743983
17800.0000000215,44.986943101496,1.00000000071162,0.570581597883595
17900.00000002,44.8701927185944,1.00000000065961,0.569114225756909
18000.0000000186,44.7551473967404,1.00000000058609,0.562236494017735
18100.0000000171,44.6462698894764,1.00000000059891,0.557877377399026
18200.0000000156,44.5437393605696,1.00000000061018,0.554521504526582
18300.0000000142,44.4462434064059,1.00000000068143,0.548423861043312
18400.0000000127,44.349365928942,1.00000000070465,0.548162343318006
18500.0000000113,44.2492451890448,1.00000000079808,0.557306425697881
18600.0000000098,44.1438150330952,1.00000000083703,0.564638909459478
18700.0000000084,44.0305701440316,1.00000000078563,0.567815276373064
18800.0000000069,43.9139361215204,1.00000000072451,0.568906162581183
18900.0000000055,43.8029549233438,1.00000000065835,0.558564937153433
19000.000000004,43.7061873305535,1.00000000058283,0.543706543426277
19100.0000000026,43.6293052900461,1.00000000057461,0.533094887126547
19200.0000000011,43.5742318358733,1.00000000056734,0.519497899053821
19299.9999999996,43.5392053674469,1.00000000059189,0.511457922437106
19399.9999999982,43.5177731410201,1.00000000063838,0.507083632319887
19499.9999999967,43.5028556821513,1.00000000065953,0.514576828219547
19599.9999999953,43.4937304714994,1.00000000068039,0.513304980635561
19699.9999999938,43.4916933494637,1.00000000068188,0.509339415469217
19799.9999999924,43.4936964171256,1.00000000067613,0.505700112162044
19899.9999999909,43.4981863072045,1.00000000068117,0.509789464115335
19999.9999999895,43.5072995425481,1.00000000062124,0.508437295796331
20099.999999988,43.5245180078992,1.00000000064325,0.505044787339698
20199.9999999865,43.5493899393758,1.00000000064651,0.513324019898319
20299.9999999851,43.5754974824223,1.00000000065334,0.533929627654464
20399.9999999836,43.5955405424424,1.00000000075836,0.550075035256899
20499.9999999822,43.6056819886951,1.00000000072421,0.555943058352121
20599.9999999807,43.607297884403,1.00000000073635,0.56527975851846
20699.9999999793,43.6061295089201,1.00000000069691,0.569330413578383
20799.9999999778,43.6059220756725,1.00000000063827,0.567297468303336
20899.9999999764,43.6054132990712,1.00000000065839,0.565780374397888
20999.9999999749,43.6014871839707,1.00000000069842,0.574661978506714
21099.9999999734,43.5935542440856,1.00000000070235,0.58676022759962
21199.999999972,43.5825429087223,1.00000000063935,0.588538524158539
21299.9999999705,43.5672100295387,1.00000000064357,0.586882728174091
21399.9999999691,43.5437299349939,1.00000000071655,0.584509092119002
21499.9999999676,43.5113387330285,1.00000000074738,0.580471472317444
21599.9999999662,43.4704459633549,1.00000000069421,0.575553310629021
21699.9999999647,43.4206498005953,1.00000000072453,0.563959200661823
21799.9999999633,43.3623355211982,1.0000000007234,0.554024610829575
21899.9999999618,43.2950341435757,1.00000000074189,0.561421344361876
21999.9999999603,43.2188819572785,1.00000000081275,0.57752845358608
22099.9999999589,43.1340357464268,1.00000000078167,0.58258040942945
22199.9999999574,43.0434845349383,1.00000000072703,0.583979743036338
22299.999999956,42.9516552687896,1.00000000066177,0.581153284424719
22399.9999999545,42.86206982439,1.000000000625,0.581265404461034
22499.9999999531,42.776285974362,1.00000000060478,0.582436039220938
22599.9999999516,42.6952923963819,1.00000000059986,0.585655794938293
22699.9999999502,42.6183414032105,1.00000000067465,0.585226460700087
22799.9999999487,42.5452008746116,1.00000000064172,0.580012917613471
22899.9999999473,42.4740427801924,1.00000000066937,0.581936526400254
22999.9999999458,42.4035352986957,1.0000000007294,0.582205314257031
23099.9999999443,42.3320415465854,1.00000000073172,0.577109223043322
23199.9999999429,42.2577383786279,1.00000000080275,0.573405030834221
23299.9999999414,42.180137111845,1.00000000080275,0.56921925512512
23399.99999994,42.0985130573353,1.0000000007872,0.568938581844612
23499.9999999385,42.0154050741149,1.00000000073001,0.564445560282032
23599.9999999371,41.9363447610841,1.00000000068449,0.563387848150436
23699.9999999356,41.8668860373513,1.00000000061594,0.559183719312732
23799.9999999342,41.8115296533129,1.00000000057244,0.553735896476366
23899.9999999327,41.7729148110086,1.00000000058346,0.543614288836657
23999.9999999312,41.7510733249578,1.00000000059185,0.540294881770753
24099.9999999298,41.7451407116353,1.0000000006173,0.533346083882489
24199.9999999283,41.7508755757798,1.00000000063173,0.525789862338856
24299.9999999269,41.7653097715997,1.00000000067204,0.526727765166243
24399.9999999254,41.7865073223444,1.00000000066361,0.525852666614373
24499.999999924,41.8140300774541,1.00000000067144,0.521822463469481
24599.9999999225,41.8462144191052,1.00000000070493,0.522064539812495
24699.9999999211,41.880723714645,1.00000000066831,0.522394863310005
24799.9999999196,41.9193884473258,1.00000000063667,0.521468178322274
24899.9999999181,41.9649458456715,1.00000000062376,0.517662897870619
24999.9999999167,42.0178961048979,1.00000000063266,0.512551253067175
25099.9999999152,42.0756812730762,1.00000000066023,0.515929200290156
25199.9999999138,42.1335322719185,1.00000000069529,0.522654990349098
25299.9999999123,42.1874436006889,1.00000000069338,0.533105101456956
25399.9999999109,42.2353723729342,1.00000000074653,0.544599084507364
25499.9999999094,42.2796929185596,1.00000000070662,0.555091385469589
25599.999999908,42.3205553599967,1.00000000074104,0.563943551758736
25699.9999999065,42.3585135952379,1.00000000070196,0.56530307216382
25799.9999999051,42.3932769371273,1.00000000070605,0.573879097910931
25899.9999999036,42.4250384520559,1.0000000006831,0.575765658211873
25999.9999999021,42.4528309781066,1.0000000006922,0.578053515577751
26099.9999999007,42.4773957181178,1.0000000007025,0.581818990090721
26199.9999998992,42.4987115566874,1.00000000070334,0.58350465879089
26299.9999998978,42.5155816330196,1.00000000070895,0.585908271756649
26399.9999998963,42.5274021426277,1.00000000072364,0.584677571254653
26499.9999998949,42.5336304289937,1.00000000073152,0.585451503041
26599.9999998934,42.5347370457634,1.00000000075285,0.583355840159529
26699.999999892,42.5323811240372,1.00000000070599,0.582637786557431
26799.9999998905,42.5288090575385,1.0000000006764,0.586384497256404
26899.999999889,42.5249354476069,1.00000000063864,0.582240977677396
26999.9999998876,42.5207786967617,1.00000000070858,0.57875893781466
27099.9999998861,42.5142429464912,1.00000000067639,0.580574946696122
27199.9999998847,42.5033489994416,1.00000000071465,0.582859369977252
27299.9999998832,42.4875795989732,1.0000000006995,0.582965398253253
27399.9999998818,42.4688430419796,1.00000000070666,0.577997653799506
27499.9999998803,42.4475859046374,1.00000000069659,0.572577681110267
27599.9999998789,42.4234532289625,1.00000000071052,0.572403667710758
27699.9999998774,42.3958294455968,1.00000000069662,0.569297356500186
27799.9999998759,42.3641868144849,1.00000000074562,0.574688761597335
27899.9999998745,42.327616212631,1.00000000076832,0.581161247895264
27999.999999873,42.2866841494367,1.00000000071476,0.582765542636957
28099.9999998716,42.2421825832114,1.00000000069659,0.591073302567045
28199.9999998701,42.1948910724373,1.00000000066774,0.592356395194051
28299.9999998687,42.1477818373059,1.00000000063242,0.587038386890848
28399.9999998672,42.1016411128212,1.00000000069241,0.587766104225096
28499.9999998658,42.0554676206176,1.00000000067989,0.588986444941474
28599.9999998643,42.0087886301109,1.00000000065932,0.584189333455201
28699.9999998629,41.9622482007486,1.00000000067192,0.576408772316946
28799.9999998614,41.9145757359401,1.00000000069772,0.573249701619509
28899.9999998599,41.8638249603412,1.00000000073636,0.577480563771948
28999.9999998585,41.808883780115,1.00000000075616,0.581446606876585
