Time,AGPnorm,Energy,Entropy
0,0,1,-7.35415198804378e-17
99.9999999999986,0.00189691857999012,1.00000000000058,0.00589023901027596
199.999999999993,0.0130413936675128,1.000000000001,0.0172064950269696
300,0.0263326497054274,1.00000000000082,0.0316956312384015
400.000000000022,0.0391607023548521,1.00000000000048,0.0499808902793983
500.000000000045,0.0550809184936553,0.999999999999762,0.072383768063508
600.000000000068,0.0745333964717158,1.00000000000049,0.0988975711007925
700.000000000091,0.0934680128252799,1.00000000000148,0.130416991369957
800.000000000113,0.111083013682283,1.00000000000546,0.169067854864489
900.000000000136,0.129662897154825,1.0000000000624,0.220104728189325
1000.00000000016,0.143244616732609,1.00000000028976,0.281643414033092
1100.0000000001,0.187622761877717,1.00000000070587,0.343058732405862
1200,0.319361137436427,1.00000000125496,0.396600688780749
1299.99999999991,0.59694170960582,1.00000000159981,0.442262911164862
1399.99999999982,1.1325913364299,1.00000000204389,0.479765616939957
1499.99999999973,2.04409226566294,1.00000000233495,0.509736157284096
1599.99999999964,3.37281941708572,1.0000000025952,0.533981558993429
1699.99999999955,5.1150110253207,1.0000000026019,0.553395484492545
1799.99999999946,7.26021993529083,1.00000000263742,0.567868362416591
1899.99999999937,9.74459530004157,1.00000000271911,0.577986330681724
1999.99999999928,12.4629170616556,1.00000000268079,0.586341382868858
2099.99999999919,15.3440845462067,1.00000000268749,0.591459462994462
2199.99999999909,18.3215732791696,1.00000000256815,0.594433141820709
2299.999999999,21.3027742866978,1.00000000255099,0.594743346015118
2399.99999999891,24.1894368402684,1.00000000236609,0.595726611649321
2499.99999999882,26.9221252359208,1.00000000225109,0.595537729987701
2599.99999999873,29.477429096619,1.00000000222553,0.593200634625037
2699.99999999864,31.8209892523997,1.00000000206663,0.59021361398197
2799.99999999855,33.9136295298921,1.00000000191939,0.588439826952185
2899.99999999846,35.7289242933586,1.00000000187423,0.587980651983164
2999.99999999837,37.2689295266805,1.00000000185554,0.586378576463187
3099.99999999828,38.546710100159,1.00000000180951,0.583522286284774
3199.99999999819,39.5657249653889,1.00000000166865,0.579393141128
3299.99999999809,40.3313331033686,1.00000000165955,0.578770213272484
3399.999999998,40.856281579363,1.00000000156633,0.576860531590239
3499.99999999791,41.1726818124946,1.00000000148502,0.573292210148031
3599.99999999782,41.2969024370371,1.00000000159944,0.582939828063093
3699.99999999773,41.2575317739347,1.00000000131905,0.559192006314586
3799.99999999764,41.0836165074017,1.00000000156124,0.580770095772301
3899.99999999755,40.7839676632955,1.00000000129984,0.551824739974754
3999.99999999746,40.4028375563325,1.00000000170717,0.576519795824446
4099.99999999738,39.9450270263659,1.00000000123916,0.540071385171768
4199.99999999775,39.4312358645499,1.00000000181458,0.579962543354273
4299.99999999811,38.8911014530392,1.00000000138131,0.539567966766029
4399.99999999848,38.2935922797921,1.00000000161836,0.556171428649712
4499.99999999884,37.7070070318186,1.00000000161867,0.547147125886494
4599.9999999992,37.0944695707644,1.00000000128263,0.516241549160367
4699.99999999957,36.4698140348382,1.00000000197898,0.570190024944447
4799.99999999993,35.8664144452578,1.00000000146724,0.520919804386571
4900.00000000029,35.2482949815517,1.00000000131287,0.509868467880261
5000.00000000066,34.6319409737143,1.00000000190985,0.553607334504457
5100.00000000102,34.0417441736754,1.00000000164168,0.517412924667811
5200.00000000139,33.4535788386776,1.0000000013151,0.506799661894846
5300.00000000175,32.8659377978973,1.00000000160332,0.52453359850016
5400.00000000211,32.2980028874605,1.00000000189863,0.542875585721687
5500.00000000248,31.7470604934214,1.00000000139412,0.487856241696795
5600.00000000284,31.2048295602069,1.00000000146375,0.522808947598056
5700.00000000321,30.6734915973827,1.00000000155276,0.52188109383741
5800.00000000357,30.1587202988167,1.00000000174185,0.530817794579282
5900.00000000393,29.6601368436746,1.00000000144729,0.501774352977054
6000.0000000043,29.1773684124217,1.00000000141261,0.512898375225821
6100.00000000466,28.7083810127982,1.00000000158193,0.540032172318102
6200.00000000502,28.2549295041472,1.00000000154351,0.513593055232808
6300.00000000539,27.8171697502089,1.00000000170598,0.520402720369831
6400.00000000575,27.3938467413439,1.00000000149556,0.505939986679529
6500.00000000612,26.9897267097281,1.00000000139102,0.51065343004585
6600.00000000648,26.597684108778,1.0000000017674,0.545634168109716
6700.00000000684,26.2203702879229,1.00000000139844,0.519730965055124
6800.00000000721,25.8604021171095,1.00000000155349,0.513358442489776
6900.00000000757,25.5121439998094,1.00000000179023,0.518569960967648
7000.00000000793,25.1770671195729,1.00000000147037,0.503848777363085
7100.0000000083,24.8590994259354,1.00000000144977,0.523295164260985
7200.00000000866,24.5503148888788,1.00000000185037,0.541658127633651
7300.00000000903,24.2497039555491,1.00000000144785,0.528052883398037
7400.00000000939,23.9662696655011,1.0000000014554,0.510808303150156
7500.00000000975,23.6961189301194,1.00000000166283,0.521137552338023
7600.00000001012,23.4341700992479,1.00000000169766,0.520918821321115
7700.00000001048,23.1847424833894,1.00000000148294,0.506807891799347
7800.00000001084,22.9484914029543,1.00000000153787,0.529344104958252
7900.00000001121,22.7194264408882,1.00000000160904,0.543183484328041
8000.00000001157,22.495706615369,1.00000000160688,0.534395757269603
8100.00000001194,22.2791653462647,1.00000000155976,0.538268438992743
8200.0000000123,22.0728754672916,1.00000000150947,0.533842264467077
8300.00000001266,21.8781938869913,1.00000000162605,0.526859794753763
8400.00000001303,21.6927449065529,1.00000000160969,0.534276329120473
8500.00000001339,21.5171945644618,1.00000000156569,0.526651904498238
8600.00000001376,21.3539354042695,1.00000000155976,0.527671856706327
8700.00000001412,21.1971960005037,1.00000000163028,0.54764597286693
8800.00000001448,21.042038643748,1.00000000158011,0.553385469027036
8900.00000001485,20.8985223182631,1.00000000142418,0.535877270511788
9000.00000001521,20.7579835992855,1.00000000173478,0.541169559576506
9100.00000001557,20.6159293927777,1.00000000175277,0.563250635791278
9200.00000001594,20.4747428125254,1.00000000161397,0.55592547290719
9300.0000000163,20.3452154408094,1.00000000146766,0.533275624442047
9400.00000001667,20.2253688295935,1.00000000168937,0.548976347147108
9500.00000001703,20.1121693531971,1.00000000161683,0.541392916772959
9600.00000001739,20.0095804327809,1.00000000155493,0.536698653659313
9700.00000001776,19.9158598091776,1.00000000157194,0.547406759234131
9800.00000001812,19.8241957985488,1.00000000178227,0.55600616586112
9900.00000001848,19.7282805991373,1.00000000171436,0.559313468782126
10000.0000000188,19.6384781959785,1.00000000152667,0.545700257208262
10100.0000000192,19.5630112959512,1.00000000148886,0.545585119643773
10200.0000000196,19.4876745162795,1.00000000180645,0.560545182986291
10300.0000000199,19.404409510187,1.00000000174833,0.55810333531086
10400.0000000203,19.3163203803603,1.00000000176237,0.570718571875067
10500.0000000207,19.2280589501574,1.00000000163167,0.576477648746703
10600.000000021,19.1446804037329,1.00000000165639,0.56716507041199
10700.0000000214,19.0686177489423,1.00000000171044,0.570867518323252
10800.0000000218,19.0013954956748,1.00000000163097,0.564985900811974
10900.0000000221,18.94372994418,1.00000000162541,0.550593722439699
11000.0000000225,18.8955751293198,1.00000000163454,0.54744902781014
11100.0000000229,18.8517440910413,1.00000000170512,0.567277173822826
11200.0000000232,18.8070943850918,1.00000000177604,0.576150038157939
11300.0000000236,18.7633718825894,1.0000000016009,0.567505111214641
11400.0000000239,18.7229181722883,1.00000000162948,0.566460962332682
11500.0000000243,18.6846405411018,1.00000000167963,0.57630965388217
11600.0000000247,18.6510561813477,1.00000000158309,0.571718510738793
11700.000000025,18.6208858830945,1.00000000168429,0.57544782614524
11800.0000000254,18.5880970917706,1.00000000170436,0.580400606991922
11900.0000000258,18.5514950635853,1.00000000167296,0.587923267362695
12000.0000000261,18.510588763993,1.00000000176157,0.589503226031919
12100.0000000265,18.463558015168,1.00000000175151,0.597926004472058
12200.0000000269,18.4109786600389,1.00000000173568,0.604384589303956
12300.0000000272,18.3577352220351,1.00000000169452,0.606396919610938
12400.0000000276,18.3075096193128,1.00000000164675,0.60174303729491
12500.0000000279,18.2626075200628,1.00000000160058,0.603005042150486
12600.0000000283,18.224694251733,1.0000000016549,0.592061976308372
12700.0000000287,18.1966938218926,1.00000000157782,0.570620689945365
12800.000000029,18.1794150001603,1.00000000162364,0.564187946094603
12900.0000000294,18.1688377034852,1.00000000173221,0.573281606537426
13000.0000000298,18.1580781578648,1.00000000168006,0.587292485573774
13100.0000000301,18.1463374274175,1.0000000017217,0.596856186941313
13200.0000000305,18.1352887905086,1.00000000169698,0.591173329813399
13300.0000000309,18.1253565894066,1.00000000165968,0.587701171235248
13400.0000000312,18.1213754080917,1.00000000157868,0.584859190414366
13500.0000000316,18.1167475215146,1.00000000177405,0.590724166155273
13600.0000000319,18.1071462650039,1.00000000181775,0.596174432779191
13700.0000000323,18.1023195016948,1.00000000160425,0.595264085919054
13800.0000000327,18.1025158861615,1.00000000159832,0.601689135303091
13900.000000033,18.0989205149814,1.00000000180429,0.618056926551488
14000.0000000334,18.0872681760199,1.00000000187149,0.618591595502265
14100.0000000338,18.0680528765311,1.00000000175515,0.615916025754895
14200.0000000341,18.0463678964954,1.00000000165518,0.614755666854965
14300.0000000345,18.0265384942828,1.00000000162486,0.607333645354348
14400.0000000349,18.0047196814174,1.0000000017927,0.618409314933001
14500.0000000352,17.9789439853631,1.0000000017935,0.616736857636739
14600.0000000356,17.9467109877945,1.00000000182999,0.617301722189748
14700.0000000359,17.9087347093361,1.00000000183218,0.618698288830741
14800.0000000363,17.8685064784458,1.00000000183373,0.618214249387947
14900.0000000367,17.8296204914259,1.00000000178777,0.618696322264152
15000.000000037,17.7973469195193,1.00000000166913,0.611656539839577
15100.0000000374,17.7731772823831,1.00000000173324,0.606466525733563
15200.0000000378,17.758870396896,1.00000000172726,0.596455867203677
15300.0000000381,17.7554769156406,1.00000000163066,0.589181440644451
15400.0000000385,17.7603985825528,1.00000000168261,0.587402798104681
15500.0000000389,17.76894780546,1.00000000172169,0.592641339541416
15600.0000000392,17.7779821705816,1.0000000017898,0.600428599827912
15700.0000000396,17.7881333727725,1.00000000167631,0.598578195593674
15800.0000000399,17.7965052287328,1.00000000184101,0.598546527880065
15900.0000000403,17.8079784421703,1.00000000163681,0.590561539842631
16000.0000000407,17.8247151736523,1.00000000168712,0.595912735406197
16100.000000041,17.8397456738411,1.00000000183056,0.602095240422589
16200.0000000414,17.8518950994053,1.0000000017896,0.608935962998652
16300.0000000418,17.8655552679269,1.00000000167369,0.612598221511363
16400.0000000418,17.8802565778232,1.0000000018077,0.610226093434399
16500.0000000404,17.8922718948353,1.00000000178313,0.609315842352114
16600.0000000389,17.9002804294941,1.00000000183552,0.609336935380067
16700.0000000375,17.9058495292526,1.00000000190569,0.600202042582818
16800.000000036,17.9120064234647,1.00000000173198,0.610892011545265
16900.0000000346,17.9193649978319,1.00000000181422,0.633179312329028
17000.0000000331,17.9229162288044,1.00000000180156,0.632783042746624
17100.0000000317,17.9223090606135,1.0000000018492,0.646199372718221
17200.0000000302,17.9200847488437,1.00000000178154,0.641765240444857
17300.0000000287,17.9147684798764,1.00000000187493,0.635882370133843
17400.0000000273,17.9083855493666,1.00000000176708,0.64151148237735
17500.0000000258,17.9017616229733,1.00000000178441,0.645317851427871
17600.0000000244,17.8933159351233,1.0000000019037,0.648504566502674
17700.0000000229,17.8810801953983,1.00000000176852,0.650116980140772
17800.0000000215,17.8662187664764,1.00000000180378,0.653227314253356
17900.00000002,17.848672520338,1.00000000184084,0.65290347476466
18000.0000000186,17.8264129627652,1.00000000186442,0.648265779140469
18100.0000000171,17.8012915562826,1.00000000191548,0.646178723168344
18200.0000000156,17.7732910940305,1.0000000018603,0.639116196797966
18300.0000000142,17.7404946009344,1.00000000200012,0.63045724189271
18400.0000000127,17.7035025731327,1.00000000184159,0.630838582206585
18500.0000000113,17.666927494813,1.000000001836,0.642314676305465
18600.0000000098,17.6338559858236,1.00000000184605,0.636738229118111
18700.0000000084,17.6055683687083,1.00000000186467,0.636286286798331
18800.0000000069,17.5832483200638,1.00000000187971,0.637831160493397
18900.0000000055,17.5671973229578,1.00000000176503,0.634057346460005
19000.000000004,17.5588357136079,1.00000000188939,0.634133616072225
19100.0000000026,17.5597846560746,1.0000000017118,0.62170829823624
19200.0000000011,17.5704767256944,1.00000000179077,0.613460911621747
19299.9999999996,17.5880839444261,1.00000000194176,0.612477472762991
19399.9999999982,17.6079258937061,1.00000000189955,0.615263833391181
19499.9999999967,17.6301940613836,1.00000000186176,0.616567390876966
19599.9999999953,17.6524614089927,1.00000000199772,0.622291456835175
19699.9999999938,17.6741007633494,1.0000000019245,0.618918732534982
19799.9999999924,17.6982510216673,1.00000000196123,0.615530799413474
19899.9999999909,17.7258983306119,1.00000000194929,0.611246024266663
19999.9999999895,17.7552493296537,1.00000000190084,0.607950021702221
20099.999999988,17.7841264898414,1.00000000199703,0.608248898554288
20199.9999999865,17.8140174830284,1.00000000189724,0.614313627245386
20299.9999999851,17.8433194806959,1.00000000188231,0.614660163777269
20399.9999999836,17.8702428696327,1.00000000199401,0.61639928872669
20499.9999999822,17.8952485659068,1.00000000190216,0.613550968476682
20599.9999999807,17.9205221272561,1.00000000196556,0.617552710976586
20699.9999999793,17.9463077215659,1.00000000200706,0.620924963883999
20799.9999999778,17.9694754037419,1.00000000202125,0.619236702820331
20899.9999999764,17.9880340368062,1.00000000205392,0.623523385580433
20999.9999999749,18.0041467796558,1.00000000199121,0.631012127617212
21099.9999999734,18.0182480152897,1.00000000209005,0.638826369627514
21199.999999972,18.0308815314121,1.00000000203706,0.642317959412867
21299.9999999705,18.0437500742287,1.00000000198564,0.634751250411433
21399.9999999691,18.0577983927892,1.00000000202024,0.640742568152991
21499.9999999676,18.0719626199823,1.00000000205216,0.63697281842397
21599.9999999662,18.0846094968886,1.0000000019996,0.64070638266403
21699.9999999647,18.0982115708878,1.00000000200628,0.642950419638674
21799.9999999633,18.1113123630363,1.00000000196918,0.643728466391472
21899.9999999618,18.1252170605463,1.00000000199854,0.648443856579401
21999.9999999603,18.1362699274476,1.00000000209685,0.643704525205767
22099.9999999589,18.1433703103685,1.00000000217293,0.63729250678178
22199.9999999574,18.1481327894001,1.00000000211813,0.646483518882419
22299.999999956,18.1510810046952,1.00000000205575,0.644367480899664
22399.9999999545,18.1533899480886,1.00000000204247,0.646144174864736
22499.9999999531,18.1576887384405,1.00000000202795,0.647337837490179
22599.9999999516,18.1623183028715,1.00000000205517,0.655705100809157
22699.9999999502,18.1677379148164,1.00000000191575,0.659161508882131
22799.9999999487,18.1745049079596,1.0000000020409,0.664328252053576
22899.9999999473,18.1799729775862,1.00000000209658,0.668138131850049
22999.9999999458,18.1821026390487,1.0000000021307,0.664917601004798
23099.9999999443,18.181654764149,1.00000000216561,0.656169459012054
23199.9999999429,18.1775188200313,1.00000000217167,0.662988989661114
23299.9999999414,18.1727533684903,1.00000000206872,0.665765478454682
23399.99999994,18.1641582408113,1.00000000222358,0.670604829603314
23499.9999999385,18.1530209842523,1.00000000193981,0.658166967992466
23599.9999999371,18.1426201498494,1.00000000213307,0.666034431695401
23699.9999999356,18.1313004646664,1.00000000205311,0.663485970792362
23799.9999999342,18.1196570111981,1.00000000214372,0.665663781565709
23899.9999999327,18.1062432351948,1.00000000222808,0.664719078247544
23999.9999999312,18.0902019750525,1.00000000212832,0.668761239330525
24099.9999999298,18.0705173649751,1.00000000212198,0.681139009474534
24199.9999999283,18.0496191580364,1.00000000209738,0.679213806432225
24299.9999999269,18.0280960061668,1.0000000021664,0.683671624237299
24399.9999999254,18.0041510890115,1.0000000021875,0.677510980013592
24499.999999924,17.978542831216,1.00000000207149,0.679509941540815
24599.9999999225,17.9522162510614,1.00000000219792,0.675539237079819
24699.9999999211,17.9270362050828,1.00000000212377,0.667991624206785
24799.9999999196,17.9042119963573,1.00000000208492,0.666254684579359
24899.9999999181,17.8830925122317,1.00000000210826,0.662216076695644
24999.9999999167,17.8654858698103,1.00000000211592,0.650336835500124
25099.9999999152,17.8525947706936,1.00000000208944,0.64542007820253
25199.9999999138,17.8447448886829,1.00000000213155,0.64377687529247
25299.9999999123,17.8428870082071,1.00000000204136,0.643425285689007
25399.9999999109,17.8483645102357,1.00000000205317,0.643557839789113
25499.9999999094,17.8626081826289,1.00000000204112,0.644012398591887
25599.999999908,17.8857498327562,1.00000000209847,0.637780881126136
25699.9999999065,17.915574551951,1.00000000218694,0.632113665544184
25799.9999999051,17.9518578195362,1.00000000210002,0.621027489205082
25899.9999999036,17.9912786002954,1.00000000234855,0.631361433559106
25999.9999999021,18.0298308590217,1.00000000223045,0.630969209562526
26099.9999999007,18.0717313351336,1.00000000229981,0.627658429338318
26199.9999998992,18.1136018319242,1.00000000228976,0.634877034852638
26299.9999998978,18.1575736507477,1.00000000216134,0.627488841682359
26399.9999998963,18.2057339141662,1.00000000216313,0.631698634425839
26499.9999998949,18.2536867062362,1.00000000217266,0.629878640745374
26599.9999998934,18.3052317660662,1.00000000221267,0.624012298087999
26699.999999892,18.3592493362846,1.00000000222721,0.627627927340057
26799.9999998905,18.4143244274461,1.00000000229998,0.626810397300796
26899.999999889,18.4695817471744,1.00000000225373,0.633766461121946
26999.9999998876,18.5230136085698,1.00000000224871,0.634773672192037
27099.9999998861,18.5758131274382,1.00000000224563,0.642557620134294
27199.9999998847,18.6277108102421,1.00000000239663,0.641957767242863
27299.9999998832,18.6797366128861,1.00000000208826,0.637944738181638
27399.9999998818,18.7328604156974,1.00000000233056,0.647990316781035
27499.9999998803,18.7850070868579,1.00000000223094,0.646480474999876
27599.9999998789,18.8375834015537,1.00000000224411,0.648318098904892
27699.9999998774,18.8859958127941,1.00000000251036,0.656839679138309
27799.9999998759,18.9303616600924,1.00000000249108,0.650331922473962
27899.9999998745,18.9721499207247,1.00000000245706,0.665919422166487
27999.999999873,19.0110239682774,1.00000000237926,0.665347814799234
28099.9999998716,19.0502670927929,1.00000000220243,0.663365585967759
28199.9999998701,19.0899220061002,1.00000000226721,0.666149775794728
28299.9999998687,19.1289907585964,1.00000000239849,0.667225385458096
28399.9999998672,19.1650204519811,1.00000000228338,0.663642121472768
28499.9999998658,19.1989834121381,1.00000000245333,0.672332128177569
28599.9999998643,19.2285546577111,1.00000000234848,0.675444232394895
28699.9999998629,19.2592044100499,1.00000000233434,0.670733185753017
28799.9999998614,19.2924344971689,1.00000000232815,0.673207714310301
28899.9999998599,19.3248426274049,1.00000000228204,0.672493670397656
28999.9999998585,19.3547807139115,1.0000000024021,0.672354089877511
