Time,AGPnorm,Energy,Entropy
0,0,1,-5.60599638167632e-19
99.9999999999986,0.0110751649158783,0.999999999996116,0.029140068550129
199.999999999993,0.0280691114166711,0.999999999999684,0.0843724248023341
300,0.0539640218833126,1.00000000000566,0.174032580344159
400.000000000022,0.084927739620679,1.00000000055207,0.315206854726493
500.000000000045,0.221468794914435,1.00000000214055,0.459545476564639
600.000000000068,0.928737300114988,1.00000000330471,0.541275238249615
700.000000000091,2.43515085508389,1.00000000397473,0.580381456651318
800.000000000113,4.56186723260536,1.000000003863,0.594024114239707
900.000000000136,6.96466270952011,1.00000000399679,0.592197624353052
1000.00000000016,9.2245768605566,1.00000000345041,0.584946697432588
1100.0000000001,11.1234513365516,1.00000000317541,0.576478234922252
1200,12.5139762289453,1.00000000259141,0.564007872874003
1299.99999999991,13.3820069101929,1.00000000250454,0.563105405001079
1399.99999999982,13.7876358770731,1.00000000261143,0.571942673583131
1499.99999999973,13.8051989003971,1.00000000233087,0.556510185751782
1599.99999999964,13.6129420406971,1.00000000175963,0.490718912524615
1699.99999999955,13.2826574883504,1.00000000289382,0.569528552158895
1799.99999999946,12.8254377870811,1.00000000190201,0.473813069548988
1899.99999999937,12.3844548912552,1.00000000281457,0.541327566268018
1999.99999999928,11.8924259123686,1.00000000178252,0.437713878517982
2099.99999999919,11.4166138342212,1.00000000325556,0.565422585246998
2199.99999999909,10.9775320912502,1.00000000164329,0.419804465474542
2299.999999999,10.5301364870843,1.00000000266105,0.500059056458903
2399.99999999891,10.1101256238048,1.00000000302404,0.557696496096445
2499.99999999882,9.73792615666913,1.00000000147795,0.428633732723954
2599.99999999873,9.39372417711185,1.00000000244787,0.490202878603897
2699.99999999864,9.05990827538979,1.00000000241754,0.520640730955953
2799.99999999855,8.73995916334797,1.00000000331107,0.556254957663865
2899.99999999846,8.46084227902587,1.00000000155021,0.455189928851674
2999.99999999837,8.24891644916129,1.00000000212026,0.451506840738828
3099.99999999828,8.02639768816572,1.00000000264174,0.536390495509263
3199.99999999819,7.8163235348015,1.00000000233698,0.533742498809702
3299.99999999809,7.60455790820011,1.0000000029573,0.544968737196739
3399.999999998,7.39249229552636,1.00000000265667,0.557742382966111
3499.99999999791,7.23697313167089,1.00000000159214,0.449165835760673
3599.99999999782,7.15121959724094,1.00000000213107,0.475277707238406
3699.99999999773,7.05647985368908,1.00000000272472,0.538156474134432
3799.99999999764,6.96104605621576,1.00000000240202,0.550213399747846
3899.99999999755,6.85623632336879,1.00000000261284,0.563762359186444
3999.99999999746,6.73443996652872,1.00000000229094,0.586252506755843
4099.99999999738,6.61405540108007,1.00000000296083,0.570442330641874
4199.99999999775,6.48333469824317,1.00000000318021,0.576381702383025
4299.99999999811,6.36211582767277,1.00000000203846,0.545279362105661
4399.99999999848,6.31544160157681,1.00000000162934,0.467460958763113
4499.99999999884,6.33652389133447,1.00000000237467,0.495103535953119
4599.9999999992,6.34609835088114,1.00000000259536,0.529283677882313
4699.99999999957,6.34559064763047,1.00000000261421,0.568674146009948
4799.99999999993,6.32415991228899,1.0000000028131,0.587679326320504
4900.00000000029,6.29203872956452,1.00000000238999,0.591116562701367
5000.00000000066,6.26357074046644,1.00000000270231,0.597673385316272
5100.00000000102,6.21838571440384,1.00000000255812,0.595087986353561
5200.00000000139,6.15554825327879,1.00000000259646,0.603407217360929
5300.00000000175,6.08607670924741,1.00000000246322,0.612405416347006
5400.00000000211,6.01549374717008,1.00000000259275,0.613975601726583
5500.00000000248,5.93794490948351,1.00000000309388,0.619751905358552
5600.00000000284,5.85681975307476,1.00000000297355,0.598720558495205
5700.00000000321,5.77402211035311,1.00000000249723,0.578618920796963
5800.00000000357,5.73185713634834,1.00000000163733,0.51827401824684
5900.00000000393,5.77272947770883,1.00000000182485,0.492677720019843
6000.0000000043,5.86492759257273,1.00000000225977,0.516250577604977
6100.00000000466,5.94867339265559,1.00000000268376,0.551010466832372
6200.00000000502,6.02059269063626,1.00000000260074,0.568054523728254
6300.00000000539,6.07976026685873,1.00000000276014,0.585255187617227
6400.00000000575,6.11999749587682,1.00000000286172,0.614593757857474
6500.00000000612,6.14038130680781,1.00000000274369,0.6190484024347
6600.00000000648,6.15514312400827,1.00000000252255,0.628686235766706
6700.00000000684,6.15429742914611,1.00000000278984,0.633760451541497
6800.00000000721,6.1385756376004,1.00000000288192,0.639659834110615
6900.00000000757,6.12666980485446,1.0000000026573,0.624496868500846
7000.00000000793,6.12300662167612,1.00000000259593,0.621079527144692
7100.0000000083,6.1125177791181,1.00000000310344,0.607480906717191
7200.00000000866,6.09007560912648,1.00000000285368,0.623667720965402
7300.00000000903,6.06758968347897,1.00000000255326,0.632340158103507
7400.00000000939,6.04460607355246,1.00000000270781,0.638489482127065
7500.00000000975,6.01981776266272,1.00000000264846,0.640503498533292
7600.00000001012,5.99260140338061,1.00000000264695,0.621903813514503
7700.00000001048,5.96374329665532,1.00000000266082,0.623347576006007
7800.00000001084,5.92216298818877,1.00000000299618,0.641016298117551
7900.00000001121,5.87274371391439,1.00000000274783,0.650681716944333
8000.00000001157,5.81910172955795,1.0000000026321,0.647180448500574
8100.00000001194,5.76632248011942,1.00000000271725,0.655508289986454
8200.0000000123,5.71515062736274,1.00000000295162,0.65762122737904
8300.00000001266,5.66625113418778,1.00000000311833,0.666962382072517
8400.00000001303,5.61746979123673,1.00000000307099,0.651368526828878
8500.00000001339,5.56415564816099,1.00000000318523,0.622682218993246
8600.00000001376,5.51285777085038,1.00000000264116,0.587044575550259
8700.00000001412,5.4943567792532,1.00000000186349,0.539925470327418
8800.00000001448,5.54091561585552,1.00000000208579,0.523753761483736
8900.00000001485,5.65630363021349,1.00000000237492,0.527283719769781
9000.00000001521,5.80616420319058,1.00000000258033,0.534045533267598
9100.00000001557,5.95560598705342,1.00000000301928,0.556758050003263
9200.00000001594,6.09822460655557,1.00000000290119,0.560199425795462
9300.0000000163,6.22660772069769,1.00000000279037,0.576235911571706
9400.00000001667,6.34422455812018,1.00000000299419,0.593122722959975
9500.00000001703,6.44028048078462,1.00000000312659,0.596346716690385
9600.00000001739,6.5250785746872,1.00000000290575,0.620945246868177
9700.00000001776,6.59595506170149,1.00000000284782,0.631948143538065
9800.00000001812,6.65731941947467,1.00000000302171,0.624966941907157
9900.00000001848,6.71182328125084,1.00000000308208,0.633949988082289
10000.0000000188,6.75684281436165,1.00000000313291,0.655835779968227
10100.0000000192,6.78835319682283,1.00000000319469,0.669182406188052
10200.0000000196,6.81420868882777,1.00000000294444,0.663059891823531
10300.0000000199,6.83560394485437,1.00000000276671,0.656932121830227
10400.0000000203,6.85011841951538,1.00000000321949,0.672858249429435
10500.0000000207,6.8596596329311,1.0000000027849,0.668609862048207
10600.000000021,6.86823287124427,1.00000000291705,0.667470402896971
10700.0000000214,6.86460530120158,1.00000000297537,0.67258401332161
10800.0000000218,6.85901545798549,1.00000000316553,0.665326731017269
10900.0000000221,6.84672894668738,1.00000000308606,0.654982588610427
11000.0000000225,6.83241504865409,1.00000000305742,0.67217741258603
11100.0000000229,6.81157182200038,1.00000000286129,0.66920797229981
11200.0000000232,6.78567600023428,1.0000000031597,0.679532692213004
11300.0000000236,6.7619962563469,1.00000000278384,0.663400810211188
11400.0000000239,6.74647362149838,1.00000000267066,0.650537387601677
11500.0000000243,6.74271511253632,1.00000000299075,0.621384609644463
11600.0000000247,6.75284248973851,1.00000000277329,0.617800332262609
11700.000000025,6.77164490510074,1.00000000310548,0.623501457810201
11800.0000000254,6.78217484123045,1.00000000266971,0.623193066770799
11900.0000000258,6.78989559077116,1.000000003333,0.639307504071978
12000.0000000261,6.79082967228456,1.00000000311671,0.648093993866803
12100.0000000265,6.79338583549174,1.00000000290004,0.654988175248388
12200.0000000269,6.7892906391276,1.00000000341238,0.641665502798501
12300.0000000272,6.78636516947842,1.00000000301881,0.655438198347223
12400.0000000276,6.78595195913579,1.00000000310131,0.660366172114163
12500.0000000279,6.78383228599027,1.00000000333098,0.666398168111068
12600.0000000283,6.77643152247871,1.00000000336925,0.661091434286532
12700.0000000287,6.77017475674944,1.00000000304679,0.658657436665275
12800.000000029,6.76633311013977,1.00000000326556,0.660124463191364
12900.0000000294,6.76795395532774,1.00000000342705,0.650228590826029
13000.0000000298,6.77836213661112,1.00000000306644,0.648758144177581
13100.0000000301,6.78343188827049,1.00000000316128,0.667590411921263
13200.0000000305,6.78874311937096,1.00000000311777,0.663511254864979
13300.0000000309,6.79606976692387,1.00000000355662,0.675812015334877
13400.0000000312,6.80301757161038,1.00000000307859,0.671884077381582
13500.0000000316,6.80875339092249,1.00000000318645,0.658654131567045
13600.0000000319,6.81393738111231,1.0000000037809,0.682442626854787
13700.0000000323,6.81067670818047,1.00000000330166,0.683977368994729
13800.0000000327,6.81028041029286,1.00000000317159,0.675016429144562
13900.000000033,6.80516996993606,1.00000000327256,0.683792064966362
14000.0000000334,6.80261735754606,1.00000000332855,0.690088476218386
14100.0000000338,6.79847287683278,1.00000000318865,0.669666067351944
14200.0000000341,6.79669354526909,1.00000000325006,0.669444912805709
14300.0000000345,6.78654393110465,1.00000000341611,0.669547063589298
14400.0000000349,6.77906838340286,1.00000000322603,0.655218375681395
14500.0000000352,6.77290758412517,1.00000000341702,0.667427222729322
14600.0000000356,6.76597546861111,1.0000000034227,0.664354782714873
14700.0000000359,6.76246163964781,1.00000000348281,0.679670649419584
14800.0000000363,6.75355710921474,1.00000000364282,0.680072904942594
14900.0000000367,6.74018102794302,1.00000000352192,0.673308372710185
15000.000000037,6.72589939768941,1.00000000323873,0.673676394279673
15100.0000000374,6.71036931611215,1.0000000033865,0.672156755486135
15200.0000000378,6.69663857943754,1.00000000348011,0.679897807285634
15300.0000000381,6.67766069112356,1.00000000362085,0.676183210690871
15400.0000000385,6.65433627767543,1.00000000338671,0.678492466087681
15500.0000000389,6.6322742938163,1.00000000329469,0.677173677327296
15600.0000000392,6.60571963110336,1.00000000373188,0.685881733201242
15700.0000000396,6.57340742056951,1.00000000372169,0.68058764460379
15800.0000000399,6.53911599484243,1.00000000344577,0.690568733657819
15900.0000000403,6.50349727684796,1.0000000034363,0.691773302438428
16000.0000000407,6.46741886328671,1.00000000344705,0.697281474881127
16100.000000041,6.43193206683759,1.00000000350037,0.696646652446517
16200.0000000414,6.39695779198872,1.00000000370609,0.689284702277704
16300.0000000418,6.3649346205123,1.00000000359475,0.684146950959223
16400.0000000418,6.33544100359499,1.00000000336566,0.678349259475748
16500.0000000404,6.31177724823916,1.00000000364164,0.688500226220827
16600.0000000389,6.28992809601088,1.00000000401455,0.695068410856122
16700.0000000375,6.2721399047361,1.00000000395541,0.698734189759064
16800.000000036,6.25392347012392,1.0000000041759,0.69924689004611
16900.0000000346,6.23425118529661,1.00000000395545,0.683264393737912
17000.0000000331,6.21014797491912,1.00000000390726,0.663441587155224
17100.0000000317,6.18314983579206,1.0000000037494,0.637897452024766
17200.0000000302,6.15649205690397,1.00000000361846,0.62618790202559
17300.0000000287,6.14855364165033,1.00000000318656,0.617791802377456
17400.0000000273,6.1706660685321,1.00000000320243,0.598040502187205
17500.0000000258,6.24514687651277,1.00000000324116,0.586287271653678
17600.0000000244,6.37685862209101,1.00000000310453,0.581140766574195
17700.0000000229,6.5840610538158,1.00000000321686,0.574901052878753
17800.0000000215,6.83888385326807,1.00000000322952,0.570596230981499
17900.00000002,7.15719754707873,1.00000000340552,0.572773676205733
18000.0000000186,7.48549134662615,1.00000000368326,0.569705925862454
18100.0000000171,7.84237059314414,1.00000000412366,0.57764875710778
18200.0000000156,8.17431226968459,1.00000000393945,0.592082276889388
18300.0000000142,8.51375030782813,1.00000000426355,0.589080280888511
18400.0000000127,8.84096767813515,1.0000000040244,0.597844777784772
18500.0000000113,9.16004864941853,1.00000000405129,0.589106173640546
18600.0000000098,9.48244339112872,1.00000000406011,0.597873633872321
18700.0000000084,9.79679885504707,1.00000000350815,0.595356864144089
18800.0000000069,10.118989883569,1.00000000399574,0.610673706384786
18900.0000000055,10.4243634996079,1.00000000404971,0.612003383547486
19000.000000004,10.7230803827704,1.00000000395042,0.632480758480304
19100.0000000026,11.0017475631523,1.00000000404438,0.653496266338247
19200.0000000011,11.2813053486872,1.0000000040497,0.65525545061537
19299.9999999996,11.5517338884957,1.00000000414361,0.657310187100737
19399.9999999982,11.8118722152403,1.00000000395341,0.651981200494435
19499.9999999967,12.090448626392,1.00000000399156,0.655430374367378
19599.9999999953,12.3431600495356,1.00000000419096,0.649392191462865
19699.9999999938,12.5997281145081,1.00000000404182,0.662177310736833
19799.9999999924,12.8463993013094,1.00000000393365,0.654394150404659
19899.9999999909,13.0903550392212,1.00000000435659,0.65720035403461
19999.9999999895,13.3345012421076,1.0000000039831,0.6826380424485
20099.999999988,13.561742640612,1.00000000461385,0.679578198721418
20199.9999999865,13.7874856321059,1.00000000399893,0.688335046538934
20299.9999999851,14.0007993053084,1.00000000390043,0.684648808549165
20399.9999999836,14.2134443881924,1.00000000461362,0.692696851924453
20499.9999999822,14.4062990851689,1.00000000440474,0.704540002618472
20599.9999999807,14.5966250599471,1.00000000403784,0.691817592325738
20699.9999999793,14.7823124531301,1.0000000041719,0.702590470341854
20799.9999999778,14.9557882722601,1.00000000407494,0.691389811472636
20899.9999999764,15.1229074088263,1.00000000413638,0.694438084749588
20999.9999999749,15.2839011321631,1.00000000384814,0.706573609254889
21099.9999999734,15.4597409980959,1.00000000391833,0.694082209444149
21199.999999972,15.6440972056765,1.00000000407159,0.696870567101202
21299.9999999705,15.8267248711251,1.00000000459586,0.692701693930207
21399.9999999691,15.9937006889159,1.00000000478036,0.716140617572524
21499.9999999676,16.151425247764,1.00000000427552,0.718253885004197
21599.9999999662,16.3130495314993,1.00000000415221,0.708780618860856
21699.9999999647,16.4821215598332,1.0000000040013,0.698387467979883
21799.9999999633,16.6652446124329,1.0000000042874,0.710613187406132
21899.9999999618,16.8333210789023,1.00000000472591,0.70694599679632
21999.9999999603,16.9901304551941,1.00000000444504,0.700339885116539
22099.9999999589,17.1421696717312,1.00000000467221,0.720958763706784
22199.9999999574,17.3011902767389,1.00000000456338,0.686633362068284
22299.999999956,17.476360731637,1.00000000440237,0.690860167074155
22399.9999999545,17.6476980569883,1.00000000421743,0.711194380815964
22499.9999999531,17.8095804302442,1.00000000477084,0.699091345287782
22599.9999999516,17.9652605199455,1.00000000414811,0.696372919830928
22699.9999999502,18.1274007057311,1.00000000416155,0.686980655224071
22799.9999999487,18.3055362345676,1.00000000448609,0.693403936568888
22899.9999999473,18.4823074970231,1.00000000442788,0.712325780952828
22999.9999999458,18.6511283190983,1.00000000456325,0.693956285335813
23099.9999999443,18.8203534553063,1.00000000478298,0.696808289373887
23199.9999999429,18.992163817237,1.00000000466369,0.702621619989454
23299.9999999414,19.1660420248247,1.00000000471978,0.702385907226446
23399.99999994,19.3478714992882,1.00000000426118,0.692731888646723
23499.9999999385,19.5412882255428,1.00000000481309,0.683857127532252
23599.9999999371,19.7390593393067,1.00000000456596,0.681491782777621
23699.9999999356,19.9249871370296,1.00000000466068,0.695936090999662
23799.9999999342,20.1110844197125,1.00000000463511,0.68091611770791
23899.9999999327,20.3156346353586,1.00000000421844,0.681143182669108
23999.9999999312,20.5248213576694,1.0000000049871,0.708399800601232
24099.9999999298,20.7235453152596,1.00000000455391,0.706330834558312
24199.9999999283,20.9152721036089,1.00000000483911,0.709613744715018
24299.9999999269,21.1109351465031,1.00000000451691,0.703249475768405
24399.9999999254,21.3271292545086,1.00000000430735,0.689534900432901
24499.999999924,21.540637549377,1.00000000516166,0.689127872286257
24599.9999999225,21.7293185838211,1.00000000493628,0.700713327340358
24699.9999999211,21.9185444267809,1.00000000468523,0.697413827423315
24799.9999999196,22.1228716831892,1.00000000431236,0.701797537860837
24899.9999999181,22.3392913675848,1.00000000481575,0.706585377473216
24999.9999999167,22.5568091718905,1.00000000477622,0.714612427320802
25099.9999999152,22.7653264882319,1.00000000513024,0.709524082505204
25199.9999999138,22.9657302460594,1.00000000496893,0.702096275048436
25299.9999999123,23.1658847175053,1.0000000047232,0.701548076126939
25399.9999999109,23.3735384243912,1.00000000477508,0.710233353752673
25499.9999999094,23.5931967317999,1.00000000459319,0.701350111952398
25599.999999908,23.8317215541196,1.00000000454238,0.716145817901796
25699.9999999065,24.0804240183442,1.00000000484128,0.698407550764673
25799.9999999051,24.3403458798253,1.00000000459184,0.693910863013171
25899.9999999036,24.6177514007951,1.00000000407765,0.704756170954048
25999.9999999021,24.9011056371928,1.00000000461653,0.708667332864082
26099.9999999007,25.1872173131737,1.00000000506342,0.704758851481549
26199.9999998992,25.4758585870824,1.00000000506933,0.705403735120032
26299.9999998978,25.7422726070317,1.00000000496604,0.701548072663878
26399.9999998963,26.0171994048803,1.00000000508632,0.701588585283983
26499.9999998949,26.3014911716605,1.00000000492717,0.705243894985676
26599.9999998934,26.5998924651547,1.00000000477635,0.707936213353715
26699.999999892,26.9082867515709,1.00000000516886,0.720073390194952
26799.9999998905,27.207277068713,1.0000000050469,0.715460347459758
26899.999999889,27.5063840463603,1.00000000472391,0.709920663982091
26999.9999998876,27.8119726127964,1.0000000050195,0.716528787395332
27099.9999998861,28.11877830381,1.00000000507863,0.711718190422637
27199.9999998847,28.429381462232,1.00000000489348,0.714904155897653
27299.9999998832,28.7397185359979,1.00000000528266,0.718823386997044
27399.9999998818,29.0519800989736,1.00000000468566,0.710932145145289
27499.9999998803,29.3590858000152,1.000000005274,0.714146915345404
27599.9999998789,29.6594008988144,1.00000000483507,0.678840757204433
27699.9999998774,29.9715145547521,1.0000000048022,0.690608054382976
27799.9999998759,30.2770943787708,1.00000000497993,0.718685571536002
27899.9999998745,30.5741114074503,1.00000000538831,0.702073483132158
27999.999999873,30.8563268152068,1.00000000510883,0.714297575607795
28099.9999998716,31.1423774139823,1.00000000482706,0.691941051457776
28199.9999998701,31.4417068204558,1.00000000466747,0.705916164655737
28299.9999998687,31.737047697113,1.00000000456906,0.700272387792757
28399.9999998672,32.0345832929438,1.00000000507443,0.70111813267871
28499.9999998658,32.3424675384242,1.00000000466548,0.701018533960319
28599.9999998643,32.6484410342084,1.00000000555169,0.719338020162199
28699.9999998629,32.9400500030679,1.00000000523905,0.715568315423841
28799.9999998614,33.220456932415,1.00000000528371,0.698120998490925
28899.9999998599,33.4874535742171,1.00000000506628,0.708648738690425
28999.9999998585,33.7671204122451,1.00000000463652,0.673972966255131
