Time,AGPnorm,Energy,Entropy
0,0,1,-7.51432331323454e-17
99.9999999999986,0.000634992243482128,0.99999999999952,0.00229034632961862
199.999999999993,0.00427479960436995,0.999999999998332,0.0067701570582351
300,0.00879258301185371,0.999999999998548,0.0125484222916985
400.000000000022,0.0134875350784757,0.999999999999819,0.0197810540361353
500.000000000045,0.0189632719223033,0.999999999999703,0.0286431924107718
600.000000000068,0.026729385856805,0.99999999999871,0.038750481250446
700.000000000091,0.0347522649224427,0.999999999998287,0.0497542860843873
800.000000000113,0.0434226019219581,0.99999999999954,0.0617932357042497
900.000000000136,0.052554120374601,0.999999999999853,0.0752892469756481
1000.00000000016,0.0627166589278544,0.999999999998997,0.0901007040349973
1100.0000000001,0.0734261423989999,0.999999999998428,0.106388120998088
1200,0.0837288592376209,0.999999999999194,0.124178546589615
1299.99999999991,0.0946077170611131,1.00000000000055,0.144392710583781
1399.99999999982,0.104924316257325,1.0000000000014,0.167477803255451
1499.99999999973,0.116152057232198,1.00000000000705,0.194207685550825
1599.99999999964,0.128417434382706,1.00000000002623,0.22477227656172
1699.99999999955,0.144556552978943,1.00000000006982,0.258573447647696
1799.99999999946,0.163075420747689,1.00000000013653,0.293857416097662
1899.99999999937,0.202754921253254,1.00000000021597,0.328105731880381
1999.99999999928,0.307714303989814,1.00000000031769,0.35984564371307
2099.99999999919,0.51576282717869,1.00000000040691,0.388344406412972
2199.99999999909,0.86138841089387,1.00000000051024,0.414006649705575
2299.999999999,1.41596140160617,1.00000000060044,0.436683801710404
2399.99999999891,2.26909935557346,1.00000000068342,0.456436746651918
2499.99999999882,3.47216504270052,1.00000000072057,0.473723661810961
2599.99999999873,5.04672484276762,1.00000000077407,0.488993376362846
2699.99999999864,7.0391746527165,1.00000000085266,0.502041026925395
2799.99999999855,9.49129137873834,1.00000000085309,0.513253662238341
2899.99999999846,12.3983039348217,1.00000000085114,0.522503897377019
2999.99999999837,15.7274554583862,1.00000000090785,0.530555456252191
3099.99999999828,19.4665624290558,1.00000000096909,0.537216644993523
3199.99999999819,23.6029031361581,1.00000000094583,0.542792845337447
3299.99999999809,28.0830155340642,1.00000000092321,0.547273448811631
3399.999999998,32.8383063681092,1.00000000091661,0.550741734697677
3499.99999999791,37.8244479011047,1.00000000091812,0.553665914717464
3599.99999999782,43.007083501277,1.00000000089527,0.556113418036643
3699.99999999773,48.3251981983046,1.00000000092943,0.556960152255778
3799.99999999764,53.7081959039927,1.00000000084466,0.557919380117698
3899.99999999755,59.1046484806891,1.00000000087431,0.558551490027554
3999.99999999746,64.4805320974093,1.00000000089188,0.5586814862527
4099.99999999738,69.7956930906226,1.00000000075698,0.557356167111681
4199.99999999775,74.9951968731936,1.00000000079858,0.557272682719017
4299.99999999811,80.0351375024161,1.00000000081571,0.556452719643317
4399.99999999848,84.89910383288,1.00000000073996,0.554747643641649
4499.99999999884,89.566833684518,1.00000000077882,0.553569905095007
4599.9999999992,94.0079853500551,1.00000000074751,0.551546298717237
4699.99999999957,98.1939742162168,1.00000000078192,0.550714740069692
4799.99999999993,102.113194489629,1.00000000071394,0.549300753063829
4900.00000000029,105.766873346945,1.00000000069756,0.547181503139826
5000.00000000066,109.143947374125,1.00000000065308,0.545489588661151
5100.00000000102,112.235874247361,1.00000000063113,0.544867789729006
5200.00000000139,115.035896736316,1.00000000062358,0.541423446793798
5300.00000000175,117.553580950551,1.00000000057621,0.540579315815691
5400.00000000211,119.797724502819,1.00000000059837,0.542118237142367
5500.00000000248,121.770205599616,1.0000000005951,0.536971699042757
5600.00000000284,123.462675468316,1.00000000059152,0.532942618418823
5700.00000000321,124.888920485677,1.00000000055578,0.54065890684746
5800.00000000357,126.07953918211,1.00000000056536,0.541220048816451
5900.00000000393,127.029974321939,1.00000000051562,0.525135363293781
6000.0000000043,127.726564767664,1.00000000049928,0.524721885780859
6100.00000000466,128.208315163382,1.00000000053334,0.545514370664841
6200.00000000502,128.528441407796,1.00000000056079,0.543690162555732
6300.00000000539,128.661563970398,1.00000000045251,0.513572160279251
6400.00000000575,128.569698278218,1.00000000041489,0.509261268445572
6500.00000000612,128.313951001187,1.00000000053497,0.546053234837898
6600.00000000648,127.982826208745,1.00000000063567,0.556811038381153
6700.00000000684,127.562762459181,1.00000000049058,0.520030400210828
6800.00000000721,126.973451169861,1.00000000034368,0.480343396739806
6900.00000000757,126.221459433066,1.00000000043828,0.51225263319477
7000.00000000793,125.416692276736,1.00000000062508,0.56094628921656
7100.0000000083,124.628000816054,1.00000000064934,0.561456714558254
7200.00000000866,123.808467028058,1.00000000046662,0.507427583834276
7300.00000000903,122.866056800585,1.00000000027151,0.450149028334035
7400.00000000939,121.798886825183,1.00000000040841,0.482599216442042
7500.00000000975,120.703291252658,1.00000000067126,0.550328876604986
7600.00000001012,119.659487569213,1.00000000073268,0.569999226925197
7700.00000001048,118.66205860657,1.00000000058592,0.540537647717982
7800.00000001084,117.633457268999,1.0000000003758,0.459897178047126
7900.00000001121,116.50994183252,1.00000000023856,0.412285575570508
8000.00000001157,115.314622563994,1.00000000041465,0.467289338955218
8100.00000001194,114.123837569407,1.00000000066825,0.539643501363578
8200.0000000123,112.992190919363,1.00000000078682,0.564729970725062
8300.00000001266,111.923637382106,1.000000000737,0.551557028412664
8400.00000001303,110.874001160382,1.0000000005034,0.487944014510483
8500.00000001339,109.78703366792,1.0000000002917,0.405748944090979
8600.00000001376,108.647782222655,1.00000000026056,0.390665929102375
8700.00000001412,107.486463118697,1.00000000044382,0.454688041919631
8800.00000001448,106.342286009455,1.00000000069305,0.523276866779322
8900.00000001485,105.242722149392,1.00000000078307,0.55044645023129
9000.00000001521,104.19545518102,1.00000000072751,0.546920843316266
9100.00000001557,103.183804789966,1.00000000063044,0.516918396702228
9200.00000001594,102.177575585105,1.00000000046671,0.454693238798113
9300.0000000163,101.1564898774,1.00000000030737,0.393699033277472
9400.00000001667,100.122760673718,1.00000000030337,0.389620468358662
9500.00000001703,99.0905810966432,1.00000000045219,0.433903433449204
9600.00000001739,98.0733619419062,1.00000000056191,0.493546720447051
9700.00000001776,97.0788890325182,1.00000000070278,0.525418975541973
9800.00000001812,96.1129190935507,1.00000000070613,0.536624000062977
9900.00000001848,95.1766819668612,1.0000000007223,0.536240790075378
10000.0000000188,94.2625796930975,1.0000000005338,0.509935169888394
10100.0000000192,93.3596979985302,1.00000000045352,0.463706394652819
10200.0000000196,92.4643087429309,1.00000000036733,0.422750141521628
10300.0000000199,91.5818030566144,1.00000000034658,0.403821627436404
10400.0000000203,90.7173960591887,1.00000000040409,0.423277046335244
10500.0000000207,89.8719253424379,1.00000000049326,0.453153273106174
10600.000000021,89.042863273365,1.00000000051328,0.485529536238212
10700.0000000214,88.2274948526256,1.00000000057451,0.507559014434061
10800.0000000218,87.42432997267,1.00000000058382,0.512260947225256
10900.0000000221,86.6327379805943,1.00000000067869,0.523840283789999
11000.0000000225,85.8530031558097,1.00000000068125,0.536024514354603
11100.0000000229,85.0867051239361,1.00000000059522,0.521964330364036
11200.0000000232,84.3363127242081,1.00000000042129,0.475418876235797
11300.0000000236,83.607027019654,1.00000000031872,0.433214957465117
11400.0000000239,82.9044449726136,1.00000000036121,0.417638438161324
11500.0000000243,82.2286912435025,1.00000000046243,0.424987730840013
11600.0000000247,81.5759918544929,1.00000000051521,0.449574550833619
11700.000000025,80.9400757884332,1.00000000051748,0.473320623141153
11800.0000000254,80.3168719049809,1.00000000052651,0.483755906244337
11900.0000000258,79.7060141234426,1.00000000048231,0.491158958414393
12000.0000000261,79.1087628301005,1.00000000044993,0.493831575031262
12100.0000000265,78.5222152046563,1.00000000051113,0.495328458526049
12200.0000000269,77.9376301736297,1.00000000069072,0.511307763251605
12300.0000000272,77.3481720149086,1.00000000073796,0.528750544478002
12400.0000000276,76.7562038190401,1.00000000071448,0.537983239259625
12500.0000000279,76.1698333493692,1.00000000056335,0.521069412493255
12600.0000000283,75.599698058494,1.00000000044643,0.481178127293863
12700.0000000287,75.0580555526812,1.0000000003521,0.442248139447342
12800.000000029,74.5526321511112,1.0000000003388,0.422959089945326
12900.0000000294,74.0809476949914,1.00000000041335,0.424477580808207
13000.0000000298,73.6317712483217,1.00000000053504,0.441623250595384
13100.0000000301,73.1948183267714,1.00000000057904,0.461936389539178
13200.0000000305,72.763752985241,1.00000000056233,0.48346254632313
13300.0000000309,72.3366731401334,1.00000000056053,0.494735152749037
13400.0000000312,71.9160582712648,1.00000000053505,0.497698391638812
13500.0000000316,71.5049377366304,1.0000000004801,0.496979433601445
13600.0000000319,71.1051964333994,1.00000000043402,0.500333431656794
13700.0000000323,70.7153763622538,1.00000000049904,0.503336985582102
13800.0000000327,70.3281485812781,1.0000000005475,0.504393973531451
13900.000000033,69.9351281812725,1.0000000006142,0.510115920038035
14000.0000000334,69.5309819942143,1.00000000066899,0.520258088420506
14100.0000000338,69.1161247939054,1.00000000070473,0.533967553313415
14200.0000000341,68.6971015364766,1.00000000065591,0.537202764622299
14300.0000000345,68.2838826448428,1.00000000050341,0.519973983741591
14400.0000000349,67.8880292907008,1.00000000043069,0.490644558504387
14500.0000000352,67.5202412333181,1.00000000036645,0.460268058592026
14600.0000000356,67.1874568903269,1.00000000037242,0.446673989897841
14700.0000000359,66.8893177429685,1.00000000041419,0.445754956644404
14800.0000000363,66.6193674733617,1.00000000045988,0.445310984232526
14900.0000000367,66.3684458945322,1.00000000049782,0.456203580737161
15000.000000037,66.1254816842725,1.00000000053496,0.476584142423262
15100.0000000374,65.8854878119734,1.00000000052397,0.486342453778723
15200.0000000378,65.6525226009814,1.0000000005046,0.486579776767374
15300.0000000381,65.4280622630367,1.00000000049311,0.491798691112436
15400.0000000385,65.2095035318502,1.00000000052146,0.502191204458921
15500.0000000389,64.9875878417804,1.0000000005369,0.517484058714862
15600.0000000392,64.7570442235349,1.00000000056375,0.530095803979002
15700.0000000396,64.5171837141565,1.00000000055023,0.535530300443575
15800.0000000399,64.273063186825,1.00000000051048,0.541637984424169
15900.0000000403,64.029649715723,1.00000000047487,0.535260212434212
16000.0000000407,63.789853042106,1.00000000047054,0.521781547614943
16100.000000041,63.553612497873,1.00000000047217,0.511296892831814
16200.0000000414,63.3171150406877,1.00000000056261,0.504014949106034
16300.0000000418,63.0745185669447,1.00000000060624,0.514600223567568
16400.0000000418,62.8204121722526,1.00000000065734,0.532913445792618
16500.0000000404,62.5539529506732,1.00000000064656,0.544592112533447
16600.0000000389,62.2810039115467,1.00000000061677,0.544817670523947
16700.0000000375,62.0125416930914,1.00000000052498,0.532026521053496
16800.000000036,61.761980236446,1.00000000043661,0.506944636219881
16900.0000000346,61.5408381704159,1.00000000038492,0.48305229496514
17000.0000000331,61.3541584856522,1.00000000037148,0.463919343466334
17100.0000000317,61.2006870413516,1.00000000040816,0.45737157377082
17200.0000000302,61.0734065810975,1.00000000045735,0.460500476863504
17300.0000000287,60.9636175126316,1.0000000005264,0.467832775394184
17400.0000000273,60.862160988821,1.00000000050915,0.472345339824971
17500.0000000258,60.7651012214349,1.00000000053306,0.47582968734445
17600.0000000244,60.6705860058804,1.00000000057054,0.486437967645131
17700.0000000229,60.5761353715263,1.00000000053794,0.498671616306238
17800.0000000215,60.483350066044,1.00000000049545,0.508475943644882
17900.00000002,60.3975173626031,1.00000000047373,0.512657841700725
18000.0000000186,60.3231708713098,1.00000000045233,0.513306393297086
18100.0000000171,60.2592645499979,1.00000000045715,0.516860910381988
18200.0000000156,60.1997192708778,1.00000000054016,0.524354372506307
18300.0000000142,60.1335480408268,1.00000000060389,0.532432211595734
18400.0000000127,60.0515174423399,1.00000000061522,0.539014767862364
18500.0000000113,59.9481143364216,1.00000000064291,0.543418142475501
18600.0000000098,59.8230086767349,1.00000000060785,0.542887662626905
18700.0000000084,59.6808394189591,1.00000000059591,0.544840116500817
18800.0000000069,59.5291277285225,1.0000000005503,0.553187991656954
18900.0000000055,59.3748764114886,1.00000000049891,0.555312830655198
19000.000000004,59.2230037458936,1.00000000045549,0.547050147322554
19100.0000000026,59.076827880455,1.00000000042016,0.540578376888486
19200.0000000011,58.9366604528104,1.00000000044769,0.540729479593573
19299.9999999996,58.7986830354152,1.00000000047398,0.538077074917759
19399.9999999982,58.6592303958436,1.00000000055196,0.530760660458142
19499.9999999967,58.5152287390406,1.00000000056873,0.53153084823908
19599.9999999953,58.3649772648595,1.00000000061352,0.537977100260191
19699.9999999938,58.206074548574,1.00000000063596,0.54666225516434
19799.9999999924,58.0369167919722,1.00000000061394,0.554177880412544
19899.9999999909,57.8607677642525,1.0000000006141,0.557277968777449
19999.9999999895,57.686558134684,1.0000000005656,0.55357903811154
20099.999999988,57.5246312269951,1.00000000048238,0.53867107128629
20199.9999999865,57.3838728667121,1.0000000003897,0.518097157832649
20299.9999999851,57.2694691862974,1.00000000038358,0.498694159843534
20399.9999999836,57.18416140689,1.00000000040082,0.487292757454962
20499.9999999822,57.1269080012446,1.00000000044247,0.47918905314192
20599.9999999807,57.0930485833025,1.00000000047823,0.482245785529685
20699.9999999793,57.0772922569948,1.0000000004836,0.486772097680055
20799.9999999778,57.0741872466896,1.00000000048575,0.48200220178627
20899.9999999764,57.0771771061263,1.0000000005539,0.480140504604066
20999.9999999749,57.0813794097955,1.00000000058548,0.485178322115258
21099.9999999734,57.0861471290233,1.0000000005398,0.485346480988559
21199.999999972,57.0959099229194,1.00000000047945,0.481768303344424
21299.9999999705,57.1153388496145,1.00000000045664,0.481360429710787
21399.9999999691,57.1438172297611,1.00000000046184,0.495471344342578
21499.9999999676,57.1754897134076,1.0000000005163,0.516047043217594
21599.9999999662,57.2024684133581,1.00000000056435,0.529389365376517
21699.9999999647,57.2189465590838,1.00000000058318,0.536019414323274
21799.9999999633,57.2222364574803,1.00000000056385,0.544514870176541
21899.9999999618,57.2163614848895,1.00000000056662,0.55031285098745
21999.9999999603,57.2067633738685,1.00000000050198,0.549278814946321
22099.9999999589,57.1971649983428,1.00000000052035,0.547055337112989
22199.9999999574,57.1882043645412,1.00000000051685,0.546673278258777
22299.999999956,57.1788389810901,1.0000000005234,0.555607935692987
22399.9999999545,57.1686179807637,1.00000000049063,0.56373206966532
22499.9999999531,57.154753009983,1.00000000050772,0.565357090146159
22599.9999999516,57.1341049388324,1.00000000052746,0.564301275950649
22699.9999999502,57.1028058120378,1.000000000546,0.561719123947116
22799.9999999487,57.0595429653648,1.00000000053964,0.561312983534456
22899.9999999473,57.0033476094463,1.00000000055543,0.555408791556779
22999.9999999458,56.9351708397464,1.00000000054531,0.541688399629354
23099.9999999443,56.8562950278996,1.00000000055657,0.53420209056969
23199.9999999429,56.7683797526277,1.000000000562,0.54270354625823
23299.9999999414,56.6718188154873,1.00000000055179,0.555293762585161
23399.99999994,56.567599717295,1.00000000056534,0.564917722242713
23499.9999999385,56.4579081268186,1.00000000055348,0.564865513244555
23599.9999999371,56.3467452936624,1.00000000052366,0.560552676832178
23699.9999999356,56.2381182072724,1.00000000046717,0.5554294492122
23799.9999999342,56.1345774969543,1.00000000046529,0.557765838982368
23899.9999999327,56.0355964175929,1.00000000046688,0.56123233351571
23999.9999999312,55.9387896430435,1.00000000049946,0.559887961160723
24099.9999999298,55.8422163247237,1.00000000049455,0.556533968353364
24199.9999999283,55.7447357093602,1.00000000051797,0.558335361582688
24299.9999999269,55.6455947064589,1.00000000056919,0.557920051839322
24399.9999999254,55.5439848361307,1.0000000005796,0.555071718080155
24499.999999924,55.4380413504824,1.00000000059316,0.551130525416175
24599.9999999225,55.327045485808,1.00000000062542,0.550172494860379
24699.9999999211,55.2103555514105,1.00000000062836,0.55079999049009
24799.9999999196,55.0874429480879,1.00000000062061,0.551498252258708
24899.9999999181,54.9612099208578,1.00000000057467,0.554485380175007
24999.9999999167,54.8374587854254,1.00000000056437,0.553924094689247
25099.9999999152,54.7226048220641,1.0000000004839,0.548903113126987
25199.9999999138,54.6228854427306,1.0000000004313,0.536236701681401
25299.9999999123,54.5429742861733,1.00000000040851,0.523287686003632
25399.9999999109,54.4860950678496,1.00000000040247,0.517647227376287
25499.9999999094,54.453826093969,1.00000000042008,0.509833309999606
25599.999999908,54.4449301655047,1.00000000044044,0.500784491238128
25699.9999999065,54.4560420223778,1.00000000047173,0.497181329308104
25799.9999999051,54.4833110097668,1.00000000046478,0.494913377089964
25899.9999999036,54.5248601347176,1.0000000004862,0.492551408093891
25999.9999999021,54.5764787523683,1.00000000048593,0.494169664335685
26099.9999999007,54.6326575581004,1.00000000056449,0.497215965377757
26199.9999998992,54.691722410478,1.00000000052098,0.502213628717159
26299.9999998978,54.7543649003156,1.00000000052039,0.501038979729635
26399.9999998963,54.822708630879,1.00000000049174,0.494437917451024
26499.9999998949,54.8975533638626,1.00000000050513,0.492334627876774
26599.9999998934,54.9769846258078,1.00000000050236,0.498914062196606
26699.999999892,55.0578169405056,1.00000000053269,0.509109189325648
26799.9999998905,55.1384178562328,1.00000000052922,0.519883274687902
26899.999999889,55.2177860434068,1.00000000050479,0.528676481441046
26999.9999998876,55.2945202620296,1.00000000055893,0.538145981763572
27099.9999998861,55.3669248967051,1.00000000055292,0.546384375559535
27199.9999998847,55.4342820242298,1.00000000055711,0.552802684602871
27299.9999998832,55.4957639407414,1.00000000052946,0.559109883126502
27399.9999998818,55.5508200160384,1.00000000051599,0.565705079529486
27499.9999998803,55.6001308677079,1.00000000051634,0.571243902842112
27599.9999998789,55.6439427262174,1.0000000005503,0.575694893597695
27699.9999998774,55.6819736641324,1.00000000055534,0.573835510393588
27799.9999998759,55.7134149116658,1.0000000005667,0.571040327206081
27899.9999998745,55.7382704830208,1.00000000057011,0.569808951758487
27999.999999873,55.7565090288468,1.000000000545,0.572014231166867
28099.9999998716,55.7679104041349,1.00000000055169,0.572926177801503
28199.9999998701,55.7731603294003,1.00000000054958,0.576923266990337
28299.9999998687,55.7742519561944,1.00000000050803,0.584146460239691
28399.9999998672,55.7737168340937,1.00000000051355,0.582981048653749
28499.9999998658,55.7735432063879,1.00000000051526,0.576619246330052
28599.9999998643,55.7731760216454,1.00000000050469,0.578147767845121
28699.9999998629,55.7705515016877,1.00000000054095,0.576401254101897
28799.9999998614,55.7640920406735,1.00000000051541,0.575981660690558
28899.9999998599,55.7529597869849,1.00000000055488,0.574964466678882
28999.9999998585,55.7366729706712,1.00000000056109,0.570930096433429
