Time,AGPnorm,Energy,Entropy
0,0,1,-1.52162758931208e-17
99.9999999999986,3.23808447263008e-05,0.999999999997665,0.00127636149540482
199.999999999993,0.00278777372475959,0.999999999998904,0.00206714522320349
300,0.00700208189146269,0.999999999999409,0.00357261590127306
400.000000000022,0.0094876064753384,0.999999999997415,0.00617008348893469
500.000000000045,0.0113400346968869,0.999999999999872,0.00831462768264101
600.000000000068,0.0167599951703439,0.999999999998146,0.0114519015252787
700.000000000091,0.0210755607215879,0.999999999998342,0.0147560822445694
800.000000000113,0.0263191525899319,0.999999999999788,0.0180838981038603
900.000000000136,0.0324472937054095,0.99999999999736,0.0222483334953154
1000.00000000016,0.0378315693651193,0.999999999999543,0.0262141131382652
1100.0000000001,0.0458054422990332,0.999999999998761,0.0305969225708447
1200,0.053709738574711,0.99999999999782,0.0354546350519413
1299.99999999991,0.0609707467701124,0.999999999999884,0.0401862880099267
1399.99999999982,0.0696947071397563,0.999999999997602,0.0455270698215341
1499.99999999973,0.0784326101010345,0.999999999999134,0.0509874376651552
1599.99999999964,0.0879973341589145,0.999999999999313,0.0566258529559297
1699.99999999955,0.0976297732820233,0.999999999997417,0.0628585851343566
1799.99999999946,0.106733903076418,0.999999999999758,0.0690235575166249
1899.99999999937,0.117592538676205,0.999999999998116,0.0756702352979936
1999.99999999928,0.128720404215344,0.999999999998634,0.0827637452603577
2099.99999999919,0.13893306865511,0.999999999999624,0.0899478604557515
2199.99999999909,0.14928868333622,0.999999999997314,0.0978049574690427
2299.999999999,0.159843558207505,0.999999999999598,0.105865412965337
2399.99999999891,0.17174582025759,0.999999999998763,0.1144762494163
2499.99999999882,0.183597813588754,0.999999999998091,0.123918927766955
2599.99999999873,0.193886472625139,0.999999999999713,0.133615530740937
2699.99999999864,0.204649214406002,0.999999999997873,0.1443511016404
2799.99999999855,0.21611128467572,1.00000000000043,0.156019982494755
2899.99999999846,0.228134150762141,1.00000000000216,0.168791373035701
2999.99999999837,0.23874179490574,1.000000000005,0.183231824502978
3099.99999999828,0.249058832420815,1.00000000001734,0.198478112168051
3199.99999999819,0.261180291933858,1.00000000003154,0.215063825828508
3299.99999999809,0.271240282738479,1.00000000005744,0.232468950112535
3399.999999998,0.289108559129491,1.0000000000932,0.249824737113053
3499.99999999791,0.303515298113178,1.00000000012917,0.267463454717285
3599.99999999782,0.326597067167293,1.00000000017798,0.284453011902496
3699.99999999773,0.372910033474723,1.00000000022657,0.301287465750447
3799.99999999764,0.423100428042347,1.00000000027562,0.318126067376708
3899.99999999755,0.518779586977474,1.00000000033057,0.333824959802863
3999.99999999746,0.651279450531273,1.00000000038146,0.349289003290973
4099.99999999738,0.829016383869014,1.00000000043246,0.36422453367164
4199.99999999775,1.10149048524682,1.0000000004953,0.378330280920932
4299.99999999811,1.43806877724918,1.00000000053958,0.392531200270988
4399.99999999848,1.88784201671477,1.00000000058933,0.405387983991086
4499.99999999884,2.47104367658621,1.00000000064281,0.41776777587394
4599.9999999992,3.1670681012187,1.00000000068856,0.430089494666251
4699.99999999957,4.04427273627235,1.00000000070144,0.441249685231542
4799.99999999993,5.08261974823329,1.00000000073902,0.452119407762558
4900.00000000029,6.29375401153886,1.0000000007685,0.462265293417739
5000.00000000066,7.72776501822453,1.0000000008271,0.471548067774627
5100.00000000102,9.34223162307358,1.00000000082464,0.481161781715894
5200.00000000139,11.1829896633801,1.00000000085791,0.489436824568546
5300.00000000175,13.2583988947488,1.00000000088968,0.497190335777405
5400.00000000211,15.5309847800973,1.00000000089334,0.504989230579436
5500.00000000248,18.0568581447672,1.00000000090276,0.511672775519246
5600.00000000284,20.8003851269338,1.00000000094984,0.518329346835453
5700.00000000321,23.7581153112717,1.00000000095912,0.524388555173347
5800.00000000357,26.9649905006787,1.00000000092836,0.529950621796511
5900.00000000393,30.3580145157106,1.00000000097492,0.535589111734568
6000.0000000043,33.9713806551462,1.00000000098516,0.540299186756166
6100.00000000466,37.7962636647053,1.00000000095844,0.544711366448246
6200.00000000502,41.7845577406781,1.00000000097282,0.549011111955152
6300.00000000539,45.9796651007571,1.00000000095843,0.552685303358591
6400.00000000575,50.3252167798945,1.00000000096331,0.556709904357731
6500.00000000612,54.8190506018391,1.00000000095613,0.560034175893433
6600.00000000648,59.4801333087371,1.00000000096526,0.562672153111387
6700.00000000684,64.2391481320883,1.00000000094685,0.565871480781539
6800.00000000721,69.1284590533581,1.00000000093978,0.568330546949165
6900.00000000757,74.1169712050209,1.00000000092528,0.570776118010415
7000.00000000793,79.1715203019069,1.00000000093947,0.572926577028699
7100.0000000083,84.3259330182862,1.00000000094028,0.574371748423638
7200.00000000866,89.5146299307901,1.00000000092973,0.576555726793819
7300.00000000903,94.7486487161994,1.00000000091546,0.578203787563364
7400.00000000939,100.023837447348,1.0000000009454,0.579056574322141
7500.00000000975,105.291365522489,1.00000000092223,0.580601891092979
7600.00000001012,110.585749629174,1.00000000090793,0.581452366568154
7700.00000001048,115.858134826607,1.0000000008795,0.583033961717595
7800.00000001084,121.100841425016,1.00000000086042,0.583604607312798
7900.00000001121,126.329243052053,1.00000000085753,0.583862435063992
8000.00000001157,131.49153914181,1.0000000008508,0.584949213750696
8100.00000001194,136.614914411827,1.00000000086421,0.585333594688312
8200.0000000123,141.671479701999,1.00000000087046,0.5854622036795
8300.00000001266,146.641996244292,1.00000000084676,0.586001467892449
8400.00000001303,151.549917604053,1.00000000081971,0.586076788085063
8500.00000001339,156.352588999346,1.00000000082742,0.586393656257285
8600.00000001376,161.064491390138,1.00000000081988,0.586381940825169
8700.00000001412,165.677800671077,1.00000000078613,0.586332845863937
8800.00000001448,170.164701083094,1.00000000079837,0.586211460387692
8900.00000001485,174.554724161654,1.00000000081013,0.586227234539386
9000.00000001521,178.812682453192,1.00000000077874,0.585476724648827
9100.00000001557,182.946583409558,1.00000000076369,0.586431882724655
9200.00000001594,186.958791981268,1.00000000073267,0.584911334103908
9300.0000000163,190.823731700638,1.00000000073269,0.585912651963952
9400.00000001667,194.568254355492,1.00000000071092,0.584704599768935
9500.00000001703,198.166755966207,1.00000000071638,0.584548443854284
9600.00000001739,201.623196874911,1.00000000070197,0.584715255687348
9700.00000001776,204.944711621481,1.00000000070109,0.583499467209729
9800.00000001812,208.112730408222,1.00000000070313,0.583901947326971
9900.00000001848,211.145302644221,1.00000000067878,0.582859106449824
10000.0000000188,214.031277764704,1.00000000069954,0.583018848970023
10100.0000000192,216.767183205292,1.00000000064293,0.581830044079167
10200.0000000196,219.365620959429,1.0000000006474,0.581962243361636
10300.0000000199,221.813797801366,1.00000000064985,0.581117784642046
10400.0000000203,224.123444916173,1.00000000061892,0.580401464825364
10500.0000000207,226.292007446759,1.00000000064263,0.581189277461083
10600.000000021,228.314979306365,1.00000000061024,0.579641545727333
10700.0000000214,230.204275494394,1.00000000061138,0.579631623078218
10800.0000000218,231.952354551506,1.00000000061277,0.580828690994041
10900.0000000221,233.567981696981,1.00000000058614,0.577918669892007
11000.0000000225,235.049648441911,1.00000000059578,0.578879623476284
11100.0000000229,236.397035592652,1.0000000005818,0.57963288605125
11200.0000000232,237.621760256547,1.00000000056612,0.577398577231456
11300.0000000236,238.715638313461,1.00000000056585,0.577634768731147
11400.0000000239,239.688497860202,1.00000000054916,0.57726147041094
11500.0000000243,240.542280623284,1.00000000055564,0.578035282930597
11600.0000000247,241.275639674163,1.00000000055407,0.578251642828468
11700.000000025,241.901259881761,1.00000000054125,0.573832413463842
11800.0000000254,242.408991457674,1.00000000053568,0.576210813049016
11900.0000000258,242.813796484416,1.0000000005538,0.580129771265474
12000.0000000261,243.123748492246,1.00000000052218,0.57480585779343
12100.0000000265,243.32522207891,1.00000000049821,0.570261307443416
12200.0000000269,243.431445876579,1.00000000053386,0.576437428306232
12300.0000000272,243.45219905628,1.00000000052759,0.579489394561114
12400.0000000276,243.392159474745,1.00000000051952,0.573126428304456
12500.0000000279,243.246250791312,1.00000000047768,0.565600689825264
12600.0000000283,243.010016137107,1.00000000051264,0.572193388982792
12700.0000000287,242.711267046732,1.00000000056628,0.580555849968643
12800.000000029,242.355562886544,1.00000000052788,0.572831553060272
12900.0000000294,241.928878763435,1.00000000046841,0.559614858529377
13000.0000000298,241.425753528145,1.00000000047332,0.562403141335593
13100.0000000301,240.865142084572,1.00000000057107,0.580769398709597
13200.0000000305,240.272710565933,1.00000000058408,0.577133888035873
13300.0000000309,239.635294154254,1.00000000048288,0.559353555368423
13400.0000000312,238.931467562002,1.00000000043577,0.549676926328207
13500.0000000316,238.173900759358,1.0000000005338,0.56837718299496
13600.0000000319,237.388809173253,1.00000000061467,0.582901901002363
13700.0000000323,236.589486425689,1.00000000058766,0.570139978741485
13800.0000000327,235.753088732338,1.00000000046545,0.54887990792727
13900.000000033,234.861357419576,1.00000000042591,0.541672704161461
14000.0000000334,233.933186508087,1.00000000052982,0.568389794680484
14100.0000000338,232.995566951052,1.00000000064056,0.585630290177598
14200.0000000341,232.058148790132,1.00000000056908,0.56546919263163
14300.0000000345,231.095609952882,1.00000000046696,0.543300909345058
14400.0000000349,230.088526892529,1.00000000040516,0.530386027316292
14500.0000000352,229.050767309605,1.00000000055599,0.556367753814815
14600.0000000356,228.009772891262,1.00000000071003,0.587347062764692
14700.0000000359,226.982280712903,1.00000000060728,0.569377140564873
14800.0000000363,225.946648530761,1.00000000050763,0.543981255890479
14900.0000000367,224.882142697907,1.00000000039512,0.523365134182183
15000.000000037,223.786943700579,1.0000000004591,0.531289137084665
15100.0000000374,222.680607329027,1.00000000060109,0.57212351519289
15200.0000000378,221.590398393034,1.00000000073756,0.584155599115391
15300.0000000381,220.513829924426,1.00000000057525,0.556016400911542
15400.0000000385,219.428450901,1.00000000046979,0.52953117925732
15500.0000000389,218.322547769128,1.00000000041807,0.516733405846855
15600.0000000392,217.194474574646,1.00000000048462,0.529184968830124
15700.0000000396,216.065883646073,1.00000000065589,0.569484222871542
15800.0000000399,214.955418300846,1.00000000072526,0.580079046216963
15900.0000000403,213.859184672561,1.00000000065831,0.555140673835849
16000.0000000407,212.765361530251,1.00000000050614,0.525644242283332
16100.000000041,211.657669417787,1.00000000046785,0.516443893610235
16200.0000000414,210.536932241916,1.0000000004553,0.520592396807002
16300.0000000418,209.413247017576,1.00000000057971,0.544916460138078
16400.0000000418,208.300179740354,1.00000000069704,0.57422935390676
16500.0000000404,207.20549990427,1.0000000007068,0.566656897963554
16600.0000000389,206.121747614303,1.00000000059435,0.534451218920918
16700.0000000375,205.037545071739,1.00000000048335,0.51862294853686
16800.000000036,203.94895511002,1.0000000004551,0.518016537131125
16900.0000000346,202.854209516617,1.00000000048625,0.522418128179152
17000.0000000331,201.7623393405,1.00000000058308,0.538751461832253
17100.0000000317,200.680828214322,1.00000000065788,0.560513854002216
17200.0000000302,199.61332106844,1.00000000067702,0.559915584344334
17300.0000000287,198.558221889308,1.0000000006031,0.53653002547037
17400.0000000273,197.507638077998,1.0000000005361,0.518857240323216
17500.0000000258,196.459322146672,1.00000000049062,0.519285948583209
17600.0000000244,195.411442865828,1.00000000049531,0.5241094279752
17700.0000000229,194.365936913953,1.00000000052722,0.526567022761801
17800.0000000215,193.327411406025,1.00000000057013,0.534034858926867
17900.00000002,192.298428020002,1.00000000063984,0.54765595125131
18000.0000000186,191.280897792833,1.00000000063316,0.547596956431147
18100.0000000171,190.27362202748,1.00000000059482,0.532276061070554
18200.0000000156,189.272996033912,1.00000000053601,0.520698995394887
18300.0000000142,188.278680898366,1.00000000051881,0.522857437473672
18400.0000000127,187.288823730745,1.00000000050782,0.527526778562726
18500.0000000113,186.304870342325,1.00000000053641,0.526959192812208
18600.0000000098,185.327363282012,1.00000000052713,0.523120641719175
18700.0000000084,184.357375344662,1.00000000056344,0.528461442490283
18800.0000000069,183.396725395815,1.00000000061798,0.536778861302849
18900.0000000055,182.445657123539,1.00000000061965,0.540063600348952
19000.000000004,181.503184460912,1.00000000058114,0.531213355375101
19100.0000000026,180.569380872983,1.00000000052913,0.525031634660247
19200.0000000011,179.643013466986,1.00000000055404,0.528574046587044
19299.9999999996,178.724887177681,1.00000000051313,0.532613374050333
19399.9999999982,177.813588483112,1.0000000005142,0.527003384091436
19499.9999999967,176.909730973691,1.00000000051466,0.518758839471773
19599.9999999953,176.014001410849,1.00000000053647,0.517899180134865
19699.9999999938,175.126543595949,1.00000000057555,0.525781256251895
19799.9999999924,174.247754357239,1.00000000057448,0.535024274745484
19899.9999999909,173.377625885383,1.00000000056847,0.539758065059753
19999.9999999895,172.51566862954,1.00000000057097,0.535159778407988
20099.999999988,171.662387964214,1.00000000056746,0.532502155661171
20199.9999999865,170.817530118857,1.00000000055094,0.536435225131647
20299.9999999851,169.981646967503,1.00000000052215,0.536829236477279
20399.9999999836,169.154289147398,1.00000000048807,0.526035691103359
20499.9999999822,168.335763691256,1.00000000046744,0.515091685161226
20599.9999999807,167.526358837235,1.00000000052312,0.512683530624171
20699.9999999793,166.725778353524,1.0000000005488,0.518785936621274
20799.9999999778,165.933657153794,1.00000000056269,0.525095029618041
20899.9999999764,165.149583038935,1.00000000060163,0.537404244750984
20999.9999999749,164.372936183158,1.00000000055363,0.542768932076811
21099.9999999734,163.604252122031,1.00000000056427,0.538720751453287
21199.999999972,162.84330108902,1.00000000056822,0.538010507853033
21299.9999999705,162.090122160477,1.00000000059946,0.543988044644535
21399.9999999691,161.345240165563,1.00000000055456,0.539428076415355
21499.9999999676,160.610064309912,1.00000000048628,0.527005540432943
21599.9999999662,159.885743239345,1.00000000044752,0.511384817071096
21699.9999999647,159.172280827489,1.00000000048189,0.504454518849538
21799.9999999633,158.468581851651,1.00000000054548,0.511057575039029
21899.9999999618,157.773477307806,1.00000000057789,0.519080171517368
21999.9999999603,157.085344866561,1.00000000058035,0.526026798029094
22099.9999999589,156.403755495439,1.00000000057896,0.533042205268562
22199.9999999574,155.72865747168,1.00000000054796,0.540944775822211
22299.999999956,155.060106226795,1.00000000053936,0.540555574950182
22399.9999999545,154.398018252687,1.00000000057004,0.54117992666239
22499.9999999531,153.741396267979,1.0000000006132,0.548867137974068
22599.9999999516,153.090863255292,1.00000000058923,0.544177107066986
22699.9999999502,152.44903972363,1.00000000051572,0.529111821183204
22799.9999999487,151.819213473715,1.00000000044646,0.513359848175983
22899.9999999473,151.202901197223,1.00000000042676,0.500633625215947
22999.9999999458,150.599055807294,1.00000000049419,0.498483472286756
23099.9999999443,150.004379522467,1.00000000055108,0.508887777912617
23199.9999999429,149.416515122103,1.00000000060241,0.518544483587273
23299.9999999414,148.833652951111,1.00000000058366,0.518965030610452
23399.99999994,148.256206414326,1.00000000056552,0.520048013246467
23499.9999999385,147.683741384878,1.00000000057708,0.533411224166091
23599.9999999371,147.115589891344,1.00000000058053,0.544264790985864
23699.9999999356,146.551359784984,1.00000000059703,0.545763649070416
23799.9999999342,145.990416145868,1.00000000063746,0.546817775372048
23899.9999999327,145.43280046196,1.0000000006151,0.548096603377623
23999.9999999312,144.88058801584,1.0000000005626,0.538194373453588
24099.9999999298,144.337333357714,1.00000000050642,0.521636624860319
24199.9999999283,143.806418893909,1.00000000045917,0.511067948403268
24299.9999999269,143.289797977336,1.00000000045099,0.50370661594035
24399.9999999254,142.785940822095,1.00000000048691,0.500681152555903
24499.999999924,142.292293342935,1.00000000052548,0.500945149622775
24599.9999999225,141.805447485625,1.0000000005662,0.508329448054371
24699.9999999211,141.323768834019,1.00000000059543,0.51343903275595
24799.9999999196,140.845926425281,1.00000000058981,0.514173741249549
24899.9999999181,140.371499389993,1.00000000056172,0.516917658090343
24999.9999999167,139.899212194214,1.00000000057611,0.530195793331551
25099.9999999152,139.427842518974,1.00000000058951,0.542726845164146
25199.9999999138,138.957417967235,1.0000000006039,0.548152151589261
25299.9999999123,138.488593079125,1.00000000060552,0.545511047206477
25399.9999999109,138.022580045045,1.00000000059384,0.541046176624774
25499.9999999094,137.560670795884,1.00000000057414,0.537552794556735
25599.999999908,137.104824325394,1.00000000053683,0.529578173981844
25699.9999999065,136.658015580328,1.00000000051632,0.519757583110455
25799.9999999051,136.222601795713,1.00000000049093,0.512300748901389
25899.9999999036,135.799168527086,1.00000000047429,0.511961722185501
25999.9999999021,135.388006297155,1.00000000047871,0.507122800712699
26099.9999999007,134.987109923688,1.00000000053936,0.502185727508265
26199.9999998992,134.595293968856,1.00000000051977,0.501237563040836
26299.9999998978,134.210464530249,1.00000000056993,0.508694896984209
26399.9999998963,133.829342955249,1.00000000058913,0.513910816232995
26499.9999998949,133.450621240399,1.0000000005742,0.519655130847919
26599.9999998934,133.072541382863,1.00000000060007,0.521697895045566
26699.999999892,132.693414270417,1.00000000062881,0.530301581167019
26799.9999998905,132.313127714898,1.0000000006058,0.535395947695308
26899.999999889,131.931775104334,1.00000000060757,0.54433287927755
26999.9999998876,131.55094740962,1.00000000058788,0.542946326213352
27099.9999998861,131.172619257956,1.00000000055735,0.537703443063858
27199.9999998847,130.798726670356,1.00000000055575,0.534736985657064
27299.9999998832,130.429685061935,1.00000000057436,0.534133427828613
27399.9999998818,130.065659497058,1.00000000055682,0.531267511789387
27499.9999998803,129.708133768688,1.0000000005223,0.526784751910522
27599.9999998789,129.358713491797,1.00000000052804,0.521448337875865
27699.9999998774,129.018718350031,1.00000000050813,0.516207425761992
27799.9999998759,128.69062333296,1.00000000048974,0.51260964782509
27899.9999998745,128.373503441782,1.00000000049348,0.510495238869175
27999.999999873,128.0666629605,1.00000000051635,0.505877645531403
28099.9999998716,127.768529904209,1.00000000053569,0.508881692818158
28199.9999998701,127.477091054849,1.00000000053862,0.512790768776958
28299.9999998687,127.189609957511,1.00000000058923,0.519728134650137
28399.9999998672,126.90255351532,1.00000000057867,0.526977188818475
28499.9999998658,126.615246958199,1.00000000059996,0.533540267532301
28599.9999998643,126.326168077608,1.00000000059691,0.532300523404533
28699.9999998629,126.03494983949,1.00000000060487,0.535692324260604
28799.9999998614,125.741052941729,1.00000000062292,0.538068522006438
28899.9999998599,125.445445169318,1.0000000005726,0.541669152194409
