Time,AGPnorm,Energy,Entropy
0,0,1,-7.45483110673511e-17
99.9999999999986,0.000488712901800273,0.999999999998665,0.00182534393382597
199.999999999993,0.00329221787952309,0.999999999996893,0.005395535882456
300,0.00673855660549654,0.999999999997788,0.0100383360558931
400.000000000022,0.0104634368176299,0.999999999999782,0.0158715086488157
500.000000000045,0.0146586488863294,0.999999999999367,0.0230778724294015
600.000000000068,0.0207350787299076,0.999999999997433,0.031221909388757
700.000000000091,0.0271188275430759,0.999999999997075,0.0400403937869077
800.000000000113,0.0343799460913256,0.999999999999264,0.0496657179878762
900.000000000136,0.041145603553517,0.999999999999712,0.060420319952882
1000.00000000016,0.0499876995044973,0.999999999998245,0.0721014440295975
1100.0000000001,0.0586143078213984,0.999999999996803,0.0846478012105852
1200,0.0675576596761762,0.999999999998544,0.0981056449238516
1299.99999999991,0.0765185618219508,0.999999999999779,0.113083436314356
1399.99999999982,0.0858844169400607,0.99999999999903,0.129485944934261
1499.99999999973,0.0957107275090152,0.99999999999798,0.14773729877955
1599.99999999964,0.105164817033338,0.99999999999959,0.167869139714592
1699.99999999955,0.115592990623661,1.00000000000607,0.191044994822095
1799.99999999946,0.124095519539509,1.00000000001731,0.217257920562187
1899.99999999937,0.134401265280582,1.00000000003906,0.246179487934959
1999.99999999928,0.153118021994149,1.00000000007636,0.276490356377186
2099.99999999919,0.192223924925031,1.0000000001323,0.306707656245614
2199.99999999909,0.256131842201825,1.00000000017936,0.336012398367008
2299.999999999,0.376248579256414,1.00000000025285,0.363177952111941
2399.99999999891,0.612172279937575,1.00000000032427,0.387857531426093
2499.99999999882,1.01435300012117,1.00000000039256,0.409579206918068
2599.99999999873,1.61320473422332,1.00000000043666,0.42965195130967
2699.99999999864,2.46719313089019,1.00000000049218,0.447451129477234
2799.99999999855,3.65829860548073,1.00000000053092,0.463116859099956
2899.99999999846,5.23713692986237,1.00000000057079,0.476586885511751
2999.99999999837,7.20669085721997,1.0000000005902,0.488812446032932
3099.99999999828,9.59644172463273,1.00000000064228,0.499558614084867
3199.99999999819,12.4503087463576,1.00000000065645,0.508836793296903
3299.99999999809,15.7770495798932,1.00000000069046,0.516237236759232
3399.999999998,19.5314402723095,1.0000000007405,0.522955943550113
3499.99999999791,23.6917744816184,1.00000000069257,0.529165818271934
3599.99999999782,28.2602863476776,1.00000000073695,0.53415025077446
3699.99999999773,33.2114026159912,1.0000000007341,0.53790496901361
3799.99999999764,38.4773832305027,1.00000000072236,0.540767832051614
3899.99999999755,43.9960424988613,1.00000000074699,0.543871726472013
3999.99999999746,49.7475742220346,1.0000000007421,0.54644811997244
4099.99999999738,55.6999091721499,1.00000000071987,0.547032661449694
4199.99999999775,61.788210657484,1.00000000070835,0.547854228676139
4299.99999999811,67.937407974441,1.0000000006999,0.549831764445571
4399.99999999848,74.1176267686796,1.00000000069248,0.549228017152391
4499.99999999884,80.3107385400665,1.00000000067384,0.549184989364914
4599.9999999992,86.4636575728785,1.00000000065087,0.548275243249184
4699.99999999957,92.5185791921141,1.00000000064067,0.548616574149981
4799.99999999993,98.4407474013572,1.00000000063555,0.547509370039026
4900.00000000029,104.221849607674,1.00000000061582,0.546150372001942
5000.00000000066,109.833815881081,1.00000000060823,0.545344787529906
5100.00000000102,115.238637139256,1.00000000060536,0.543738245871469
5200.00000000139,120.408678475602,1.0000000005707,0.542693210234786
5300.00000000175,125.336523822605,1.00000000053264,0.541421301465315
5400.00000000211,130.021493343674,1.00000000055264,0.540228958147162
5500.00000000248,134.444021396018,1.00000000055295,0.537465724950015
5600.00000000284,138.587726587044,1.00000000051633,0.536815047818834
5700.00000000321,142.443447924683,1.00000000051086,0.536264356579681
5800.00000000357,146.018928986823,1.00000000049658,0.53388043811925
5900.00000000393,149.311064795181,1.00000000049439,0.530491587183556
6000.0000000043,152.314835880955,1.00000000048622,0.531386714861641
6100.00000000466,155.029153306135,1.00000000047166,0.532143056445955
6200.00000000502,157.459663260578,1.0000000004538,0.527466827543564
6300.00000000539,159.611674378169,1.00000000044352,0.522037716818609
6400.00000000575,161.489069820833,1.00000000046206,0.526504737136139
6500.00000000612,163.109302273111,1.00000000044002,0.53271020499041
6600.00000000648,164.483922761349,1.00000000042543,0.526229580225866
6700.00000000684,165.604096484895,1.00000000038929,0.51137940348829
6800.00000000721,166.464983354372,1.00000000038363,0.512891660169705
6900.00000000757,167.103913976497,1.0000000004252,0.532230226517591
7000.00000000793,167.571464501242,1.00000000045819,0.539430168793236
7100.0000000083,167.868794516242,1.00000000039971,0.520292768795104
7200.00000000866,167.952402812382,1.00000000031511,0.493031908346564
7300.00000000903,167.808329715273,1.00000000033365,0.500287603055948
7400.00000000939,167.505056315091,1.00000000040896,0.535181416449613
7500.00000000975,167.127010627676,1.00000000048019,0.552212150656465
7600.00000001012,166.686328714878,1.00000000044294,0.532415878061356
7700.00000001048,166.116046393877,1.00000000030078,0.484751978034427
7800.00000001084,165.35323755169,1.00000000024147,0.463247028034735
7900.00000001121,164.433198736565,1.00000000034122,0.50307665880511
8000.00000001157,163.461751177439,1.000000000474,0.547750670286231
8100.00000001194,162.51412385889,1.00000000055253,0.560614276280386
8200.0000000123,161.580300681823,1.00000000048112,0.534562395248118
8300.00000001266,160.579878627793,1.000000000305,0.470231979872067
8400.00000001303,159.437941547941,1.00000000019878,0.425979318446507
8500.00000001339,158.168654787269,1.00000000027411,0.459379215354343
8600.00000001376,156.860374925883,1.00000000046093,0.523146868993289
8700.00000001412,155.592435216753,1.00000000058978,0.558241427479255
8800.00000001448,154.394238546611,1.00000000055169,0.559401524738315
8900.00000001485,153.236871521581,1.00000000044642,0.522507299545276
9000.00000001521,152.049128070217,1.00000000031073,0.448976737250314
9100.00000001557,150.773090096858,1.00000000017516,0.387119825276953
9200.00000001594,149.410829335892,1.00000000021275,0.405188002001508
9300.0000000163,148.01587051631,1.00000000040336,0.480661124135442
9400.00000001667,146.64660910758,1.00000000057934,0.535671244601135
9500.00000001703,145.339723006462,1.00000000060441,0.554450441285464
9600.00000001739,144.102316384518,1.00000000059596,0.551452609675678
9700.00000001776,142.909231484942,1.00000000051562,0.518851302626167
9800.00000001812,141.714355275458,1.00000000033961,0.450208966256427
9900.00000001848,140.477332858836,1.00000000021794,0.377640980763344
10000.0000000188,139.19330083925,1.00000000017155,0.358320187321677
10100.0000000192,137.886116979328,1.00000000027682,0.405950750064815
10200.0000000196,136.584644607104,1.00000000042457,0.478872170366823
10300.0000000199,135.31153747059,1.00000000058079,0.524397634444049
10400.0000000203,134.081928123731,1.00000000062043,0.539752664745823
10500.0000000207,132.901004081812,1.00000000058466,0.542405339966262
10600.000000021,131.760850924805,1.00000000053343,0.529321965853642
10700.0000000214,130.64218712595,1.00000000042965,0.492097884433472
10800.0000000218,129.52386483939,1.00000000031174,0.434636177457474
10900.0000000221,128.395718724782,1.00000000025851,0.38143334707135
11000.0000000225,127.262196001961,1.00000000022633,0.362215643557994
11100.0000000229,126.13445127218,1.00000000025394,0.385209586012975
11200.0000000232,125.02063746205,1.00000000035122,0.436543942301013
11300.0000000236,123.92408432679,1.00000000043621,0.487519486339402
11400.0000000239,122.845535689493,1.0000000005096,0.513607097639192
11500.0000000243,121.786717957208,1.00000000055061,0.518639032777415
11600.0000000247,120.750425111987,1.00000000057705,0.526232872334584
11700.000000025,119.738118693252,1.00000000053544,0.533628980231885
11800.0000000254,118.746768166033,1.00000000046638,0.520401680304987
11900.0000000258,117.76986176814,1.00000000040052,0.482324049861959
12000.0000000261,116.803433961372,1.00000000031181,0.43613293682636
12100.0000000265,115.850242058536,1.00000000026324,0.400105023811925
12200.0000000269,114.917255749769,1.00000000028111,0.384750961417108
12300.0000000272,114.010307178519,1.00000000030716,0.395048851780759
12400.0000000276,113.129858596044,1.00000000032354,0.423542802975635
12500.0000000279,112.270838703441,1.00000000038079,0.450499875038387
12600.0000000283,111.426560578311,1.00000000041637,0.481824266724308
12700.0000000287,110.593217318634,1.00000000041866,0.501214553310196
12800.000000029,109.77000342571,1.00000000040206,0.50020544739285
12900.0000000294,108.955255807682,1.0000000004404,0.495425060353239
13000.0000000298,108.1452696033,1.00000000052704,0.507469540918287
13100.0000000301,107.338813544476,1.00000000055567,0.52755328580563
13200.0000000305,106.538344458583,1.00000000055656,0.537031179959181
13300.0000000309,105.747743785161,1.00000000047064,0.52188477761925
13400.0000000312,104.971910988874,1.00000000036362,0.483322747146575
13500.0000000316,104.218281715223,1.00000000025802,0.43689644858875
13600.0000000319,103.495893857151,1.00000000024161,0.404127725473561
13700.0000000323,102.809334042564,1.00000000027682,0.39215569021195
13800.0000000327,102.15547338614,1.00000000034614,0.399227795325302
13900.000000033,101.528357926621,1.00000000039354,0.420055495571647
14000.0000000334,100.921419333055,1.00000000041662,0.448776148033288
14100.0000000338,100.327366381407,1.000000000438,0.469508198791336
14200.0000000341,99.7405950534423,1.00000000044968,0.482336432122571
14300.0000000345,99.1582529203186,1.00000000041465,0.491365506319519
14400.0000000349,98.5824771372064,1.00000000038504,0.497819426973432
14500.0000000352,98.0179037853853,1.00000000033393,0.492618430346063
14600.0000000356,97.4653334540297,1.00000000036029,0.485617972242197
14700.0000000359,96.917508079428,1.00000000042717,0.486191032535758
14800.0000000363,96.3627782485417,1.00000000052707,0.497672168906142
14900.0000000367,95.7947855308263,1.00000000056205,0.515832030730646
15000.000000037,95.2154624775695,1.00000000054862,0.53065323756642
15100.0000000374,94.6312611479202,1.00000000050992,0.533923080281606
15200.0000000378,94.0508836698085,1.00000000042844,0.51988384624455
15300.0000000381,93.4834458933962,1.00000000036412,0.49035861383014
15400.0000000385,92.9393180191002,1.00000000028202,0.454715740508281
15500.0000000389,92.4294452398852,1.00000000025208,0.42650532316174
15600.0000000392,91.9617625126269,1.00000000026812,0.408555816490172
15700.0000000396,91.5372238458223,1.00000000026831,0.399776590404174
15800.0000000399,91.1476842211005,1.00000000032314,0.408879636765376
15900.0000000403,90.7806127062324,1.00000000040851,0.430954628627032
16000.0000000407,90.4251796099605,1.00000000042772,0.451153706258779
16100.000000041,90.0771627235578,1.00000000042995,0.466128648771989
16200.0000000414,89.7340789937602,1.0000000004337,0.477811639404293
16300.0000000418,89.3941942073975,1.00000000042914,0.485537573743956
16400.0000000418,89.0540926499962,1.00000000042586,0.493556071783822
16500.0000000404,88.7110169141644,1.00000000043204,0.504956628680599
16600.0000000389,88.3637044964623,1.00000000043125,0.514092346803575
16700.0000000375,88.0151530000641,1.0000000003978,0.520666082025025
16800.000000036,87.6702788238611,1.00000000035523,0.520010124782226
16900.0000000346,87.3314519185,1.00000000034612,0.513532946179434
17000.0000000331,86.9964412569356,1.00000000038147,0.507899295398972
17100.0000000317,86.6602853479503,1.00000000042728,0.49895525129718
17200.0000000302,86.317555346992,1.00000000044951,0.493404991995621
17300.0000000287,85.9643248101468,1.00000000047778,0.499393000174682
17400.0000000273,85.5970784583146,1.00000000053736,0.512723486486932
17500.0000000258,85.2150852314484,1.00000000055214,0.530376149609885
17600.0000000244,84.8227364172064,1.00000000053685,0.541933700899871
17700.0000000229,84.428039387417,1.00000000046679,0.5368314574914
17800.0000000215,84.0417958391391,1.00000000036327,0.515665848420413
17900.00000002,83.6753069326706,1.00000000030265,0.486851722980386
18000.0000000186,83.3400111652649,1.00000000027085,0.456720621249836
18100.0000000171,83.0433652222951,1.0000000002664,0.43846813148499
18200.0000000156,82.7869868755833,1.00000000028253,0.430116531602243
18300.0000000142,82.5684711740821,1.00000000031818,0.427072744426968
18400.0000000127,82.3832710708183,1.00000000032644,0.428893560172787
18500.0000000113,82.2234970148101,1.0000000003727,0.431699821347282
18600.0000000098,82.078931430156,1.0000000003959,0.441098100297105
18700.0000000084,81.9393476035653,1.00000000043099,0.457547884674344
18800.0000000069,81.7973017485609,1.0000000004596,0.476530610842629
18900.0000000055,81.6527558951261,1.00000000043045,0.487170365418511
19000.000000004,81.5129492724627,1.00000000038952,0.489105106764906
19100.0000000026,81.3858087488902,1.00000000033419,0.487448976182231
19200.0000000011,81.2735853651062,1.00000000034028,0.486434060517242
19299.9999999996,81.1712833735075,1.00000000037325,0.492165980582599
19399.9999999982,81.0682882429866,1.00000000043968,0.505942728513228
19499.9999999967,80.9514409510497,1.00000000048496,0.517790150967238
19599.9999999953,80.8115056328182,1.00000000052521,0.525527884036448
19699.9999999938,80.645861236229,1.00000000050538,0.530470875861904
19799.9999999924,80.4567045872852,1.00000000047528,0.534433463010896
19899.9999999909,80.251502233268,1.00000000045382,0.540634916500114
19999.9999999895,80.0400623570914,1.00000000041508,0.541882144916449
20099.999999988,79.8297370077339,1.00000000035092,0.532015670541544
20199.9999999865,79.6246742928209,1.0000000003403,0.519612890530743
20299.9999999851,79.4281261975153,1.00000000033374,0.51181128129067
20399.9999999836,79.239037399376,1.00000000033964,0.507892573814826
20499.9999999822,79.0522290354539,1.00000000037205,0.504608732605105
20599.9999999807,78.861824457881,1.00000000042664,0.503352095865966
20699.9999999793,78.6615403711909,1.00000000046482,0.507913451062424
20799.9999999778,78.4474124824528,1.00000000050251,0.51482770032271
20899.9999999764,78.2173453643346,1.00000000054167,0.524258944719868
20999.9999999749,77.9720339660609,1.00000000055133,0.534314105773228
21099.9999999734,77.7150586169857,1.00000000052642,0.541723357055843
21199.999999972,77.4525814779034,1.00000000046681,0.542444808443414
21299.9999999705,77.1932389147629,1.00000000040949,0.536215517489001
21399.9999999691,76.946404954159,1.00000000035859,0.520377667236115
21499.9999999676,76.7210374836651,1.00000000031727,0.494784084705178
21599.9999999662,76.5245771413227,1.00000000028306,0.474898936915005
21699.9999999647,76.3621336275382,1.00000000028204,0.45806259342792
21799.9999999633,76.2365948639938,1.00000000028874,0.447882213386791
21899.9999999618,76.1482158698249,1.00000000029854,0.444139896296083
21999.9999999603,76.093707704601,1.00000000031121,0.441095812534322
22099.9999999589,76.0665406476722,1.00000000034496,0.437858560099239
22199.9999999574,76.0575313517569,1.00000000040416,0.440138141383737
22299.999999956,76.0584295240779,1.00000000042092,0.446028357929181
22399.9999999545,76.0640867331201,1.00000000039835,0.451257704799067
22499.9999999531,76.0739199563031,1.00000000039289,0.453892257930747
22599.9999999516,76.0893311632185,1.00000000039126,0.456445656812907
22699.9999999502,76.1110167456796,1.00000000038271,0.468210555756912
22799.9999999487,76.1371653997149,1.00000000040744,0.482267590760686
22899.9999999473,76.1636607440704,1.00000000039399,0.492740075635524
22999.9999999458,76.1857161847265,1.00000000042742,0.502112696007595
23099.9999999443,76.2000794109311,1.00000000043508,0.515600417694197
23199.9999999429,76.2064721598929,1.00000000043845,0.528764730271766
23299.9999999414,76.2074428922041,1.00000000043919,0.535537629969254
23399.99999994,76.2064292522802,1.00000000038458,0.536032035771979
23499.9999999385,76.2050010167881,1.00000000038472,0.535243863583818
23599.9999999371,76.2026746852194,1.00000000038628,0.536232095316666
23699.9999999356,76.1970132621152,1.00000000038263,0.540218416244785
23799.9999999342,76.1856931646143,1.00000000042008,0.543631374889565
23899.9999999327,76.1657402571597,1.00000000043121,0.542383846926298
23999.9999999312,76.1338801628078,1.00000000040644,0.53961473413359
24099.9999999298,76.0881400782043,1.00000000042509,0.53671472249062
24199.9999999283,76.0269293902872,1.00000000044176,0.534788452758396
24299.9999999269,75.9488624335618,1.00000000045747,0.53317468267274
24399.9999999254,75.8542132469115,1.00000000046045,0.5297801301912
24499.999999924,75.7444738047357,1.00000000045443,0.531625451182637
24599.9999999225,75.622842248832,1.00000000044396,0.538762051016427
24699.9999999211,75.4934346521738,1.00000000044364,0.543469940787296
24799.9999999196,75.3594877408979,1.00000000043029,0.545275061541343
24899.9999999181,75.2233130395104,1.00000000041186,0.547292450731649
24999.9999999167,75.0870772060786,1.00000000039206,0.548323151820459
25099.9999999152,74.9526271906876,1.00000000036475,0.545963868791732
25199.9999999138,74.8221016082719,1.00000000035081,0.543599234614272
25299.9999999123,74.6965124731912,1.0000000003468,0.543214555412721
25399.9999999109,74.5746571928098,1.00000000037089,0.543997721099975
25499.9999999094,74.4546395042672,1.00000000035702,0.541828271814747
25599.999999908,74.3340176639188,1.00000000037977,0.54139883817199
25699.9999999065,74.2106833714081,1.00000000041997,0.541937176323766
25799.9999999051,74.0821167533382,1.00000000043345,0.540446529906709
25899.9999999036,73.9457807551988,1.00000000045097,0.537679475810467
25999.9999999021,73.8001725219251,1.00000000046549,0.533394790739154
26099.9999999007,73.644638028294,1.00000000049917,0.530183566998779
26199.9999998992,73.4785967743283,1.00000000051232,0.532346517370346
26299.9999998978,73.3020220357994,1.00000000052727,0.536887628687112
26399.9999998963,73.1171845216305,1.00000000052689,0.542751325741693
26499.9999998949,72.9285717964436,1.0000000004708,0.545036449842692
26599.9999998934,72.7417710509802,1.00000000041287,0.541897185165167
26699.999999892,72.5630477356141,1.00000000036701,0.533844462682347
26799.9999998905,72.3985578285765,1.00000000034147,0.520349227666253
26899.999999889,72.2542308835581,1.00000000032688,0.507376632382383
26999.9999998876,72.1350103009392,1.0000000003065,0.495262647117353
27099.9999998861,72.0446089757542,1.00000000027701,0.483658243132802
27199.9999998847,71.9854298608989,1.00000000028652,0.47396385191567
27299.9999998832,71.9574988118083,1.00000000029554,0.465399567161751
27399.9999998818,71.9597520257418,1.00000000032092,0.45855892132227
27499.9999998803,71.9893870771654,1.00000000030877,0.456167749433773
27599.9999998789,72.0409392965772,1.00000000037346,0.456479812302464
27699.9999998774,72.1081050437808,1.00000000039058,0.461146905368653
27799.9999998759,72.1856536597895,1.00000000041585,0.465763298755712
27899.9999998745,72.270382087536,1.00000000039851,0.468510955289191
27999.999999873,72.3617087221413,1.0000000003948,0.467383931100148
28099.9999998716,72.4598062520608,1.00000000040395,0.465515019158234
28199.9999998701,72.5622051924288,1.00000000040687,0.468248711190693
28299.9999998687,72.6668050468225,1.00000000037353,0.475751145114146
28399.9999998672,72.7735162879218,1.00000000040464,0.48381371645654
28499.9999998658,72.8830210279554,1.0000000003829,0.492376167333961
28599.9999998643,72.9946764590392,1.00000000038324,0.501422544571475
28699.9999998629,73.1072587087144,1.00000000040143,0.509285444963559
28799.9999998614,73.2189605793119,1.00000000041029,0.516635632302553
28899.9999998599,73.3278330089776,1.00000000040352,0.523162743354101
28999.9999998585,73.4318202636544,1.00000000039669,0.529338733826496
