Time,AGPnorm,Energy,Entropy
0,0,1,-1.48759118270905e-17
99.9999999999986,3.1223956720287e-05,1.00000000000183,0.00136396379186966
199.999999999993,0.00271417120710839,1.00000000000355,0.00209604880614261
300,0.00692681827846277,0.999999999999189,0.00371755895778804
400.000000000022,0.00988666187368091,1.00000000000418,0.00628012047112255
500.000000000045,0.0118991994966647,1.00000000000075,0.00827583919501621
600.000000000068,0.0164800469888536,1.00000000000097,0.0116998396993825
700.000000000091,0.0202857438078828,1.00000000000408,0.0147718783197801
800.000000000113,0.0268641846236021,0.999999999999355,0.0181734006928193
900.000000000136,0.03333714351917,1.00000000000351,0.0224085254603554
1000.00000000016,0.0379312028190113,1.00000000000148,0.0260907042863737
1100.0000000001,0.0451864010095386,1.00000000000036,0.0307930060996247
1200,0.0533421579847592,1.00000000000438,0.0354023873334495
1299.99999999991,0.0620849373550678,0.999999999999714,0.0401330713351441
1399.99999999982,0.0700896043745208,1.00000000000262,0.0456884761118145
1499.99999999973,0.0773913487221534,1.00000000000219,0.0507305055402233
1599.99999999964,0.0874155304163824,1.00000000000014,0.05663363467685
1699.99999999955,0.0982072315594452,1.00000000000435,0.0627422833910471
1799.99999999946,0.107911337785177,1.0000000000001,0.0687993369888753
1899.99999999937,0.116962931664924,1.00000000000175,0.0757002237087308
1999.99999999928,0.126879310867138,1.0000000000029,0.0822872397561257
2099.99999999919,0.138784292957147,1.00000000000021,0.0896942324305726
2199.99999999909,0.150399102303132,1.00000000000389,0.0976291067928619
2299.999999999,0.160187563097189,1.0000000000005,0.105388175174443
2399.99999999891,0.170196973124891,1.00000000000118,0.114201051468952
2499.99999999882,0.182024893714909,1.00000000000356,0.123141236154866
2599.99999999873,0.194497417424428,1.00000000000042,0.133014713497118
2699.99999999864,0.205449289331927,1.00000000000342,0.143933592718639
2799.99999999855,0.215066356295234,1.00000000000194,0.155007962611832
2899.99999999846,0.226114623727435,1.00000000000363,0.167893788801904
2999.99999999837,0.238021884438494,1.00000000001138,0.181941211561443
3099.99999999828,0.250306217873324,1.00000000001697,0.197185146638373
3199.99999999819,0.2606454286398,1.00000000003378,0.213956313786408
3299.99999999809,0.268924436916487,1.00000000005692,0.230534241260521
3399.999999998,0.287856258159566,1.00000000008661,0.248173214391789
3499.99999999791,0.300932437576988,1.00000000012151,0.265865185561981
3599.99999999782,0.326991468044973,1.00000000017405,0.282676556490402
3699.99999999773,0.367785663173089,1.00000000021992,0.299824814357843
3799.99999999764,0.412637280040293,1.00000000026359,0.315818325081118
3899.99999999755,0.512831281596303,1.00000000032814,0.331914287463783
3999.99999999746,0.630506960727147,1.00000000036821,0.347763316173963
4099.99999999738,0.808740145799622,1.0000000004292,0.362120261589247
4199.99999999775,1.07157663648251,1.00000000047396,0.376673605394267
4299.99999999811,1.38506015594567,1.00000000052614,0.390417327520234
4399.99999999848,1.83923865503488,1.00000000057761,0.40352603342691
4499.99999999884,2.38956586866647,1.0000000006237,0.416409124674342
4599.9999999992,3.07286835888924,1.00000000064153,0.427909673892228
4699.99999999957,3.9383486182425,1.00000000071807,0.439413576995971
4799.99999999993,4.92686473245638,1.00000000077024,0.450351935084253
4900.00000000029,6.13715517100019,1.00000000077093,0.46040075320985
5000.00000000066,7.52886230747806,1.00000000081777,0.4701947588903
5100.00000000102,9.10853981809695,1.00000000079608,0.479115046302674
5200.00000000139,10.9391787436432,1.0000000008302,0.487907802891002
5300.00000000175,12.946525763248,1.0000000008434,0.496140990737672
5400.00000000211,15.209944031949,1.00000000090967,0.503146575041919
5500.00000000248,17.6978053876264,1.00000000089025,0.510421490337558
5600.00000000284,20.3865563229189,1.00000000090732,0.516964983737289
5700.00000000321,23.3391919069105,1.00000000092926,0.523155693967092
5800.00000000357,26.4777178060712,1.00000000095583,0.529031584921601
5900.00000000393,29.8534000240025,1.00000000092481,0.534006069477668
6000.0000000043,33.4440844507893,1.00000000098892,0.538995917288612
6100.00000000466,37.2064939371275,1.000000000962,0.543740269464711
6200.00000000502,41.1963507122123,1.00000000094551,0.547957852373472
6300.00000000539,45.3397035386406,1.00000000097093,0.551956153307439
6400.00000000575,49.663529727821,1.00000000096945,0.555306729900011
6500.00000000612,54.1541258527108,1.00000000097369,0.558866836399509
6600.00000000648,58.7597866094548,1.00000000095308,0.562265361112144
6700.00000000684,63.5271111721813,1.00000000095034,0.564880129710179
6800.00000000721,68.3906996461781,1.00000000098063,0.56741818904821
6900.00000000757,73.360190242403,1.0000000009619,0.569695056226579
7000.00000000793,78.4306178097798,1.00000000093341,0.572307280358036
7100.0000000083,83.5480031609702,1.00000000096691,0.574125092927503
7200.00000000866,88.7516761465581,1.00000000095607,0.575338724507008
7300.00000000903,93.9872251947846,1.00000000090893,0.577478012670655
7400.00000000939,99.2530796672289,1.00000000093381,0.578878481800148
7500.00000000975,104.551739876743,1.00000000090575,0.580251624055259
7600.00000001012,109.832931935373,1.00000000091055,0.581168654832086
7700.00000001048,115.129209040215,1.00000000091188,0.58203363800134
7800.00000001084,120.397503511446,1.00000000090706,0.583221843762858
7900.00000001121,125.629368460256,1.00000000085702,0.58402243609339
8000.00000001157,130.834709182868,1.00000000083019,0.584330754347406
8100.00000001194,135.968838370269,1.00000000083808,0.585209459906025
8200.0000000123,141.057659037639,1.00000000081954,0.585354753375735
8300.00000001266,146.071166297505,1.00000000083015,0.585970346718214
8400.00000001303,150.997244549608,1.00000000081736,0.586023592012656
8500.00000001339,155.850987358172,1.00000000082181,0.585994140228427
8600.00000001376,160.593177814076,1.00000000078771,0.586456741358356
8700.00000001412,165.247086563584,1.00000000078998,0.586171051981013
8800.00000001448,169.790193732998,1.00000000077246,0.586003876076578
8900.00000001485,174.211532024936,1.00000000079587,0.586619777654436
9000.00000001521,178.526542446031,1.00000000075547,0.585193434414858
9100.00000001557,182.705373716587,1.00000000075414,0.586521406961395
9200.00000001594,186.765529114273,1.00000000072251,0.585048331538772
9300.0000000163,190.693023418652,1.00000000074014,0.585423245561692
9400.00000001667,194.479331389094,1.00000000072276,0.585211041490146
9500.00000001703,198.138077363145,1.00000000071725,0.584087554170501
9600.00000001739,201.648979575908,1.00000000070572,0.585145185014567
9700.00000001776,205.023269507696,1.00000000070143,0.583499414304695
9800.00000001812,208.256278228179,1.00000000067921,0.583752176453497
9900.00000001848,211.33685983599,1.00000000069318,0.583376544418631
10000.0000000188,214.284135471194,1.00000000068209,0.582732761349717
10100.0000000192,217.079027586067,1.00000000065396,0.58213937898544
10200.0000000196,219.73181047333,1.00000000065942,0.582140389096687
10300.0000000199,222.245106140606,1.00000000062808,0.580868700376146
10400.0000000203,224.605789086533,1.00000000063599,0.580904537040721
10500.0000000207,226.834893568044,1.00000000062708,0.5811847358674
10600.000000021,228.918113825292,1.00000000059545,0.579506109847428
10700.0000000214,230.860523524353,1.00000000062121,0.580332157583313
10800.0000000218,232.671327772548,1.00000000062162,0.58041796970864
10900.0000000221,234.338004204343,1.00000000058436,0.578101987255369
11000.0000000225,235.876806243029,1.00000000060688,0.579389949448174
11100.0000000229,237.282550236742,1.0000000005781,0.578752044643326
11200.0000000232,238.556826889545,1.0000000005592,0.577774312661559
11300.0000000236,239.707772086016,1.00000000056896,0.578152238591451
11400.0000000239,240.73036960015,1.00000000055275,0.577094311094979
11500.0000000243,241.635263372377,1.00000000054536,0.577690908411188
11600.0000000247,242.42120830844,1.00000000054259,0.578484992295665
11700.000000025,243.092342955468,1.00000000053869,0.575113806072715
11800.0000000254,243.651125301615,1.00000000052364,0.575990526038122
11900.0000000258,244.09971437466,1.00000000055737,0.578732280803091
12000.0000000261,244.452129050285,1.00000000053702,0.575651517523463
12100.0000000265,244.699641539782,1.00000000050233,0.572101593226958
12200.0000000269,244.845701213407,1.00000000051796,0.575538041353122
12300.0000000272,244.905844268211,1.00000000051882,0.5782154794148
12400.0000000276,244.879620669129,1.00000000052407,0.574426736238058
12500.0000000279,244.769966937399,1.00000000048806,0.5686443931461
12600.0000000283,244.571783044508,1.00000000050191,0.570703299342999
12700.0000000287,244.301113155692,1.00000000055717,0.578809902135195
12800.000000029,243.973091219466,1.00000000051961,0.573713976002583
12900.0000000294,243.573735030835,1.00000000049286,0.563744971674756
13000.0000000298,243.099785390512,1.00000000048075,0.562594927733721
13100.0000000301,242.565059923341,1.00000000054656,0.577606554624785
13200.0000000305,241.989262682446,1.00000000056827,0.576702526810924
13300.0000000309,241.371352595386,1.00000000050706,0.562772143678245
13400.0000000312,240.690017958893,1.00000000044779,0.554254912276087
13500.0000000316,239.952689975633,1.00000000052406,0.564415151242804
13600.0000000319,239.182561041979,1.00000000058672,0.580352440755491
13700.0000000323,238.39144714545,1.00000000059474,0.571053349831294
13800.0000000327,237.568431485278,1.00000000047441,0.554038384784808
13900.000000033,236.693404471691,1.00000000045383,0.545643531798916
14000.0000000334,235.777733308957,1.0000000005256,0.562028019495224
14100.0000000338,234.846708603715,1.00000000063892,0.583350544751529
14200.0000000341,233.911941035479,1.00000000057722,0.567640846058613
14300.0000000345,232.956303645332,1.00000000050419,0.547791011087682
14400.0000000349,231.96010887028,1.00000000041282,0.536036127575784
14500.0000000352,230.930235805794,1.00000000050417,0.550221225126616
14600.0000000356,229.891033724816,1.00000000067043,0.582607687054077
14700.0000000359,228.861751554753,1.00000000062628,0.573129349731737
14800.0000000363,227.827388671002,1.00000000053203,0.545433777847386
14900.0000000367,226.767837274224,1.00000000041637,0.530216077038111
15000.000000037,225.677354010074,1.00000000047266,0.531817825048027
15100.0000000374,224.572152920395,1.00000000057972,0.562832489550058
15200.0000000378,223.477194440263,1.00000000074327,0.585012712221035
15300.0000000381,222.397441297642,1.00000000060498,0.559822894772104
15400.0000000385,221.311198778971,1.00000000050752,0.530402259092846
15500.0000000389,220.205700749231,1.00000000044079,0.522852148262323
15600.0000000392,219.079203978257,1.00000000048707,0.528684326523205
15700.0000000396,217.947050781183,1.0000000006054,0.560270270802817
15800.0000000399,216.830538687744,1.00000000072467,0.581708893981373
15900.0000000403,215.729429397122,1.0000000006389,0.560596931060218
16000.0000000407,214.631301986225,1.00000000050916,0.525832727967463
16100.000000041,213.521549173763,1.00000000044718,0.517808862257656
16200.0000000414,212.398662123025,1.00000000047564,0.523801720349007
16300.0000000418,211.270955484834,1.00000000056615,0.540145805377499
16400.0000000418,210.151588450929,1.00000000067141,0.569746197020377
16500.0000000404,209.04941165124,1.00000000070296,0.572201342695872
16600.0000000389,207.960370766339,1.00000000058492,0.539788272099478
16700.0000000375,206.87140553482,1.0000000004848,0.514630337788455
16800.000000036,205.777944538901,1.00000000046676,0.516395201784273
16900.0000000346,204.678519505975,1.00000000050528,0.525959385158194
17000.0000000331,203.580661516407,1.00000000056966,0.537952152290904
17100.0000000317,202.492165653036,1.00000000067883,0.556573707393499
17200.0000000302,201.417337798005,1.00000000065308,0.564127286005686
17300.0000000287,200.355697453129,1.00000000062452,0.542592265175975
17400.0000000273,199.299555829641,1.00000000049969,0.516155318187857
17500.0000000258,198.244704133267,1.00000000048405,0.512656023511643
17600.0000000244,197.190320577453,1.00000000049444,0.524376411560124
17700.0000000229,196.138259011816,1.0000000005541,0.531243928318376
17800.0000000215,195.092827540213,1.00000000058032,0.535238524134995
17900.00000002,194.056640340652,1.00000000060946,0.546128279145301
18000.0000000186,193.031747517575,1.00000000063162,0.55121017307535
18100.0000000171,192.017710518133,1.00000000058827,0.535892453925284
18200.0000000156,191.010336043786,1.00000000053845,0.51786169458281
18300.0000000142,190.008695002407,1.00000000050138,0.514915409807149
18400.0000000127,189.011585525877,1.00000000050319,0.525199908708742
18500.0000000113,188.020379017001,1.00000000055286,0.531633788777803
18600.0000000098,187.035720945581,1.00000000056464,0.528563874715988
18700.0000000084,186.058474319733,1.00000000057559,0.529357663273127
18800.0000000069,185.090387791056,1.00000000060441,0.535040510592202
18900.0000000055,184.132008012087,1.00000000061191,0.541398047706458
19000.000000004,183.182115768382,1.00000000057412,0.531966936071248
19100.0000000026,182.240771990566,1.0000000005468,0.52268043472518
19200.0000000011,181.306775484174,1.00000000053364,0.52130294970029
19299.9999999996,180.38106162466,1.00000000052362,0.530262596404861
19399.9999999982,179.462355558546,1.00000000052248,0.531123305982542
19499.9999999967,178.551147064648,1.00000000051714,0.525325107259508
19599.9999999953,177.647776920803,1.00000000052128,0.521544986325403
19699.9999999938,176.75249344309,1.00000000056894,0.52479750557534
19799.9999999924,175.865865373147,1.00000000056972,0.531617000564169
19899.9999999909,174.987894127146,1.00000000057614,0.538849429012464
19999.9999999895,174.118115587592,1.00000000057224,0.536493389098261
20099.999999988,173.256975351948,1.0000000005514,0.530483567689921
20199.9999999865,172.404252941421,1.00000000054081,0.530310036684623
20299.9999999851,171.560700206966,1.00000000052653,0.533692295390969
20399.9999999836,170.725700823953,1.00000000049982,0.530706804166276
20499.9999999822,169.899443094891,1.00000000048127,0.521725628641674
20599.9999999807,169.081932243317,1.00000000050012,0.516816395298768
20699.9999999793,168.272868039971,1.00000000053393,0.519276490291008
20799.9999999778,167.472438525001,1.00000000055587,0.523068702987027
20899.9999999764,166.68025807775,1.00000000058895,0.53296567387617
20999.9999999749,165.89568085474,1.000000000575,0.541973020030825
21099.9999999734,165.119050968997,1.00000000056678,0.542021587349114
21199.999999972,164.350118491399,1.00000000056676,0.535842292592498
21299.9999999705,163.589328535256,1.00000000058936,0.538527518876805
21399.9999999691,162.836783340755,1.00000000055742,0.538403703259943
21499.9999999676,162.093717527536,1.00000000051059,0.530493851412723
21599.9999999662,161.361162450665,1.00000000046945,0.519446869536174
21699.9999999647,160.639055229699,1.00000000046996,0.507973137741399
21799.9999999633,159.927013157803,1.00000000054105,0.509820621324209
21899.9999999618,159.22346868878,1.0000000005689,0.518623481049323
21999.9999999603,158.5272511869,1.00000000056588,0.525297828253012
22099.9999999589,157.838005685572,1.00000000058985,0.529189792910101
22199.9999999574,157.155363296763,1.00000000055462,0.538348469407368
22299.999999956,156.479443364334,1.00000000055244,0.542699894173093
22399.9999999545,155.809964531815,1.00000000054454,0.539867510059475
22499.9999999531,155.14632654688,1.00000000060692,0.545012572721829
22599.9999999516,154.48872093817,1.000000000569,0.544558314632377
22699.9999999502,153.839092868551,1.00000000054638,0.531496255769321
22799.9999999487,153.200901062606,1.00000000047,0.517584263296658
22899.9999999473,152.575770654747,1.00000000041805,0.506517399046134
22999.9999999458,151.963346561376,1.00000000048011,0.499714070586147
23099.9999999443,151.360869500335,1.00000000054321,0.506548237513489
23199.9999999429,150.76539079939,1.00000000059694,0.517554881469693
23299.9999999414,150.175282383793,1.00000000062329,0.521726277673467
23399.99999994,149.59081524963,1.00000000055802,0.517367421028295
23499.9999999385,149.011909430109,1.00000000057262,0.527754400985771
23599.9999999371,148.437927709256,1.00000000056277,0.542266272637817
23699.9999999356,147.867619195721,1.00000000058466,0.546448807901603
23799.9999999342,147.300680622085,1.00000000060871,0.546322796053511
23899.9999999327,146.737016404989,1.00000000061324,0.546874702734035
23999.9999999312,146.177999487755,1.00000000058825,0.539910113289093
24099.9999999298,145.627145236537,1.00000000053513,0.524032610921698
24199.9999999283,145.087649476667,1.00000000044242,0.510987900332878
24299.9999999269,144.56275555787,1.00000000045098,0.505028275273736
24399.9999999254,144.051121104338,1.00000000047526,0.503833258020834
24499.999999924,143.550099997932,1.00000000052946,0.500534678957173
24599.9999999225,143.056820859663,1.00000000057336,0.506206614394426
24699.9999999211,142.56869612424,1.00000000059162,0.513727193227563
24799.9999999196,142.084578532875,1.00000000059784,0.516384353966287
24899.9999999181,141.604426888505,1.00000000057389,0.514034503841315
24999.9999999167,141.127427986239,1.00000000057994,0.52451248893732
25099.9999999152,140.652369520001,1.00000000058434,0.538119153212939
25199.9999999138,140.178104219146,1.00000000062996,0.547616625116063
25299.9999999123,139.704684745315,1.00000000058438,0.547254657003602
25399.9999999109,139.233414177578,1.00000000057623,0.542505282077764
25499.9999999094,138.765362813373,1.00000000059244,0.538004287303872
25599.999999908,138.30295168219,1.0000000005556,0.53005093875803
25699.9999999065,137.848922863896,1.00000000051479,0.519875560850483
25799.9999999051,137.405945559462,1.00000000047382,0.510643557692222
25899.9999999036,136.97546188999,1.00000000047528,0.510069045551555
25999.9999999021,136.55759299118,1.00000000048419,0.508696475735016
26099.9999999007,136.150595974229,1.0000000005304,0.50497822819783
26199.9999998992,135.752497664678,1.00000000051956,0.500545135151283
26299.9999998978,135.361849325031,1.00000000055972,0.506216329910235
26399.9999998963,134.975759652547,1.00000000059934,0.512915242858403
26499.9999998949,134.592249735239,1.00000000056877,0.518478497552279
26599.9999998934,134.210125511769,1.00000000057877,0.521131500765628
26699.999999892,133.827985867177,1.00000000058492,0.526865066706666
26799.9999998905,133.445464685869,1.00000000056023,0.533527155683893
26899.999999889,133.062054044299,1.0000000005995,0.541893582785377
26999.9999998876,132.677965132597,1.00000000058445,0.544688348192623
27099.9999998861,132.295317707099,1.00000000057408,0.539967025076252
27199.9999998847,131.916133433596,1.00000000056425,0.535927090268364
27299.9999998832,131.541142064606,1.00000000056575,0.534016988345584
27399.9999998818,131.171253129786,1.00000000054828,0.529977446580781
27499.9999998803,130.807552965748,1.00000000054455,0.524761582138191
27599.9999998789,130.451774697753,1.00000000052372,0.52036589076215
27699.9999998774,130.105105817522,1.00000000051102,0.515443622787671
27799.9999998759,129.770334579851,1.00000000048137,0.511540175149904
27899.9999998745,129.44739900512,1.0000000004885,0.511406835083441
27999.999999873,129.135000034026,1.00000000052019,0.506779644164244
28099.9999998716,128.831595115785,1.00000000050708,0.506578102690631
28199.9999998701,128.535341236495,1.00000000052925,0.511229352577097
28299.9999998687,128.243764712057,1.0000000005668,0.518424343244872
28399.9999998672,127.953447794825,1.00000000058217,0.525140100439423
28499.9999998658,127.663263764051,1.00000000057795,0.532490545625851
28599.9999998643,127.371546566706,1.00000000058683,0.534852702484919
28699.9999998629,127.078127025203,1.00000000059584,0.533378386152701
28799.9999998614,126.782741671046,1.00000000058476,0.537107608663725
28899.9999998599,126.48583533263,1.00000000059983,0.539526876146323
