Time,AGPnorm,Energy,Entropy
0,0,1,-1.42152051106786e-17
99.9999999999986,9.3455763926468e-06,0.999999999997612,0.000453619590965386
199.999999999993,0.000839821203766961,0.999999999999995,0.000727645767556952
300,0.00204597558039623,0.999999999998753,0.00126516053513928
400.000000000022,0.00286210968227758,0.999999999998285,0.00220866102828975
500.000000000045,0.00348537199673429,1.00000000000021,0.00293581004691622
600.000000000068,0.00496694629853581,0.999999999997718,0.0041339761134637
700.000000000091,0.00609237175808879,0.999999999999607,0.005341053326227
800.000000000113,0.00791135998474345,0.99999999999925,0.00653897226119297
900.000000000136,0.0100204277592643,0.999999999997939,0.00812057187713992
1000.00000000016,0.0115622847716122,1.00000000000023,0.00953360836781604
1100.0000000001,0.0138315414680268,0.999999999997995,0.0112113776547309
1200,0.0162734964146042,0.999999999999171,0.0130151208497941
1299.99999999991,0.0189701985559005,0.999999999999685,0.0147061226747543
1399.99999999982,0.0219098632233938,0.999999999997723,0.0167464319831517
1499.99999999973,0.0244100280732265,1.00000000000007,0.0186909967040932
1599.99999999964,0.0276184573607507,0.99999999999841,0.0207519332691278
1699.99999999955,0.0311611467273967,0.999999999998744,0.0230254352031733
1799.99999999946,0.0345775752602714,0.999999999999975,0.0251545206882907
1899.99999999937,0.0381945551978497,0.999999999997665,0.0275674096739651
1999.99999999928,0.0416769230498238,0.999999999999796,0.0299715689532315
2099.99999999919,0.0458200982401914,0.999999999998907,0.0323873951037717
2199.99999999909,0.0502366673266347,0.999999999998361,0.0350690122879755
2299.999999999,0.0542076020977208,1.00000000000008,0.0376175462250737
2399.99999999891,0.0584204852435041,0.999999999997788,0.0403668106461459
2499.99999999882,0.0628651273856298,0.999999999999466,0.0432027712418836
2599.99999999873,0.0677905639489306,0.999999999999389,0.045986178095872
2699.99999999864,0.0728150340046506,0.999999999998042,0.049050920065075
2799.99999999855,0.0772716866078468,0.999999999999998,0.0520197824601141
2899.99999999846,0.082085679682815,0.999999999998098,0.0551127682353897
2999.99999999837,0.0873677232778061,0.999999999999136,0.0583847720369501
3099.99999999828,0.0928126492128912,0.999999999999753,0.0615761968751719
3199.99999999819,0.0981738237443602,0.999999999997823,0.0650273477456584
3299.99999999809,0.103135534859827,0.999999999999787,0.0684451875676517
3399.999999998,0.108564607656534,0.999999999998553,0.0719323527747091
3499.99999999791,0.11446907501139,0.999999999998823,0.0756758400383313
3599.99999999782,0.120151066597016,0.999999999999935,0.0793385912089163
3699.99999999773,0.125665540934753,0.999999999997763,0.08321785356233
3799.99999999764,0.131157927463788,0.99999999999952,0.0871579412085502
3899.99999999755,0.137133867610033,0.999999999999054,0.0911379144776114
3999.99999999746,0.143387566942082,0.999999999998502,0.0954322072137367
4099.99999999738,0.149105210199359,0.999999999999925,0.0996660453033901
4199.99999999775,0.154740484189756,0.999999999997898,0.104082284307183
4299.99999999811,0.160706303260866,0.999999999999288,0.108683686988822
4399.99999999848,0.167036766759153,0.999999999999496,0.113324906817594
4499.99999999884,0.173328991990958,0.999999999998217,0.118320970703979
4599.9999999992,0.179001707356742,0.999999999999787,0.123321242075236
4699.99999999957,0.184825202665513,0.999999999998273,0.128510057440615
4799.99999999993,0.191107844555813,0.999999999999174,0.134040133647592
4900.00000000029,0.197515459955432,0.999999999999886,0.139656746300761
5000.00000000066,0.203626243976947,0.999999999998203,0.145682070851593
5100.00000000102,0.209224023729326,0.999999999999884,0.151862093946728
5200.00000000139,0.215385450608785,0.999999999999298,0.158298735941404
5300.00000000175,0.221749980013236,0.999999999999892,0.165274969182741
5400.00000000211,0.227989987342234,1.00000000000151,0.172408843247997
5500.00000000248,0.234161010933619,1.00000000000049,0.180012465821247
5600.00000000284,0.239563856291744,1.00000000000311,0.187928376031405
5700.00000000321,0.246749832304409,1.00000000000478,0.196100580868359
5800.00000000357,0.253520036553814,1.00000000000665,0.204832329881167
5900.00000000393,0.260084174382459,1.00000000001102,0.21359707754522
6000.0000000043,0.269225408404161,1.00000000001304,0.222615918462878
6100.00000000466,0.276595492173432,1.00000000001848,0.231839050179289
6200.00000000502,0.289752109399084,1.00000000002474,0.241018581853702
6300.00000000539,0.304946004901261,1.00000000002855,0.250467820044348
6400.00000000575,0.321423311433236,1.00000000003757,0.259654190708179
6500.00000000612,0.350832258196215,1.00000000004281,0.268758419629379
6600.00000000648,0.382008892644692,1.00000000005075,0.277951346537675
6700.00000000684,0.429352455598434,1.00000000005983,0.28681226771026
6800.00000000721,0.493981259333188,1.0000000000679,0.295697148147173
6900.00000000757,0.569034017335396,1.00000000007542,0.304317483584235
7000.00000000793,0.680616327483095,1.00000000008325,0.312642356000702
7100.0000000083,0.813140503432235,1.0000000000915,0.321102207676705
7200.00000000866,0.982598324209195,1.00000000010054,0.32912622268206
7300.00000000903,1.20435176859076,1.00000000010955,0.33704430731674
7400.00000000939,1.46054407668884,1.00000000012136,0.344817663455636
7500.00000000975,1.78970844775107,1.0000000001311,0.352239396011659
7600.00000001012,2.18036623660627,1.00000000014107,0.359772060398419
7700.00000001048,2.63959079169524,1.0000000001472,0.366933081763252
7800.00000001084,3.20167346668108,1.00000000015449,0.373839814601629
7900.00000001121,3.83843470156836,1.00000000016253,0.380786334493192
8000.00000001157,4.59070514049674,1.00000000017328,0.387270270610938
8100.00000001194,5.461073925043,1.00000000018037,0.393818267230654
8200.0000000123,6.43868135445865,1.00000000018467,0.400128587333345
8300.00000001266,7.57284863776097,1.00000000019327,0.406034693533542
8400.00000001303,8.83290157743199,1.00000000020364,0.412123927846575
8500.00000001339,10.2485181024711,1.00000000020737,0.417770239866136
8600.00000001376,11.8417953939554,1.00000000021803,0.423282533840316
8700.00000001412,13.5823597172147,1.0000000002224,0.428723941037025
8800.00000001448,15.5236664802235,1.00000000023115,0.433774192956318
8900.00000001485,17.6437887417412,1.00000000023952,0.43899217869334
9000.00000001521,19.9505726823852,1.00000000023341,0.443874539588117
9100.00000001557,22.4838681776221,1.00000000023943,0.448492419839686
9200.00000001594,25.200511002299,1.00000000025309,0.453160381316301
9300.0000000163,28.1450741136517,1.00000000025066,0.457449496014483
9400.00000001667,31.313054363895,1.00000000025823,0.461812176210975
9500.00000001703,34.6868099828327,1.00000000025527,0.466013898585417
9600.00000001739,38.3155724625516,1.00000000026437,0.46976180335145
9700.00000001776,42.1554760848995,1.0000000002684,0.47381998850033
9800.00000001812,46.231923160778,1.00000000026671,0.477399048467871
9900.00000001848,50.5599579926183,1.0000000002718,0.48094961253585
10000.0000000188,55.1007474388717,1.00000000028333,0.484451317299572
10100.0000000192,59.9023147219527,1.0000000002793,0.487568875532318
10200.0000000196,64.9309246040693,1.0000000002771,0.491001840250849
10300.0000000199,70.1882708834935,1.00000000027581,0.493968429881701
10400.0000000203,75.7048171318593,1.00000000028376,0.496743563855162
10500.0000000207,81.4309545937472,1.00000000029194,0.499715492598085
10600.000000021,87.4022669332248,1.00000000030413,0.502175696107818
10700.0000000214,93.603054349882,1.00000000029138,0.505005235131969
10800.0000000218,100.012741089118,1.00000000028409,0.507525439262532
10900.0000000221,106.668425595098,1.00000000028585,0.509665552383993
11000.0000000225,113.521315281273,1.00000000030091,0.512182175095192
11100.0000000229,120.589050928764,1.00000000029695,0.514191141398353
11200.0000000232,127.874159658947,1.00000000029716,0.516262273037133
11300.0000000236,135.339734198092,1.00000000028526,0.518554183943918
11400.0000000239,143.021581300131,1.00000000028918,0.52002122136774
11500.0000000243,150.880267445708,1.00000000029672,0.522146581174776
11600.0000000247,158.914043537096,1.00000000029069,0.523852316412325
11700.000000025,167.140318198769,1.00000000029727,0.525175969836645
11800.0000000254,175.513638326693,1.00000000029592,0.527158914901283
11900.0000000258,184.062213731955,1.00000000030221,0.528331649264374
12000.0000000261,192.760748701759,1.00000000029443,0.529767664289531
12100.0000000265,201.59038117003,1.00000000029174,0.531462409346566
12200.0000000269,210.578175004564,1.00000000029495,0.532148616339023
12300.0000000272,219.677784883879,1.00000000029205,0.533569430772554
12400.0000000276,228.903640015548,1.00000000029721,0.534837691385773
12500.0000000279,238.248677980175,1.00000000029717,0.535512300128818
12600.0000000283,247.681319844302,1.00000000029686,0.536800749325549
12700.0000000287,257.229388139481,1.00000000029023,0.537686232735064
12800.000000029,266.855350469566,1.00000000028787,0.538449193426524
12900.0000000294,276.557799089256,1.00000000028785,0.539498182789585
13000.0000000298,286.344871854109,1.00000000028845,0.539882546668189
13100.0000000301,296.179255236079,1.0000000002821,0.540769165814476
13200.0000000305,306.082283711832,1.00000000029276,0.541398397246451
13300.0000000309,316.030251845296,1.00000000028788,0.541930704345796
13400.0000000312,326.008839038776,1.00000000029021,0.542496344719773
13500.0000000316,336.033490020635,1.00000000027522,0.542891117431729
13600.0000000319,346.069053168961,1.00000000027823,0.543483863857727
13700.0000000323,356.129256945793,1.00000000027148,0.544044551696217
13800.0000000327,366.201375123492,1.00000000027622,0.544162515099374
13900.000000033,376.262815848485,1.00000000027542,0.544644956746475
14000.0000000334,386.333050602545,1.00000000027639,0.544819320343109
14100.0000000338,396.382065651357,1.00000000026896,0.545119198808956
14200.0000000341,406.412469114675,1.0000000002756,0.545468912492839
14300.0000000345,416.424738775646,1.0000000002664,0.545395935831117
14400.0000000349,426.391930014778,1.00000000026911,0.545502908344559
14500.0000000352,436.331122835723,1.00000000026663,0.545960118374668
14600.0000000356,446.221390759739,1.00000000027375,0.546018964169852
14700.0000000359,456.057043981015,1.00000000026054,0.54611467384548
14800.0000000363,465.84340001711,1.00000000026171,0.54592488907361
14900.0000000367,475.558105043495,1.00000000026357,0.546056261708297
15000.000000037,485.211552161049,1.00000000025348,0.546102764197402
15100.0000000374,494.791687162741,1.00000000026081,0.546158794687767
15200.0000000378,504.287761800346,1.00000000025871,0.546223681562706
15300.0000000381,513.708966420619,1.00000000025329,0.545985152632628
15400.0000000385,523.034533408762,1.00000000024736,0.545987225531166
15500.0000000389,532.27255260613,1.00000000025176,0.545745090719777
15600.0000000392,541.416921387854,1.00000000024607,0.545689712683715
15700.0000000396,550.451266708693,1.00000000024633,0.545810463382922
15800.0000000399,559.390007387371,1.00000000024864,0.5457551412952
15900.0000000403,568.215408650092,1.00000000023863,0.545403238357229
16000.0000000407,576.928764197811,1.00000000024633,0.545134694100517
16100.000000041,585.532343011981,1.00000000023436,0.545031223407737
16200.0000000414,594.009464673709,1.00000000023929,0.545000948880074
16300.0000000418,602.371346329933,1.00000000023488,0.544944660824054
16400.0000000418,610.606269641633,1.00000000023521,0.544686764939832
16500.0000000404,618.71497587568,1.00000000023943,0.544896233066889
16600.0000000389,626.698496084499,1.00000000022918,0.544133577026366
16700.0000000375,634.545411913066,1.00000000023597,0.544202732723353
16800.000000036,642.263097767087,1.00000000023442,0.543671504774404
16900.0000000346,649.8471800635,1.00000000022954,0.543832192707127
17000.0000000331,657.289185104785,1.00000000022946,0.543257914742306
17100.0000000317,664.598619210224,1.00000000023496,0.543287834148153
17200.0000000302,671.761780141652,1.00000000022004,0.542886721692523
17300.0000000287,678.786762411521,1.00000000022451,0.54263319438328
17400.0000000273,685.669138514373,1.00000000022618,0.541945279391217
17500.0000000258,692.402020577212,1.00000000021869,0.541901392862383
17600.0000000244,698.993524866608,1.00000000021303,0.541662165942651
17700.0000000229,705.435708896468,1.00000000022018,0.5413291949936
17800.0000000215,711.730599812197,1.00000000021521,0.54119787788946
17900.00000002,717.880068497341,1.00000000020757,0.540822670433891
18000.0000000186,723.875232939034,1.00000000021051,0.540663038573196
18100.0000000171,729.725089207702,1.00000000020432,0.540050389545629
18200.0000000156,735.422901746439,1.00000000021178,0.539533479872188
18300.0000000142,740.969954549697,1.00000000020941,0.539383811858838
18400.0000000127,746.369767194003,1.00000000020696,0.539175746779198
18500.0000000113,751.615286834372,1.00000000020468,0.539273771911483
18600.0000000098,756.713240887044,1.00000000020451,0.538776205544129
18700.0000000084,761.660311376828,1.00000000020157,0.538435833074155
18800.0000000069,766.455441658053,1.00000000019214,0.537764275579925
18900.0000000055,771.103855034395,1.00000000019242,0.537327546084761
19000.000000004,775.600061982469,1.00000000019755,0.536841771231445
19100.0000000026,779.948903251867,1.0000000001923,0.537013318600686
19200.0000000011,784.151345187428,1.00000000019474,0.537134074115961
19299.9999999996,788.203803938498,1.00000000018923,0.537252246492509
19399.9999999982,792.11342329034,1.000000000186,0.536860362858583
19499.9999999967,795.874442801282,1.00000000018593,0.535737580570229
19599.9999999953,799.490833814995,1.00000000018552,0.534974699804607
19699.9999999938,802.964097719539,1.00000000018371,0.533911617852851
19799.9999999924,806.290661303051,1.00000000018585,0.534061417538699
19899.9999999909,809.478023180622,1.00000000018214,0.534719834326857
19999.9999999895,812.523568772796,1.00000000018486,0.53567874337546
20099.999999988,815.43177355732,1.00000000017849,0.536429366267361
20199.9999999865,818.206074443811,1.00000000017577,0.535817644362257
20299.9999999851,820.842600017258,1.00000000017913,0.534516141255635
20399.9999999836,823.345633722597,1.00000000017265,0.532177667726023
20499.9999999822,825.711620550871,1.00000000016973,0.530225370334548
20599.9999999807,827.941043985905,1.00000000016895,0.529794257671149
20699.9999999793,830.037745954713,1.00000000017063,0.530926963883094
20799.9999999778,832.001554384279,1.00000000017475,0.533802380336442
20899.9999999764,833.841818940464,1.00000000017399,0.536349088394512
20999.9999999749,835.562404129932,1.00000000017367,0.537851568719235
21099.9999999734,837.165868449721,1.00000000017499,0.536779769200391
21199.999999972,838.65412869405,1.00000000016381,0.533381918164891
21299.9999999705,840.020909617317,1.00000000015945,0.528841481847821
21399.9999999691,841.264025032263,1.00000000015617,0.52475485811163
21499.9999999676,842.380357275637,1.00000000015487,0.523479114983915
21599.9999999662,843.370085224321,1.00000000015256,0.526069595393469
21699.9999999647,844.242420512398,1.00000000015755,0.531378398890896
21799.9999999633,845.006539727719,1.00000000016603,0.537411141528889
21899.9999999618,845.674305212754,1.00000000017218,0.541245061325102
21999.9999999603,846.255341373202,1.00000000017538,0.541830533831388
22099.9999999589,846.748264386126,1.00000000017589,0.537833373194144
22199.9999999574,847.15062514599,1.00000000016283,0.530182396697265
22299.999999956,847.449815020151,1.00000000015168,0.521583332943777
22399.9999999545,847.636609477589,1.00000000014038,0.515367933185607
22499.9999999531,847.707127069842,1.00000000013787,0.514558534953666
22599.9999999516,847.663539975167,1.00000000014161,0.520263229497615
22699.9999999502,847.52141150007,1.00000000015015,0.529922331726729
22799.9999999487,847.297766985865,1.00000000016513,0.539768520715041
22899.9999999473,847.010395320439,1.00000000017494,0.546222516347804
22999.9999999458,846.671473468478,1.00000000018365,0.547322425537031
23099.9999999443,846.280897052135,1.00000000017998,0.542508205589826
23199.9999999429,845.831433207563,1.00000000016588,0.53192538768914
23299.9999999414,845.307023068262,1.00000000014734,0.518040575026777
23399.99999994,844.689407803643,1.00000000012547,0.50577049806332
23499.9999999385,843.969142761021,1.00000000011727,0.499863591171565
23599.9999999371,843.143309568319,1.00000000011762,0.503673436552003
23699.9999999356,842.226292250724,1.00000000013374,0.516195332521393
23799.9999999342,841.239531478027,1.00000000015833,0.531459777940394
23899.9999999327,840.205948773929,1.00000000017965,0.544339468265055
23999.9999999312,839.146715271915,1.00000000018792,0.551797804369568
24099.9999999298,838.070702879974,1.00000000019249,0.552376328935273
24199.9999999283,836.977503284111,1.00000000018933,0.545039076430323
24299.9999999269,835.854965107496,1.00000000017367,0.531141368250675
24399.9999999254,834.681739358974,1.00000000014785,0.512118076206191
24499.999999924,833.437516741183,1.00000000012161,0.493367160861271
24599.9999999225,832.103953044993,1.00000000010279,0.482151620058499
24699.9999999211,830.678824743541,1.00000000010073,0.483276266334319
24799.9999999196,829.172235914234,1.00000000011567,0.497618141566875
24899.9999999181,827.604680892759,1.00000000014318,0.518802311490363
24999.9999999167,826.004417037525,1.0000000001718,0.537897039597935
25099.9999999152,824.393334610123,1.00000000018908,0.551333061936534
25199.9999999138,822.789107910211,1.00000000020776,0.557870052882399
25299.9999999123,821.197728544571,1.00000000021668,0.555538692231644
25399.9999999109,819.612912707782,1.00000000020836,0.54636251688486
25499.9999999094,818.020711426903,1.00000000017953,0.528925172701063
25599.999999908,816.397881382605,1.00000000014421,0.505122579545222
25699.9999999065,814.720383861123,1.00000000011175,0.48116375714681
25799.9999999051,812.972176396889,1.00000000009263,0.464285559255391
25899.9999999036,811.144386049265,1.00000000008407,0.4614332855903
25999.9999999021,809.246712368005,1.00000000010202,0.47603701288201
26099.9999999007,807.298190228348,1.00000000013077,0.501457862082682
26199.9999998992,805.322420875431,1.00000000016509,0.526787006205298
26299.9999998978,803.34562680065,1.00000000020092,0.546104068682524
26399.9999998963,801.38465572321,1.00000000021552,0.55749670347003
26499.9999998949,799.451958966679,1.0000000002316,0.56123244897699
26599.9999998934,797.548870174148,1.00000000021926,0.557805699824683
26699.999999892,795.667466990053,1.00000000021926,0.547459725469286
26799.9999998905,793.793659092356,1.00000000018651,0.528336013860033
26899.999999889,791.90422757904,1.00000000015248,0.502002095528334
26999.9999998876,789.978703827427,1.00000000011755,0.473046257074844
27099.9999998861,787.999408270112,1.00000000008768,0.449625896915861
27199.9999998847,785.956424001725,1.00000000007486,0.440912302577277
27299.9999998832,783.856070041508,1.0000000000851,0.450977358185085
27399.9999998818,781.710442993602,1.00000000011132,0.476022403487924
27499.9999998803,779.540328329062,1.00000000014915,0.506465682218685
27599.9999998789,777.368271387909,1.00000000019314,0.532821221027259
27699.9999998774,775.211390023142,1.00000000020945,0.549270207559025
27799.9999998759,773.083866148135,1.00000000023893,0.559512585502006
27899.9999998745,770.992749295419,1.00000000023813,0.560317662785967
27999.999999873,768.937507975525,1.00000000024278,0.558532452636148
28099.9999998716,766.913443887442,1.00000000022794,0.548302031996517
28199.9999998701,764.905661145335,1.00000000020345,0.531283962890442
28299.9999998687,762.899921320127,1.00000000017203,0.506712058168399
28399.9999998672,760.876608124953,1.00000000012755,0.474842739923995
28499.9999998658,758.819231005147,1.00000000010477,0.446516861228308
28599.9999998643,756.719489155626,1.00000000007807,0.42678919392331
28699.9999998629,754.572754463008,1.00000000007463,0.42509538268794
