Time,AGPnorm,Energy,Entropy
0,0,1,-1.27135989370154e-17
99.9999999999986,3.25957806029089e-05,1.00000000000228,0.00133907208881783
199.999999999993,0.00281524157375137,1.00000000000114,0.00209163269590601
300,0.00700233099525035,1.00000000000069,0.00375794575147562
400.000000000022,0.009740527119997,1.00000000000256,0.00632322448763293
500.000000000045,0.0120961688719324,1.00000000000006,0.00847088171790197
600.000000000068,0.0171160071089707,1.00000000000199,0.0118269228775652
700.000000000091,0.0208607820247067,1.00000000000147,0.0150305572457714
800.000000000113,0.0267516148100267,1.00000000000048,0.0186016666371626
900.000000000136,0.0336560930685305,1.00000000000263,0.0227885933477778
1000.00000000016,0.0393899211849291,1.00000000000017,0.0267312890773213
1100.0000000001,0.0467097204071984,1.00000000000168,0.0314341474154413
1200,0.0543581331259615,1.00000000000182,0.0361588480730483
1299.99999999991,0.0627713301185285,1.00000000000035,0.0411495133239318
1399.99999999982,0.0717619331777915,1.00000000000257,0.0466581757292235
1499.99999999973,0.0801342890584544,1.00000000000034,0.0520502527613931
1599.99999999964,0.0895040055447446,1.00000000000136,0.0580425076411086
1699.99999999955,0.099946483857372,1.00000000000213,0.0642134643510634
1799.99999999946,0.110302248611007,1.00000000000026,0.0706320551120585
1899.99999999937,0.120525083280442,1.00000000000239,0.0775990734502174
1999.99999999928,0.13053902289724,1.00000000000063,0.084566034512506
2099.99999999919,0.141309667829438,1.00000000000111,0.0921742487037924
2199.99999999909,0.153119602573858,1.00000000000241,0.100178023591611
2299.999999999,0.164527628115352,1.00000000000016,0.108511323074617
2399.99999999891,0.175221285172525,1.00000000000214,0.117580795263141
2499.99999999882,0.186208857249027,1.00000000000107,0.126958381479958
2599.99999999873,0.197696219051441,1.00000000000111,0.137283837202258
2699.99999999864,0.209597206773244,1.00000000000307,0.148565004811784
2799.99999999855,0.220845330572867,1.0000000000017,0.160686805964464
2899.99999999846,0.231726296341876,1.00000000000616,0.174321493217225
2999.99999999837,0.242356644324456,1.00000000001201,0.189140750164405
3099.99999999828,0.254587644764716,1.00000000002515,0.205306904678505
3199.99999999819,0.266918769082508,1.0000000000471,0.222648306611169
3299.99999999809,0.27646269691899,1.00000000007778,0.240038554853473
3399.999999998,0.295803997580129,1.00000000011352,0.257935868788508
3499.99999999791,0.312302690307934,1.00000000015946,0.275484672295896
3599.99999999782,0.344454042708328,1.00000000020542,0.292816322563468
3699.99999999773,0.396336644782673,1.00000000025015,0.309872242372022
3799.99999999764,0.459185714843461,1.00000000031652,0.326061195462404
3899.99999999755,0.576815922834897,1.0000000003686,0.342045987621608
3999.99999999746,0.728806656434698,1.00000000042029,0.357469032854977
4099.99999999738,0.9483632140684,1.00000000048082,0.372257221823306
4199.99999999775,1.2578559224814,1.00000000052798,0.386580110821949
4299.99999999811,1.64334754959019,1.00000000058536,0.399991873198964
4399.99999999848,2.16386153991088,1.00000000064573,0.41303044856897
4499.99999999884,2.80402997309428,1.00000000068041,0.425428925587813
4599.9999999992,3.59297027668418,1.00000000069449,0.437217116152905
4699.99999999957,4.55792563205221,1.00000000075693,0.448399708138047
4799.99999999993,5.68373875960806,1.00000000079613,0.458768065823845
4900.00000000029,7.01748560679594,1.00000000082167,0.468944816855106
5000.00000000066,8.54549137703554,1.00000000087676,0.478219853758942
5100.00000000102,10.2871463448155,1.00000000088504,0.486980590692344
5200.00000000139,12.2546691627146,1.00000000092197,0.49524036034044
5300.00000000175,14.4332763195695,1.00000000091067,0.502986939024567
5400.00000000211,16.8522108584633,1.00000000096395,0.51022263474852
5500.00000000248,19.4870930395134,1.00000000094298,0.517216726986561
5600.00000000284,22.3538908427547,1.00000000095095,0.523324007349345
5700.00000000321,25.4441917729386,1.00000000095337,0.529446990034222
5800.00000000357,28.7393023980409,1.00000000095393,0.534774652221475
5900.00000000393,32.2615985349786,1.00000000099096,0.539676101413114
6000.0000000043,35.9686241426674,1.00000000096349,0.544624895475584
6100.00000000466,39.8767628216575,1.00000000095134,0.548687797948527
6200.00000000502,43.9675024414166,1.00000000100417,0.552991176771045
6300.00000000539,48.2108259684001,1.00000000100183,0.55670818612044
6400.00000000575,52.6335798236546,1.00000000101243,0.559856178719181
6500.00000000612,57.1796645633597,1.000000000952,0.563411669908147
6600.00000000648,61.8622680838493,1.0000000009893,0.565910168158724
6700.00000000684,66.6669892650353,1.00000000101426,0.568673530669689
6800.00000000721,71.5502260469266,1.00000000098486,0.571289161256972
6900.00000000757,76.5461638663252,1.00000000097276,0.573063980423684
7000.00000000793,81.5963182768704,1.00000000096841,0.575522042310638
7100.0000000083,86.7045208358764,1.00000000094557,0.577191596848311
7200.00000000866,91.869755929268,1.00000000094137,0.578717961272479
7300.00000000903,97.039585154462,1.00000000093365,0.58036770339833
7400.00000000939,102.24944830822,1.00000000097697,0.580971466013709
7500.00000000975,107.450873647856,1.00000000092082,0.58270576500912
7600.00000001012,112.63597540275,1.00000000095866,0.583535840239583
7700.00000001048,117.817639660034,1.00000000086065,0.584383930326756
7800.00000001084,122.941978208589,1.0000000009014,0.585282797949192
7900.00000001121,128.040372452878,1.00000000088093,0.585528498682251
8000.00000001157,133.079225917162,1.00000000090321,0.586151051819465
8100.00000001194,138.042277593684,1.00000000087301,0.586832785506734
8200.0000000123,142.950984195109,1.00000000088316,0.586538508370798
8300.00000001266,147.757711701718,1.00000000087207,0.587301819727891
8400.00000001303,152.485686274546,1.00000000084778,0.587342391436582
8500.00000001339,157.118650570887,1.00000000081864,0.587349922487872
8600.00000001376,161.632132559796,1.00000000082807,0.587808773032808
8700.00000001412,166.055488204651,1.00000000084065,0.586823502463684
8800.00000001448,170.345449158402,1.000000000817,0.587268352398141
8900.00000001485,174.52312085336,1.0000000008088,0.587199913471649
9000.00000001521,178.578274158403,1.00000000078453,0.586250470187343
9100.00000001557,182.490932307846,1.00000000076737,0.587394752887619
9200.00000001594,186.286261887604,1.00000000075457,0.585360567553676
9300.0000000163,189.933995862927,1.00000000072805,0.586836394839031
9400.00000001667,193.447244090239,1.00000000072908,0.585279002957733
9500.00000001703,196.825037508852,1.00000000071954,0.585218696524946
9600.00000001739,200.049229042537,1.00000000073405,0.585178842128006
9700.00000001776,203.142456803614,1.00000000071579,0.58420935065627
9800.00000001812,206.085832649045,1.00000000069649,0.584508208452129
9900.00000001848,208.882675369938,1.00000000071348,0.583590331963728
10000.0000000188,211.543397852237,1.00000000067877,0.583694433009515
10100.0000000192,214.047746542989,1.00000000065084,0.582800492154978
10200.0000000196,216.418921740878,1.00000000066234,0.583242375262298
10300.0000000199,218.645344037191,1.00000000066336,0.581898982814223
10400.0000000203,220.725767417538,1.00000000062821,0.582154223363524
10500.0000000207,222.676269679894,1.00000000066645,0.581923519143305
10600.000000021,224.478784389254,1.00000000063378,0.580147820910654
10700.0000000214,226.151482384262,1.00000000060646,0.581180772955907
10800.0000000218,227.69059665651,1.00000000062283,0.580767602090712
10900.0000000221,229.093054964726,1.00000000058161,0.578697396890698
11000.0000000225,230.371337675452,1.00000000057707,0.58008664055417
11100.0000000229,231.517862626905,1.00000000059633,0.580374215350304
11200.0000000232,232.54424700756,1.00000000057122,0.577562341770132
11300.0000000236,233.447746705747,1.00000000059539,0.578266280740595
11400.0000000239,234.230359266503,1.00000000056804,0.57954405137026
11500.0000000243,234.904970815829,1.00000000057026,0.578322101910659
11600.0000000247,235.461864319131,1.00000000056776,0.576548416081445
11700.000000025,235.912148977877,1.00000000053991,0.576537416814944
11800.0000000254,236.259002967746,1.00000000056258,0.579238845992698
11900.0000000258,236.506453073977,1.00000000054634,0.578188230922665
12000.0000000261,236.661765844808,1.00000000052594,0.571865172582472
12100.0000000265,236.71444757897,1.00000000052666,0.574574030159473
12200.0000000269,236.685394067393,1.00000000057092,0.580606875406894
12300.0000000272,236.582455817277,1.00000000053469,0.575185749017854
12400.0000000276,236.392933688091,1.00000000050375,0.567709381177416
12500.0000000279,236.122339387231,1.00000000050805,0.57081166068836
12600.0000000283,235.782394182861,1.0000000005659,0.580202305031447
12700.0000000287,235.389316786738,1.00000000054219,0.575035433075329
12800.000000029,234.93375384216,1.00000000049294,0.563757324555228
12900.0000000294,234.403270801177,1.00000000047116,0.561546228428107
13000.0000000298,233.818810211931,1.0000000005529,0.57773157307689
13100.0000000301,233.197864807045,1.00000000058716,0.578238749238147
13200.0000000305,232.537593764979,1.0000000005147,0.564171688181172
13300.0000000309,231.82008845329,1.00000000044919,0.551261330053994
13400.0000000312,231.045028744367,1.00000000054057,0.564941288356975
13500.0000000316,230.247110202543,1.00000000064177,0.582725852582044
13600.0000000319,229.431463496964,1.00000000059108,0.570541480359885
13700.0000000323,228.584873754634,1.00000000050243,0.552593465832302
13800.0000000327,227.688803807727,1.00000000044567,0.542609884218041
13900.000000033,226.753646132213,1.0000000005799,0.567944940637108
14000.0000000334,225.813722732347,1.00000000066829,0.582614889539663
14100.0000000338,224.870489946143,1.00000000061969,0.567035910529825
14200.0000000341,223.905422795261,1.00000000047575,0.544082228194054
14300.0000000345,222.901826617123,1.00000000043717,0.533796760994158
14400.0000000349,221.867172229905,1.00000000056299,0.558842210996746
14500.0000000352,220.833677670755,1.00000000066028,0.582915697767434
14600.0000000356,219.809626015331,1.00000000068349,0.571417717157
14700.0000000359,218.77832676003,1.00000000048446,0.540254574080551
14800.0000000363,217.721346513142,1.00000000045116,0.528305050252095
14900.0000000367,216.635108097289,1.0000000004823,0.535042280406337
15000.000000037,215.544740027531,1.00000000065437,0.572596053861365
15100.0000000374,214.467365012915,1.00000000073744,0.58224161594307
15200.0000000378,213.401150591666,1.00000000061741,0.552613541320066
15300.0000000381,212.328186223107,1.00000000049404,0.528496665283426
15400.0000000385,211.233429855692,1.00000000043039,0.521124831028223
15500.0000000389,210.123769608175,1.00000000051424,0.535078398018932
15600.0000000392,209.015034601867,1.00000000065906,0.569786197301976
15700.0000000396,207.922976404538,1.00000000075611,0.58048682963755
15800.0000000399,206.845249883839,1.00000000063355,0.547620239179145
15900.0000000403,205.765147386904,1.00000000050001,0.523842266064882
16000.0000000407,204.675244817846,1.00000000045043,0.518786228756093
16100.000000041,203.573704147897,1.00000000052708,0.527618738200335
16200.0000000414,202.471805247767,1.00000000061436,0.550627600756756
16300.0000000418,201.383642383771,1.00000000072362,0.573897969425248
16400.0000000418,200.311029546965,1.00000000067516,0.561794064724486
16500.0000000404,199.247621390383,1.00000000055105,0.529550310300234
16600.0000000389,198.183113137863,1.00000000048373,0.514380656616201
16700.0000000375,197.11346697004,1.00000000050266,0.52300683031656
16800.000000036,196.042733260474,1.00000000053115,0.52930462913455
16900.0000000346,194.97526525142,1.00000000061628,0.543633541980664
17000.0000000331,193.919582340169,1.00000000069629,0.562126334977856
17100.0000000317,192.878182515425,1.00000000071583,0.556155074941829
17200.0000000302,191.84567194538,1.00000000061692,0.528982631715643
17300.0000000287,190.817978365091,1.00000000052199,0.51407622033889
17400.0000000273,189.791126736718,1.0000000005202,0.521805766520826
17500.0000000258,188.767184481061,1.00000000053632,0.529117484494325
17600.0000000244,187.747355077068,1.00000000058539,0.531935214707182
17700.0000000229,186.734623536575,1.00000000061682,0.539627723144679
17800.0000000215,185.732854733715,1.00000000064896,0.548280238941039
17900.00000002,184.741544112841,1.00000000062563,0.542449981702568
18000.0000000186,183.758615288395,1.00000000059078,0.526317413969733
18100.0000000171,182.782695416274,1.00000000054192,0.518162234994267
18200.0000000156,181.812051859289,1.00000000050947,0.5228029121732
18300.0000000142,180.847801777575,1.00000000053282,0.531378978589422
18400.0000000127,179.889026284512,1.00000000056516,0.530471332490371
18500.0000000113,178.937620254124,1.00000000058042,0.528729266777079
18600.0000000098,177.994708997381,1.00000000060191,0.52994118752074
18700.0000000084,177.060392632563,1.00000000059406,0.536877435759048
18800.0000000069,176.135164307492,1.00000000061529,0.53757576054121
18900.0000000055,175.218407482865,1.00000000060075,0.528407789067043
19000.000000004,174.309735436513,1.00000000056567,0.525415629290219
19100.0000000026,173.409242329078,1.00000000051372,0.528736665611528
19200.0000000011,172.516197082292,1.0000000005333,0.533790669062578
19299.9999999996,171.631074789015,1.00000000055834,0.528274326042471
19399.9999999982,170.753221817488,1.000000000554,0.522482076796
19499.9999999967,169.883398887402,1.00000000054697,0.521289774799184
19599.9999999953,169.022291320342,1.00000000059089,0.526542601833048
19699.9999999938,168.169414715589,1.00000000059897,0.537223515302361
19799.9999999924,167.324936318635,1.00000000061103,0.539969238951558
19899.9999999909,166.488829282239,1.00000000059017,0.533751295913506
19999.9999999895,165.661129913556,1.0000000005724,0.532911617919997
20099.999999988,164.842247613222,1.00000000058377,0.537305206015573
20199.9999999865,164.032044078134,1.00000000054299,0.53447130619468
20299.9999999851,163.230918200245,1.00000000050499,0.524752322080349
20399.9999999836,162.438417870814,1.00000000052026,0.514974611203873
20499.9999999822,161.654760962472,1.00000000053446,0.516354896344326
20599.9999999807,160.879841648681,1.00000000059443,0.5230252721413
20699.9999999793,160.11307884791,1.00000000059652,0.529705703815031
20799.9999999778,159.35406879955,1.00000000059265,0.53966769410082
20899.9999999764,158.602616521521,1.00000000056773,0.542008904518393
20999.9999999749,157.858781217248,1.00000000058542,0.538160838804612
21099.9999999734,157.122542025768,1.00000000059078,0.540918237821177
21199.999999972,156.394120124526,1.00000000060785,0.542449405697846
21299.9999999705,155.674562271826,1.00000000055185,0.536100492884831
21399.9999999691,154.965180530394,1.00000000047261,0.519650288717799
21499.9999999676,154.267094726813,1.00000000047084,0.506467805826397
21599.9999999662,153.579440569156,1.0000000005273,0.507388381089397
21699.9999999647,152.900410965305,1.00000000056948,0.518321192998179
21799.9999999633,152.228616928561,1.00000000057992,0.523632240356371
21899.9999999618,151.563805030614,1.00000000060486,0.52761733330074
21999.9999999603,150.90556773052,1.00000000057993,0.536312840309074
22099.9999999589,150.253846851792,1.0000000005795,0.543879538060166
22199.9999999574,149.607923131044,1.00000000058844,0.543394640639541
22299.999999956,148.967430585955,1.00000000061146,0.54679546444512
22399.9999999545,148.332308936182,1.00000000062376,0.547797827735115
22499.9999999531,147.705014446608,1.00000000054799,0.53382837655889
22599.9999999516,147.088418534397,1.00000000048151,0.520579289100432
22699.9999999502,146.484750670002,1.00000000044551,0.505511274674994
22799.9999999487,145.894281380767,1.00000000048527,0.499509054541897
22899.9999999473,145.314117393659,1.00000000057518,0.503901801225981
22999.9999999458,144.741389683111,1.00000000060556,0.517204061954338
23099.9999999443,144.17386679405,1.0000000005868,0.520860997454232
23199.9999999429,143.61179425204,1.00000000059756,0.518917480680635
23299.9999999414,143.054920586018,1.00000000057071,0.53007998786476
23399.99999994,142.5022751959,1.00000000056176,0.54118291953059
23499.9999999385,141.953223861823,1.00000000060746,0.547302540749329
23599.9999999371,141.406966340293,1.00000000065006,0.547823377149962
23699.9999999356,140.86388204876,1.00000000064716,0.5464385899068
23799.9999999342,140.325391521738,1.00000000060385,0.542490757400087
23899.9999999327,139.794361674088,1.00000000053807,0.527222842999162
23999.9999999312,139.275413445954,1.00000000048481,0.510270695211255
24099.9999999298,138.770294550409,1.00000000046756,0.506726613287863
24199.9999999283,138.278132913241,1.00000000048969,0.500946455882365
24299.9999999269,137.797431359561,1.00000000051058,0.500137209351488
24399.9999999254,137.324199796169,1.00000000059825,0.507466120789927
24499.999999924,136.856024074807,1.00000000061323,0.515287865415753
24599.9999999225,136.391429957126,1.000000000619,0.517528582217521
24699.9999999211,135.930282211692,1.00000000060916,0.519132971118026
24799.9999999196,135.472190027241,1.00000000057301,0.52839698046404
24899.9999999181,135.015466324982,1.00000000060938,0.538752935906225
24999.9999999167,134.55926104317,1.00000000062035,0.546691651732875
25099.9999999152,134.103791104211,1.00000000063072,0.547694377248772
25199.9999999138,133.650220166828,1.00000000061195,0.542936478931045
25299.9999999123,133.200282012512,1.00000000059835,0.538371352450256
25399.9999999109,132.755833180667,1.00000000054525,0.532237539697278
25499.9999999094,132.319932320026,1.00000000054698,0.522209783925067
25599.999999908,131.895226131274,1.00000000050508,0.510799488034096
25699.9999999065,131.483185545739,1.00000000048645,0.50653307124732
25799.9999999051,131.083780385715,1.00000000051702,0.506651859209447
25899.9999999036,130.694948388124,1.00000000051676,0.50357008977769
25999.9999999021,130.31538387844,1.00000000054408,0.503286487485657
26099.9999999007,129.941703973124,1.0000000005925,0.511337403530797
26199.9999998992,129.57156238351,1.00000000058872,0.515328410415446
26299.9999998978,129.203764434621,1.00000000060749,0.522266886145879
26399.9999998963,128.836599280127,1.00000000060564,0.526253276164722
26499.9999998949,128.469556916308,1.00000000060924,0.53067554204809
26599.9999998934,128.101939296473,1.00000000064222,0.536878932801819
26699.999999892,127.733172729354,1.0000000006364,0.541124648485915
26799.9999998905,127.364593569238,1.00000000059701,0.542141698095736
26899.999999889,126.997694754389,1.00000000056317,0.538871483280214
26999.9999998876,126.633982121395,1.00000000059231,0.535331941631694
27099.9999998861,126.27449245511,1.00000000059691,0.535237986293756
27199.9999998847,125.920066878705,1.00000000054875,0.531296714166498
27299.9999998832,125.572376336276,1.00000000056666,0.527062182525087
27399.9999998818,125.232682544007,1.00000000053714,0.520677728548501
27499.9999998803,124.903580991989,1.00000000051448,0.511793223591225
27599.9999998789,124.586860135384,1.00000000049545,0.509282467944313
27699.9999998774,124.281545475629,1.00000000051377,0.508690831281489
27799.9999998759,123.986500181992,1.00000000053472,0.507771152020479
27899.9999998745,123.698885972248,1.00000000053909,0.511755540661777
27999.999999873,123.41718442049,1.00000000057733,0.515932892464571
28099.9999998716,123.137880000438,1.00000000059209,0.523726775853037
28199.9999998701,122.859251874985,1.00000000057749,0.527012268814973
28299.9999998687,122.580298806846,1.00000000062014,0.536806410925958
28399.9999998672,122.299655944492,1.00000000061229,0.536782543245388
28499.9999998658,122.017353541176,1.00000000059174,0.537257758635041
28599.9999998643,121.733791764663,1.00000000063854,0.539223236213462
28699.9999998629,121.448792347412,1.00000000059762,0.54112510114735
28799.9999998614,121.164053260621,1.00000000056121,0.541735376989613
28899.9999998599,120.881675649963,1.00000000055969,0.538533065777662
28999.9999998585,120.60304690788,1.00000000057753,0.536645371806517
