Time,AGPnorm,Energy,Entropy
0,0,1,9.47680340711911e-18
99.9999999999986,0.0169790010150091,1.00000000000036,0.0396147955103863
199.999999999993,0.0404631060985122,1.0000000000013,0.118037302253476
300,0.0705851144311471,1.00000000022921,0.260508265753316
400.000000000022,0.175648113584073,1.000000002572,0.444796719574659
500.000000000045,0.766597387088447,1.00000000528733,0.549817362678032
600.000000000068,2.12774997475221,1.0000000058464,0.596058226576138
700.000000000091,4.03723033375575,1.00000000572348,0.606441208111792
800.000000000113,5.94971481604864,1.00000000498654,0.606581797515443
900.000000000136,7.5921642750872,1.0000000046545,0.592258573689125
1000.00000000016,8.71989051964211,1.00000000394396,0.586407761196086
1100.0000000001,9.35904623957638,1.0000000036446,0.581023531884231
1200,9.56832592305037,1.00000000330384,0.5718319040981
1299.99999999991,9.47522561067674,1.00000000361314,0.568285120383004
1399.99999999982,9.1976511389436,1.00000000399826,0.581030101922436
1499.99999999973,8.82624212282854,1.0000000035049,0.525599791702365
1599.99999999964,8.45327012741802,1.00000000332822,0.49078999379353
1699.99999999955,8.05367608555538,1.00000000482246,0.570221027200648
1799.99999999946,7.68075608060704,1.00000000285709,0.471215015960418
1899.99999999937,7.30691697650699,1.00000000427742,0.55614206762567
1999.99999999928,6.97678150663478,1.00000000239809,0.456471773915015
2099.99999999919,6.66113943229023,1.00000000312249,0.523793785451037
2199.99999999909,6.3645776704972,1.00000000444203,0.552078787102944
2299.999999999,6.12408369223072,1.00000000266937,0.47109055790678
2399.99999999891,5.89220833827512,1.00000000387391,0.54444013038186
2499.99999999882,5.68162307370825,1.00000000389732,0.555661836971856
2599.99999999873,5.47708174741069,1.00000000386989,0.528254487092381
2699.99999999864,5.34094060578141,1.00000000313407,0.492433331783041
2799.99999999855,5.20791110752803,1.00000000425577,0.546484498607871
2899.99999999846,5.08334759651281,1.00000000375301,0.557950615139227
2999.99999999837,4.9540958871007,1.00000000374476,0.57938395471559
3099.99999999828,4.82496804979135,1.00000000403466,0.546482751804971
3199.99999999819,4.75258536001867,1.00000000279045,0.502854367531868
3299.99999999809,4.71624418321814,1.00000000427896,0.558011147720004
3399.999999998,4.67258292799462,1.00000000391491,0.555975445880447
3499.99999999791,4.62857197423358,1.00000000392185,0.5753336772898
3599.99999999782,4.57650576818439,1.00000000453448,0.593665795301855
3699.99999999773,4.5075904105537,1.00000000393855,0.610395985051287
3799.99999999764,4.43702856498852,1.00000000467836,0.591039192686561
3899.99999999755,4.37095885732832,1.00000000432215,0.5547595548507
3999.99999999746,4.36456654101787,1.00000000314614,0.52436732251054
4099.99999999738,4.40411004603349,1.00000000437146,0.561032027486821
4199.99999999775,4.43181500029764,1.00000000425748,0.572243775844906
4299.99999999811,4.45706948876269,1.0000000041999,0.588563256955135
4399.99999999848,4.47177074085306,1.00000000456645,0.622216698900853
4499.99999999884,4.48613366543864,1.00000000433224,0.613628827729175
4599.9999999992,4.4905045077948,1.0000000045262,0.652121872228887
4699.99999999957,4.48299168293747,1.00000000437596,0.64129168345745
4799.99999999993,4.46005834398634,1.00000000477544,0.641937015685868
4900.00000000029,4.42735478100887,1.00000000448775,0.654889880318005
5000.00000000066,4.39114766557191,1.00000000456929,0.664770441200893
5100.00000000102,4.35338236738993,1.00000000481729,0.638899479132369
5200.00000000139,4.32265694625942,1.00000000459724,0.601881437621719
5300.00000000175,4.33472277946317,1.00000000392997,0.569715628342265
5400.00000000211,4.41644169740667,1.00000000422586,0.577767199485606
5500.00000000248,4.50668265601056,1.00000000481683,0.598005405897634
5600.00000000284,4.59015827680375,1.00000000457406,0.61018420035986
5700.00000000321,4.6686486250018,1.00000000450744,0.622623436940991
5800.00000000357,4.7378877309184,1.00000000494884,0.635455493178301
5900.00000000393,4.79921274728648,1.00000000462607,0.651623036767009
6000.0000000043,4.84161497168237,1.0000000049925,0.676219110445473
6100.00000000466,4.87337440790996,1.00000000463423,0.678272174633482
6200.00000000502,4.90012799834176,1.0000000050182,0.674462032371883
6300.00000000539,4.92448690939435,1.00000000518348,0.670424668521912
6400.00000000575,4.95022005642436,1.00000000494715,0.677450033423755
6500.00000000612,4.96973123340241,1.00000000492479,0.671506584705802
6600.00000000648,4.97830048885773,1.0000000049847,0.6674473530986
6700.00000000684,4.99434765856288,1.00000000462752,0.667892405200927
6800.00000000721,5.00639361194765,1.00000000467976,0.682556355562908
6900.00000000757,5.00527259764287,1.00000000515347,0.694007428781946
7000.00000000793,5.00387548789796,1.00000000489901,0.668685266004937
7100.0000000083,5.00069405797777,1.00000000479565,0.679563761715697
7200.00000000866,4.98737228847207,1.00000000497877,0.684319802568055
7300.00000000903,4.96558274954952,1.00000000525303,0.690866532007859
7400.00000000939,4.9335812851156,1.00000000527977,0.678411702179471
7500.00000000975,4.90449581518813,1.00000000491384,0.673075366681605
7600.00000001012,4.87709627530644,1.00000000556935,0.693421321195856
7700.00000001048,4.85037464550078,1.00000000528381,0.695532701066297
7800.00000001084,4.82862485106655,1.00000000518952,0.658657214084114
7900.00000001121,4.8306815855255,1.00000000468302,0.619977131557752
8000.00000001157,4.88798091501264,1.00000000433868,0.599092018722244
8100.00000001194,5.00582308164578,1.00000000488782,0.605819720919047
8200.0000000123,5.1434531831289,1.00000000533137,0.619254216738743
8300.00000001266,5.27746348518623,1.00000000554163,0.625379745743892
8400.00000001303,5.40744985404072,1.00000000551324,0.62835865899979
8500.00000001339,5.53449824455782,1.00000000541912,0.623136315427369
8600.00000001376,5.65407937857993,1.00000000554048,0.632273000810879
8700.00000001412,5.77326848691586,1.00000000550595,0.651448673252436
8800.00000001448,5.87711696540076,1.00000000544544,0.677894448641645
8900.00000001485,5.97477717919699,1.00000000575478,0.687962116510171
9000.00000001521,6.07161636990431,1.00000000537033,0.687067534669598
9100.00000001557,6.15570750888981,1.00000000590136,0.684487553612424
9200.00000001594,6.2156802715445,1.00000000550582,0.697618582941679
9300.0000000163,6.27597787851718,1.00000000593379,0.696510649741787
9400.00000001667,6.34620230582249,1.00000000552938,0.705055355363946
9500.00000001703,6.40568745299279,1.00000000681017,0.717854792267189
9600.00000001739,6.4543335811229,1.00000000609111,0.731492263764595
9700.00000001776,6.4981060033145,1.00000000510633,0.703885124306717
9800.00000001812,6.55145421567003,1.0000000057238,0.71269305476743
9900.00000001848,6.58802330792721,1.00000000653225,0.710109968011474
10000.0000000188,6.62083503237465,1.00000000587102,0.699018084232746
10100.0000000192,6.65267986034919,1.00000000578135,0.711171147118302
10200.0000000196,6.68318597800166,1.00000000583886,0.716849470952485
10300.0000000199,6.72240142475729,1.00000000539924,0.714018438497715
10400.0000000203,6.77402925740612,1.00000000627323,0.710633129584292
10500.0000000207,6.83939496643874,1.00000000547479,0.716152346315825
10600.000000021,6.91464441551358,1.00000000558429,0.715292233891467
10700.0000000214,6.98228511195787,1.00000000631605,0.713025118224697
10800.0000000218,7.04542643052031,1.00000000621391,0.716997324646649
10900.0000000221,7.09490325807641,1.00000000596253,0.707551922961925
11000.0000000225,7.16252088865241,1.00000000659447,0.710903350471357
11100.0000000229,7.22647170953533,1.00000000657952,0.70425716491335
11200.0000000232,7.29887905498724,1.00000000537032,0.706827808094343
11300.0000000236,7.37356028333225,1.0000000063849,0.705003172773323
11400.0000000239,7.43359878544328,1.00000000610562,0.719184504405375
11500.0000000243,7.49897212968203,1.00000000565849,0.711598219487452
11600.0000000247,7.57128034481457,1.00000000593854,0.707757769852408
11700.000000025,7.65508305434483,1.00000000656795,0.713281972515492
11800.0000000254,7.73710565982538,1.00000000593523,0.702302660160623
11900.0000000258,7.81527367969268,1.00000000654622,0.721257590711225
12000.0000000261,7.89390226351503,1.00000000595922,0.719284964776329
12100.0000000265,7.96327267085232,1.00000000629413,0.703714981184197
12200.0000000269,8.03235191711641,1.00000000655927,0.716920853459006
12300.0000000272,8.09486106182938,1.00000000624559,0.726506813518855
12400.0000000276,8.16044824123724,1.0000000064755,0.716108804330543
12500.0000000279,8.2255484103089,1.00000000709633,0.719189217605317
12600.0000000283,8.303461534192,1.00000000624573,0.721244030991582
12700.0000000287,8.38283652590678,1.00000000711549,0.7279756808936
12800.000000029,8.45200204963465,1.00000000640892,0.723894016003197
12900.0000000294,8.52446235271982,1.00000000646492,0.715595013130437
13000.0000000298,8.59086024924692,1.00000000582411,0.718861542908035
13100.0000000301,8.66302868537601,1.0000000067037,0.717902015290119
13200.0000000305,8.73565099676608,1.00000000709395,0.732875777026281
13300.0000000309,8.80887934656973,1.0000000062163,0.721115937752497
13400.0000000312,8.88089658791966,1.00000000758543,0.720916947371045
13500.0000000316,8.95603546023214,1.00000000697908,0.729554378029688
13600.0000000319,9.01534007953377,1.00000000712855,0.725741460423858
13700.0000000323,9.07361190046049,1.00000000632981,0.718037147032253
13800.0000000327,9.13495024845919,1.0000000071082,0.728751763797628
13900.000000033,9.19210684048763,1.00000000709638,0.72588117642293
14000.0000000334,9.24764587389024,1.000000006882,0.717275159581922
14100.0000000338,9.30182893877748,1.00000000712028,0.719363159136987
14200.0000000341,9.34521785245261,1.00000000694838,0.70460083094882
14300.0000000345,9.38445565217308,1.00000000680343,0.697334868237662
14400.0000000349,9.41387126981564,1.00000000726599,0.710470773303085
14500.0000000352,9.43249681824311,1.00000000719036,0.718646012278952
14600.0000000356,9.44924628667123,1.00000000718176,0.731267258557662
14700.0000000359,9.46191019323563,1.00000000716195,0.724197724983186
14800.0000000363,9.47378940985455,1.00000000789583,0.738135895728369
14900.0000000367,9.47729122606513,1.00000000736446,0.737693639220393
15000.000000037,9.48609433192225,1.00000000672467,0.733782463561093
15100.0000000374,9.49750043743011,1.00000000784288,0.728984788385954
15200.0000000378,9.5130937735181,1.00000000696275,0.734526379514604
15300.0000000381,9.53318196256456,1.00000000754905,0.741644833776392
15400.0000000385,9.5536792112771,1.0000000078319,0.739166689544108
15500.0000000389,9.58494009183101,1.00000000699715,0.719096927206527
15600.0000000392,9.61732580521607,1.00000000743305,0.711940540313034
15700.0000000396,9.67330309680812,1.00000000741475,0.71052980266066
15800.0000000399,9.76223791614229,1.00000000727949,0.695342102623549
15900.0000000403,9.90598465147126,1.00000000691714,0.685235282616808
16000.0000000407,10.0978235371003,1.00000000679115,0.667568678545339
16100.000000041,10.367892305175,1.00000000632708,0.669522256043897
16200.0000000414,10.6865133139336,1.00000000728611,0.668680095972912
16300.0000000418,11.0667329496013,1.00000000736437,0.677837110364823
16400.0000000418,11.4540018861642,1.00000000780718,0.675692054314564
16500.0000000404,11.8632783440282,1.00000000822844,0.683633609824481
16600.0000000389,12.2531301705005,1.00000000793864,0.688022441414539
16700.0000000375,12.6535572471782,1.00000000835684,0.679945275508195
16800.000000036,13.048731614093,1.00000000841788,0.678380246491522
16900.0000000346,13.4471466556603,1.0000000074954,0.68342512006034
17000.0000000331,13.8522933778831,1.00000000797539,0.681530396331379
17100.0000000317,14.2573386398611,1.00000000773283,0.685606811896128
17200.0000000302,14.6716690522039,1.00000000757607,0.675002295519099
17300.0000000287,15.0940122782862,1.00000000788176,0.689859578961259
17400.0000000273,15.5390864096103,1.00000000745025,0.690247850212959
17500.0000000258,15.9822015946046,1.00000000761604,0.706314377646933
17600.0000000244,16.4255933266999,1.00000000801334,0.711690700975986
17700.0000000229,16.8655626183713,1.00000000791545,0.719844436935511
17800.0000000215,17.2962438871711,1.00000000723415,0.728480818661439
17900.00000002,17.7400095241516,1.00000000808014,0.728052648932694
18000.0000000186,18.1581763655993,1.00000000811742,0.729067868781739
18100.0000000171,18.5790802907168,1.00000000831036,0.732918970375897
18200.0000000156,18.9786541036443,1.00000000851198,0.745289143027258
18300.0000000142,19.3724600961287,1.00000000752086,0.734891478552384
18400.0000000127,19.7759009725293,1.0000000078045,0.741206940541059
18500.0000000113,20.1563522122481,1.00000000777613,0.745909829324038
18600.0000000098,20.5202821689989,1.00000000790226,0.748995691592358
18700.0000000084,20.8861399734023,1.00000000839542,0.749696496094022
18800.0000000069,21.2566320553533,1.00000000797372,0.734062021893275
18900.0000000055,21.6285002521346,1.00000000828735,0.737053739525693
19000.000000004,21.987815393785,1.00000000851647,0.742437362485193
19100.0000000026,22.3448884649125,1.00000000820325,0.74910380307456
19200.0000000011,22.6889522902595,1.00000000801664,0.760087251285165
19299.9999999996,23.0385316591785,1.0000000077923,0.751209709170512
19399.9999999982,23.4049259219412,1.00000000765563,0.744220606227511
19499.9999999967,23.8028313545407,1.00000000743238,0.749759831160812
19599.9999999953,24.2080069220212,1.00000000849232,0.749914124794829
19699.9999999938,24.5981204234082,1.00000000807781,0.7451489281182
19799.9999999924,24.9858318602846,1.00000000863618,0.742394481844981
19899.9999999909,25.3576296124156,1.00000000772027,0.750896416809452
19999.9999999895,25.7312672315011,1.00000000833188,0.753971365861037
20099.999999988,26.0956065856695,1.00000000766749,0.751940523699416
20199.9999999865,26.4702082648095,1.00000000853743,0.747230676940833
20299.9999999851,26.8523756268362,1.00000000772154,0.753895706337641
20399.9999999836,27.2326923505026,1.00000000806734,0.753466308211115
20499.9999999822,27.6314265906144,1.00000000776142,0.742282310397164
20599.9999999807,28.037578673479,1.00000000837487,0.746006733749848
20699.9999999793,28.4466607216595,1.00000000851931,0.733276412509908
20799.9999999778,28.8513309414314,1.00000000814107,0.738040463742235
20899.9999999764,29.2652457155056,1.00000000782562,0.73663529664743
20999.9999999749,29.6925206151514,1.00000000776405,0.755339586504316
21099.9999999734,30.1246164003635,1.00000000866538,0.764008338158455
21199.999999972,30.5540426718231,1.00000000869506,0.758083888309831
21299.9999999705,30.983162119838,1.00000000892906,0.748259540241358
21399.9999999691,31.4205767540867,1.00000000815238,0.749637178670907
21499.9999999676,31.8663470268461,1.00000000935202,0.752304591368948
21599.9999999662,32.3172535973493,1.0000000081669,0.751385467986226
21699.9999999647,32.7711092370595,1.0000000088751,0.7542231646533
21799.9999999633,33.2290300751599,1.00000000913757,0.755211696277428
21899.9999999618,33.6763747383875,1.0000000095201,0.752601785758149
21999.9999999603,34.1211579750443,1.00000000868043,0.74821872416615
22099.9999999589,34.5685007337073,1.00000000882819,0.743914667545765
22199.9999999574,35.0414511698035,1.00000000939095,0.75680486266766
22299.999999956,35.5210136252302,1.0000000090413,0.756448950603734
22399.9999999545,35.9893238267529,1.00000000941015,0.757458893538391
22499.9999999531,36.4557858688642,1.00000000932659,0.74383081322965
22599.9999999516,36.942334353021,1.00000000897766,0.74980522604541
22699.9999999502,37.4485304661164,1.0000000093397,0.747056915209543
22799.9999999487,37.9660545878202,1.00000000936875,0.748483032431027
22899.9999999473,38.4737026911009,1.00000000926461,0.761011005786564
22999.9999999458,38.9549075871577,1.00000000952863,0.762744770772723
23099.9999999443,39.4268561669903,1.0000000093147,0.767204273991671
23199.9999999429,39.9170183015128,1.00000000926809,0.754708571645152
23299.9999999414,40.4382781162458,1.00000000958158,0.751147556470839
23399.99999994,40.9808510953078,1.00000000954195,0.748079570730327
23499.9999999385,41.5543745923714,1.00000000862631,0.754246232974167
23599.9999999371,42.1503609188534,1.00000001007445,0.75790576489665
23699.9999999356,42.7488199150942,1.00000000918677,0.765467701162989
23799.9999999342,43.3447185719656,1.00000000974139,0.761356320667937
23899.9999999327,43.9291059238587,1.00000000917882,0.753092467932444
23999.9999999312,44.5070963724275,1.00000001007867,0.754106572731871
24099.9999999298,45.0671863620923,1.00000000963925,0.763549687337116
24199.9999999283,45.6157101050855,1.00000000885527,0.75821411963946
24299.9999999269,46.1787309459629,1.0000000096738,0.761601904973556
24399.9999999254,46.760608379548,1.00000001007758,0.750500277625778
24499.999999924,47.361995598385,1.00000001047018,0.750674578868618
24599.9999999225,47.9895091753186,1.00000000988579,0.752022481750747
24699.9999999211,48.6263916805001,1.00000000931169,0.751614122537476
24799.9999999196,49.2560711556866,1.00000001128079,0.751352464571603
24899.9999999181,49.8814877117513,1.00000001004058,0.755116200917745
24999.9999999167,50.5020328953895,1.00000001041577,0.759224557509529
25099.9999999152,51.11710038055,1.00000000970605,0.763054600225591
25199.9999999138,51.7466623497437,1.00000001046503,0.74856432678719
25299.9999999123,52.3832101738938,1.000000011045,0.755388442352596
25399.9999999109,53.0149745064474,1.00000000956077,0.761231434745038
25499.9999999094,53.6572160243625,1.00000000991075,0.755541513109853
25599.999999908,54.2969258130965,1.00000001143894,0.757831909708451
25699.9999999065,54.9404032203238,1.00000001041522,0.761230637655104
25799.9999999051,55.5900797433389,1.00000001009618,0.762734913379976
25899.9999999036,56.2430343647484,1.00000000987872,0.762836485615378
25999.9999999021,56.8987562394095,1.00000001043959,0.761978773044654
26099.9999999007,57.5615466779633,1.00000001088788,0.7634130486785
26199.9999998992,58.2367291863345,1.00000001001786,0.768286934999067
26299.9999998978,58.9191522942395,1.00000000969553,0.764396822874023
26399.9999998963,59.6041831986959,1.00000001056568,0.760423492485405
26499.9999998949,60.2897628334381,1.00000001011313,0.767029342900425
26599.9999998934,60.9848622062385,1.00000000958669,0.762135014634817
26699.999999892,61.6991398907059,1.00000001097736,0.763141460844582
26799.9999998905,62.4313157434474,1.00000001036531,0.769772607403294
26899.999999889,63.1689296221809,1.00000001051809,0.772519450989537
26999.9999998876,63.9066785060768,1.00000001039962,0.768346698497529
27099.9999998861,64.6363379373032,1.00000001073154,0.770820009595086
27199.9999998847,65.3666126699144,1.00000001077561,0.766101080894495
27299.9999998832,66.1035089266627,1.00000001127535,0.767069809590446
27399.9999998818,66.8518954818221,1.00000001079136,0.77022713201469
27499.9999998803,67.6001278911023,1.00000001051505,0.774326025916664
27599.9999998789,68.3470128804726,1.00000001118732,0.766797170825783
27699.9999998774,69.0943362684491,1.00000001188481,0.766719859994916
27799.9999998759,69.8527138580984,1.0000000120676,0.770923248273974
27899.9999998745,70.6230919045876,1.00000001120108,0.770695052253419
27999.999999873,71.3921015994918,1.00000001066447,0.767119664498725
28099.9999998716,72.1707084004571,1.00000001123505,0.769602740108645
28199.9999998701,72.9618093026074,1.00000001170417,0.764451713242504
28299.9999998687,73.7670176067359,1.00000001026952,0.768528050009475
28399.9999998672,74.5781637241233,1.00000001069684,0.767370861808886
28499.9999998658,75.3997137541967,1.00000001110126,0.76460604633294
28599.9999998643,76.2412313014371,1.00000001117527,0.766905469012875
28699.9999998629,77.081415265108,1.00000001125969,0.769800658041595
28799.9999998614,77.9205241459698,1.00000001141117,0.770641552743051
28899.9999998599,78.7545432244137,1.00000001181497,0.771007868094137
28999.9999998585,79.6005506724671,1.00000001101942,0.762865594113338
29099.999999857,80.4503098958713,1.0000000117433,0.764481029834804
