Time,AGPnorm,Energy,Entropy
0,0,1,1.62840847277256e-18
99.9999999999986,0.0019644343032953,0.999999999999364,0.00726975796412175
199.999999999993,0.00595885582493667,1.00000000000021,0.0213315510138742
300,0.0125561366127092,0.999999999999336,0.0417396722264958
400.000000000022,0.0202415044193225,1.00000000000041,0.0665836270013308
500.000000000045,0.0292628986638256,0.999999999999325,0.0967435807539663
600.000000000068,0.0387824687778643,1.00000000000121,0.132619224272216
700.000000000091,0.0484829642047414,1.00000000000454,0.176445418924624
800.000000000113,0.0619259958436887,1.00000000002891,0.230200073947871
900.000000000136,0.082237119826542,1.00000000010378,0.293332369893745
1000.00000000016,0.16940673652019,1.00000000023144,0.358466372306654
1100.0000000001,0.417838869135185,1.00000000040363,0.416630869910331
1200,1.04890720988539,1.000000000577,0.462330011139709
1299.99999999991,2.25188082052323,1.00000000066824,0.496097309654961
1399.99999999982,4.22656366867664,1.00000000076932,0.518488340416995
1499.99999999973,7.03020301294841,1.00000000085013,0.532929444791983
1599.99999999964,10.6757659540276,1.00000000083343,0.540845453515166
1699.99999999955,15.0309449090272,1.00000000086003,0.54375814611408
1799.99999999946,19.9712710357449,1.0000000008604,0.543231576387219
1899.99999999937,25.2679952245347,1.00000000081003,0.541314517359752
1999.99999999928,30.7670537931365,1.00000000080898,0.53515101090072
2099.99999999919,36.2390085344808,1.00000000078213,0.531328989112131
2199.99999999909,41.5607634749677,1.00000000075219,0.521994655216177
2299.999999999,46.5607781394345,1.00000000074519,0.517562596252557
2399.99999999891,51.1696838193764,1.00000000067605,0.512054847645799
2499.99999999882,55.283046435964,1.00000000063977,0.496883209200391
2599.99999999873,58.8715922513213,1.00000000064315,0.498683725278462
2699.99999999864,61.9269012296952,1.00000000059401,0.503205584274478
2799.99999999855,64.4199759484095,1.00000000056171,0.476501521295511
2899.99999999846,66.3278819079303,1.00000000051566,0.462520902840824
2999.99999999837,67.7295981499865,1.00000000051873,0.500084223342602
3099.99999999828,68.763742190562,1.00000000052137,0.507763698520594
3199.99999999819,69.3611617864434,1.00000000042626,0.447066623417262
3299.99999999809,69.4340256487259,1.000000000352,0.413495636805752
3399.999999998,69.1390812608723,1.00000000047893,0.484823211682145
3499.99999999791,68.7486410864224,1.00000000061264,0.539656164801008
3599.99999999782,68.316854591554,1.00000000056756,0.508077903734157
3699.99999999773,67.6480209103462,1.0000000003132,0.393536654246471
3799.99999999764,66.6267492774221,1.00000000019948,0.342276339737053
3899.99999999755,65.4139186649381,1.00000000042465,0.442020824088576
3999.99999999746,64.2386280011982,1.00000000069463,0.528732267673648
4099.99999999738,63.2127460745837,1.00000000077785,0.55519501100102
4199.99999999775,62.2982764787668,1.00000000059907,0.513776975607879
4299.99999999811,61.3275577343102,1.00000000035486,0.390843940391347
4399.99999999848,60.1858314803393,1.00000000015285,0.274952758776558
4499.99999999884,58.9460615153051,1.00000000022687,0.312173695226576
4599.9999999992,57.7082303102146,1.00000000046885,0.437366391697337
4699.99999999957,56.5184193468997,1.00000000063473,0.502153580021277
4799.99999999993,55.4172919477636,1.00000000074167,0.519096438213575
4900.00000000029,54.4351229125218,1.00000000074276,0.54122577205072
5000.00000000066,53.5452255990234,1.00000000061993,0.531288113532832
5100.00000000102,52.6675923013053,1.00000000043885,0.447187833413957
5200.00000000139,51.7436317229528,1.00000000025046,0.322553761146747
5300.00000000175,50.8082148997105,1.00000000017332,0.246934131064094
5400.00000000211,49.9415727066742,1.00000000021265,0.280514268267223
5500.00000000248,49.1538370870852,1.00000000041258,0.378883009295685
5600.00000000284,48.3824940046427,1.00000000058242,0.482463973400946
5700.00000000321,47.5959620286457,1.00000000056576,0.524546755649754
5800.00000000357,46.8100782936246,1.00000000049285,0.488154865450295
5900.00000000393,46.037282134147,1.00000000047459,0.44845969042705
6000.0000000043,45.2782687131461,1.00000000065356,0.484912250927251
6100.00000000466,44.5448385748586,1.00000000077916,0.544643818106891
6200.00000000502,43.8550630219501,1.00000000072481,0.558538758235889
6300.00000000539,43.1978020088118,1.00000000057137,0.518398634599773
6400.00000000575,42.5481206249729,1.00000000036077,0.428249837161367
6500.00000000612,41.924418893348,1.00000000017771,0.318049446516098
6600.00000000648,41.4032233022994,1.00000000012932,0.243826000192579
6700.00000000684,41.0482125070516,1.00000000022192,0.248148832120831
6800.00000000721,40.8584244061124,1.00000000031823,0.31116286387169
6900.00000000757,40.7662722741966,1.00000000042467,0.394256314021001
7000.00000000793,40.666257308508,1.00000000057492,0.463973083481317
7100.0000000083,40.4743662425865,1.00000000067927,0.499280312820492
7200.00000000866,40.1684871969041,1.00000000066943,0.51793710465947
7300.00000000903,39.7807283845596,1.00000000062236,0.537571114588105
7400.00000000939,39.3612684370374,1.00000000049119,0.524634906559818
7500.00000000975,38.9572576204882,1.00000000034554,0.467206905512342
7600.00000001012,38.5915252154721,1.00000000032198,0.431260458945734
7700.00000001048,38.2426749375308,1.0000000004375,0.449330130692828
7800.00000001084,37.8709227773353,1.00000000056292,0.481811829578545
7900.00000001121,37.4624101055918,1.00000000061457,0.495228783327356
8000.00000001157,37.0258205518921,1.00000000063712,0.502165404683512
8100.00000001194,36.5770120447169,1.00000000073757,0.53013747450664
8200.0000000123,36.1364300451747,1.000000000746,0.557843054996409
8300.00000001266,35.71477518278,1.00000000064171,0.557986340035658
8400.00000001303,35.3042161731539,1.00000000052626,0.524599582684739
8500.00000001339,34.8978759476898,1.00000000034392,0.45864164091238
8600.00000001376,34.5195983600459,1.0000000002162,0.3758232419707
8700.00000001412,34.23242202258,1.0000000001342,0.302255673151067
8800.00000001448,34.1129262510487,1.00000000013925,0.252509998013776
8900.00000001485,34.2118709545126,1.00000000017688,0.243753611840985
9000.00000001521,34.5399174353577,1.00000000022537,0.273809795682172
9100.00000001557,35.0498327995827,1.00000000033534,0.325654844625929
9200.00000001594,35.6358369375319,1.00000000048007,0.39016780858201
9300.0000000163,36.1919707615545,1.00000000054642,0.447422411779975
9400.00000001667,36.6519207231716,1.00000000058316,0.488270353100257
9500.00000001703,36.980776488029,1.00000000061825,0.517308497970048
9600.00000001739,37.1766782376675,1.00000000061273,0.539045939232194
9700.00000001776,37.2619552635625,1.00000000055067,0.548661878616525
9800.00000001812,37.2734998158846,1.00000000049849,0.532044132325485
9900.00000001848,37.2440773508805,1.00000000044951,0.496222425107861
10000.0000000188,37.1814863786736,1.00000000047829,0.479951725327666
10100.0000000192,37.0666616559309,1.00000000057999,0.495264244811212
10200.0000000196,36.8932825994506,1.00000000059085,0.52104589290369
10300.0000000199,36.6855366501605,1.00000000054595,0.530274575860817
10400.0000000203,36.4738796538173,1.00000000043783,0.508754770496664
10500.0000000207,36.2785358645128,1.0000000004301,0.48091105867193
10600.000000021,36.1022988519201,1.00000000043214,0.464969463244736
10700.0000000214,35.9428947156077,1.0000000004339,0.463367709285553
10800.0000000218,35.7955609298255,1.00000000046148,0.471402919179581
10900.0000000221,35.6523554671672,1.00000000045149,0.482286064431539
11000.0000000225,35.5036740408312,1.00000000050019,0.500295194207526
11100.0000000229,35.339811861851,1.00000000050737,0.521153791531981
11200.0000000232,35.1584074756952,1.00000000047417,0.532481467850687
11300.0000000236,34.9678999407162,1.00000000041603,0.525868711546417
11400.0000000239,34.7780697182624,1.00000000038893,0.519488885713948
11500.0000000243,34.5860704884393,1.0000000004203,0.521229432543341
11600.0000000247,34.3812845613285,1.00000000049087,0.524738058314102
11700.000000025,34.1569724017769,1.00000000052469,0.52614832900486
11800.0000000254,33.9131081680783,1.00000000055736,0.525620475699985
11900.0000000258,33.6525790938417,1.00000000061786,0.531400527541532
12000.0000000261,33.3822584547699,1.00000000067106,0.539942076899307
12100.0000000265,33.1144049579015,1.00000000070403,0.545413814358566
12200.0000000269,32.8623166293212,1.00000000073344,0.555760202644767
12300.0000000272,32.6356678628431,1.0000000007316,0.564184123560587
12400.0000000276,32.4345128825877,1.00000000069433,0.567620061985223
12500.0000000279,32.2450986327866,1.00000000061754,0.557968418303466
12600.0000000283,32.0477963533721,1.00000000052233,0.531692640679924
12700.0000000287,31.8282128540894,1.00000000039808,0.492244181885969
12800.000000029,31.5896763224727,1.00000000028736,0.439834611941457
12900.0000000294,31.3583573725977,1.00000000020611,0.382103022186123
13000.0000000298,31.1815121970504,1.00000000015157,0.330812418309996
13100.0000000301,31.1168109536731,1.00000000013687,0.291491463109856
13200.0000000305,31.2226102234931,1.00000000012913,0.264479902279356
13300.0000000309,31.5486962910397,1.00000000011679,0.248615562565121
13400.0000000312,32.1213409060766,1.00000000018439,0.253899445118451
13500.0000000316,32.9259376951463,1.00000000024087,0.281098224808737
13600.0000000319,33.9273553192835,1.00000000030377,0.315679139100685
13700.0000000323,35.0658662180348,1.00000000040921,0.356500987284448
13800.0000000327,36.2526667537992,1.0000000004776,0.396001602383797
13900.000000033,37.4123440450324,1.00000000057131,0.4348691783028
14000.0000000334,38.494639129311,1.00000000056659,0.464706328591987
14100.0000000338,39.4702267957459,1.00000000059497,0.490866476932621
14200.0000000341,40.3188109768416,1.00000000062031,0.515530601877787
14300.0000000345,41.0360505557408,1.00000000059143,0.536878979520242
14400.0000000349,41.6293060319003,1.0000000005703,0.548386709788165
14500.0000000352,42.1157560944634,1.000000000548,0.543748960373293
14600.0000000356,42.516935479844,1.00000000048212,0.534341221119727
14700.0000000359,42.8431609302846,1.00000000049872,0.538684784687112
14800.0000000363,43.0960339924718,1.00000000053866,0.554107941042702
14900.0000000367,43.2779835464966,1.00000000052465,0.563010273603013
15000.000000037,43.3986353623261,1.00000000052767,0.563528811582332
15100.0000000374,43.4667391551747,1.00000000048896,0.547111129726555
15200.0000000378,43.4923777134515,1.00000000050702,0.530140408780393
15300.0000000381,43.4905972765574,1.00000000044587,0.517121568204039
15400.0000000385,43.4690102683475,1.00000000046202,0.516404206859614
15500.0000000389,43.4213571548223,1.00000000053021,0.529991710511599
15600.0000000392,43.3424790790839,1.00000000051926,0.535432070513932
15700.0000000396,43.2423006103586,1.00000000046934,0.538203037215211
15800.0000000399,43.1301149041157,1.00000000046151,0.541343457458794
15900.0000000403,43.0053681578921,1.00000000050635,0.542514371079474
16000.0000000407,42.8653840321592,1.00000000052342,0.541979012973646
16100.000000041,42.7134385986575,1.00000000047205,0.540188402142722
16200.0000000414,42.5574683629016,1.0000000004291,0.532663128403119
16300.0000000418,42.404628029601,1.00000000040591,0.518578156042795
16400.0000000418,42.2606456927794,1.00000000038522,0.513678735015366
16500.0000000404,42.1215404153949,1.00000000042353,0.51601909119943
16600.0000000389,41.978219475761,1.00000000048834,0.518174109436495
16700.0000000375,41.8237047455112,1.00000000051535,0.520177287538682
16800.000000036,41.6582625251366,1.00000000052251,0.524849895032951
16900.0000000346,41.4803965914526,1.0000000005662,0.53518497180148
17000.0000000331,41.2885786692025,1.00000000058567,0.547341374777539
17100.0000000317,41.086005417865,1.00000000055421,0.554149076080039
17200.0000000302,40.8794273487638,1.00000000051897,0.550345551259666
17300.0000000287,40.6752259461896,1.00000000043627,0.549925414891136
17400.0000000273,40.4812958649267,1.00000000042456,0.535113198976936
17500.0000000258,40.3088012276837,1.00000000035381,0.513532323673698
17600.0000000244,40.1651026071594,1.00000000032149,0.495567981258464
17700.0000000229,40.0495147388631,1.00000000037083,0.478650964999902
17800.0000000215,39.9537829975816,1.00000000044502,0.469556311801478
17900.00000002,39.8707375197294,1.00000000045144,0.474675061962184
18000.0000000186,39.7988782650564,1.00000000043227,0.483489850468203
18100.0000000171,39.7374449034927,1.00000000041254,0.486361001405793
18200.0000000156,39.6839800717074,1.0000000004459,0.496037112859707
18300.0000000142,39.6329328549421,1.00000000047464,0.511177244584662
18400.0000000127,39.5806779124179,1.00000000048215,0.521902699610094
18500.0000000113,39.5222067813078,1.00000000051265,0.528864235689043
18600.0000000098,39.4536583001518,1.00000000052244,0.527683646996956
18700.0000000084,39.3763809063933,1.00000000050714,0.525044892569629
18800.0000000069,39.2928605774151,1.0000000004894,0.526218356666083
18900.0000000055,39.2058967075012,1.00000000044808,0.531857512314942
19000.000000004,39.1129929907838,1.00000000049632,0.542103250570798
19100.0000000026,39.0133652616258,1.00000000049409,0.556953869616134
19200.0000000011,38.9093495863045,1.00000000047396,0.567092391999491
19299.9999999996,38.8029584111241,1.00000000047459,0.569346349618178
19399.9999999982,38.6929122583821,1.00000000049815,0.568273557647444
19499.9999999967,38.5752857994979,1.00000000051308,0.572790979076808
19599.9999999953,38.4475777917654,1.00000000053964,0.582741195873722
19699.9999999938,38.3091514437968,1.00000000051571,0.580309041892994
19799.9999999924,38.1660775731164,1.00000000050481,0.577710000255122
19899.9999999909,38.0255422660274,1.00000000042807,0.5757069251551
19999.9999999895,37.8914767367703,1.00000000041494,0.566167040938649
20099.999999988,37.7601998312592,1.00000000048692,0.561875673446229
20199.9999999865,37.6243752259227,1.00000000053436,0.559089010068437
20299.9999999851,37.4842375865613,1.00000000049761,0.543979333956102
20399.9999999836,37.3447051627968,1.00000000043121,0.533995888125133
20499.9999999822,37.2103886839565,1.00000000040873,0.536632262586555
20599.9999999807,37.0800725588449,1.00000000044678,0.539260904365134
20699.9999999793,36.9509818408003,1.00000000048652,0.542496956943431
20799.9999999778,36.82190415138,1.00000000047626,0.548322767543108
20899.9999999764,36.6942712161933,1.00000000043947,0.555384667519766
20999.9999999749,36.5683002020871,1.00000000045864,0.557222334647066
21099.9999999734,36.4402222918406,1.00000000049883,0.551526629853312
21199.999999972,36.3065420040417,1.00000000056592,0.558420288768001
21299.9999999705,36.1658898492141,1.00000000051954,0.561306305621553
21399.9999999691,36.0208181371048,1.00000000050384,0.554244060743563
21499.9999999676,35.8731002922267,1.00000000049888,0.548654972609523
21599.9999999662,35.7225241469296,1.00000000050951,0.556461506000712
21699.9999999647,35.569037849547,1.00000000052351,0.573286588361277
21799.9999999633,35.4144279972825,1.00000000051765,0.580914356015324
21899.9999999618,35.2606603371342,1.00000000043972,0.574622768888983
21999.9999999603,35.1085103346911,1.00000000043462,0.566531759353138
22099.9999999589,34.9583808072632,1.00000000044447,0.571220330506164
22199.9999999574,34.8075912227234,1.00000000049096,0.576811434616191
22299.999999956,34.6551973978716,1.00000000050452,0.579387758623895
22399.9999999545,34.5026820577438,1.00000000046334,0.585211321794073
22499.9999999531,34.3512270614591,1.00000000041305,0.574829903996577
22599.9999999516,34.2010815619468,1.00000000037724,0.563125702037745
22699.9999999502,34.0524187207384,1.00000000041214,0.563373209007367
22799.9999999487,33.9047408119202,1.00000000044387,0.571504605485611
22899.9999999473,33.7580019703626,1.00000000041392,0.573054588284291
22999.9999999458,33.6124502597198,1.00000000040007,0.570832122160967
23099.9999999443,33.4685639504147,1.00000000044233,0.569773720473338
23199.9999999429,33.3267186450398,1.00000000048177,0.579390709490298
23299.9999999414,33.1887276698539,1.00000000049239,0.582553700466466
23399.99999994,33.0563108105812,1.00000000051261,0.570561752639138
23499.9999999385,32.9321708553073,1.00000000054419,0.572548257469574
23599.9999999371,32.8210813175595,1.00000000057772,0.589296698599569
23699.9999999356,32.7265340791842,1.0000000006024,0.589777663396599
23799.9999999342,32.6559727309895,1.00000000061701,0.585075177541398
23899.9999999327,32.6122932701653,1.00000000060089,0.588237864876922
23999.9999999312,32.6041221296482,1.00000000060689,0.597220834922403
24099.9999999298,32.6370886811174,1.00000000072477,0.601995319110149
24199.9999999283,32.7180996522535,1.00000000073596,0.606532912934451
24299.9999999269,32.854282660659,1.00000000072314,0.608249930764701
24399.9999999254,33.0404448518627,1.00000000072318,0.606681590531478
24499.999999924,33.2888872096198,1.00000000073361,0.603338823512548
24599.9999999225,33.5849037442653,1.00000000076236,0.598535036135119
24699.9999999211,33.9447420352776,1.00000000075406,0.591632846069014
24799.9999999196,34.3341879865309,1.00000000069789,0.584085700166493
24899.9999999181,34.7586991712231,1.00000000068001,0.577634965001803
24999.9999999167,35.1714678968842,1.00000000060199,0.570777673365894
25099.9999999152,35.5690088204876,1.00000000057109,0.560582772114477
25199.9999999138,35.9140128768092,1.00000000049583,0.545179795517337
25299.9999999123,36.1968999042737,1.00000000042398,0.52443728440403
25399.9999999109,36.4004786565353,1.00000000036205,0.500001660236415
25499.9999999094,36.5182751381254,1.00000000033847,0.47489682819445
25599.999999908,36.5578888143932,1.00000000029181,0.446796933650127
25699.9999999065,36.5227337190882,1.00000000024027,0.416743793897204
25799.9999999051,36.4348042287499,1.00000000021022,0.388584370693584
25899.9999999036,36.3150884175975,1.00000000019509,0.362656259142596
25999.9999999021,36.1907214460415,1.00000000014869,0.336893819924718
26099.9999999007,36.097506148333,1.0000000001385,0.312140102107361
26199.9999998992,36.0650582403532,1.00000000012612,0.293227990657374
26299.9999998978,36.1317865384177,1.00000000011149,0.277038475103262
26399.9999998963,36.3334623429801,1.00000000010701,0.262616851352158
26499.9999998949,36.6942934044198,1.00000000011933,0.252351363272043
26599.9999998934,37.2562650425496,1.00000000012309,0.252055470821259
26699.999999892,38.01914544887,1.00000000012693,0.255116749657024
26799.9999998905,39.0231567642771,1.00000000017406,0.260060809243691
26899.999999889,40.2422302937902,1.00000000019382,0.27179105057097
26999.9999998876,41.6925064077388,1.00000000023482,0.283862370066462
27099.9999998861,43.3446759860738,1.00000000029682,0.303357012751119
27199.9999998847,45.1609419722607,1.00000000035052,0.322439806915865
27299.9999998832,47.1360965931629,1.00000000038296,0.342189183957897
27399.9999998818,49.1931701155454,1.00000000044385,0.36159291708475
27499.9999998803,51.3387248174556,1.00000000050804,0.379439747477397
27599.9999998789,53.4791420620378,1.00000000050344,0.39596413817004
27699.9999998774,55.6379059662433,1.00000000055788,0.409419114596986
27799.9999998759,57.7335342234755,1.00000000056555,0.425658386885422
27899.9999998745,59.7728542819471,1.00000000059947,0.442717367896366
27999.999999873,61.7235198348669,1.00000000061811,0.461759032687776
28099.9999998716,63.5778231644019,1.00000000061059,0.472668417847231
28199.9999998701,65.3386603518532,1.00000000066157,0.482363353149056
28299.9999998687,66.9742305336317,1.00000000061914,0.490585854351354
28399.9999998672,68.5104125807738,1.00000000064815,0.504890630364647
28499.9999998658,69.9225766735767,1.00000000058616,0.521148717737763
28599.9999998643,71.2412730851818,1.00000000059964,0.529609809438584
28699.9999998629,72.4536094818554,1.00000000056656,0.534105347784489
28799.9999998614,73.569762684488,1.00000000056089,0.533007898340466
28899.9999998599,74.5923075403493,1.00000000055848,0.541678349650082
28999.9999998585,75.5140521795673,1.00000000057679,0.55202869586029
