Time,AGPnorm,Energy,Entropy
0,0,1,-1.07915430347264e-17
99.9999999999986,2.58223207624931e-05,0.999999999997271,0.00107987473307753
199.999999999993,0.00232091094457402,0.999999999999675,0.00173598266109341
300,0.00566923168417407,0.999999999998776,0.00301130128896126
400.000000000022,0.0077263268010711,0.999999999997778,0.00522129499663698
500.000000000045,0.00943009811741747,1.00000000000014,0.0069549144395105
600.000000000068,0.0137043349692765,0.99999999999753,0.00964788127154767
700.000000000091,0.0167481483991974,0.999999999999124,0.0124394731194594
800.000000000113,0.021140075490339,0.999999999999335,0.0152188585499148
900.000000000136,0.0267885891000946,0.999999999997499,0.0187823133927068
1000.00000000016,0.0314090030342111,1.00000000000003,0.0220452028322418
1100.0000000001,0.0375266388054122,0.999999999997962,0.0257807174061964
1200,0.0434751506790551,0.999999999998555,0.0298855352319218
1299.99999999991,0.0498233467685653,0.999999999999764,0.0338061433040981
1399.99999999982,0.057618835794145,0.999999999997469,0.0383733668601583
1499.99999999973,0.0647024811392706,0.999999999999676,0.0428794537797337
1599.99999999964,0.0724217701190021,0.999999999998456,0.0475645113557678
1699.99999999955,0.0806717787054252,0.999999999998086,0.0527819540892595
1799.99999999946,0.0888406073899521,1.00000000000002,0.0578237982725156
1899.99999999937,0.0979668186933857,0.999999999997663,0.0633973076748969
1999.99999999928,0.106554931991685,0.999999999999181,0.0691412124467796
2099.99999999919,0.115408403042804,0.999999999998925,0.074920849272168
2199.99999999909,0.12528888291487,0.999999999997826,0.0813464670407884
2299.999999999,0.134956678024452,0.999999999999997,0.0877369874906642
2399.99999999891,0.144667222699895,0.999999999997983,0.0945763066763092
2499.99999999882,0.154067077040611,0.999999999998666,0.101834861151811
2599.99999999873,0.163626467100748,0.999999999999359,0.109158730591268
2699.99999999864,0.174290151509042,0.99999999999782,0.117286925055567
2799.99999999855,0.184679821060872,0.999999999999705,0.12569556773149
2899.99999999846,0.194408822329807,0.999999999998404,0.134597456536829
2999.99999999837,0.204154167749975,0.999999999998496,0.144383326658184
3099.99999999828,0.214112756475819,1.00000000000058,0.154584192240167
3199.99999999819,0.224853285353294,0.999999999999942,0.166108470480433
3299.99999999809,0.234558970236584,1.00000000000424,0.178553614346511
3399.999999998,0.244689186058196,1.00000000000913,0.191860283055623
3499.99999999791,0.253854861962175,1.00000000001853,0.206487109036652
3599.99999999782,0.264391387987396,1.00000000003548,0.221498072092177
3699.99999999773,0.278620816353413,1.00000000005227,0.237191122031725
3799.99999999764,0.287906393858851,1.00000000008133,0.253008564398252
3899.99999999755,0.309830933331423,1.00000000010892,0.268388465828617
3999.99999999746,0.335566801301499,1.00000000014141,0.284011881271983
4099.99999999738,0.370841122490593,1.000000000183,0.299070100447242
4199.99999999775,0.439209715206618,1.00000000021171,0.313770149321713
4299.99999999811,0.516529391862953,1.00000000025844,0.328283135753591
4399.99999999848,0.644972291686737,1.00000000029746,0.34185018589597
4499.99999999884,0.825753194468517,1.00000000032891,0.35555543384891
4599.9999999992,1.05187559284589,1.00000000037868,0.368688817264485
4699.99999999957,1.38128521956278,1.00000000041525,0.380998877650058
4799.99999999993,1.78244109473882,1.00000000044968,0.393282847081246
4900.00000000029,2.2946168473587,1.00000000049817,0.4046707464663
5000.00000000066,2.9494725802044,1.00000000050807,0.415827751855445
5100.00000000102,3.7139448234419,1.00000000054358,0.426688194150371
5200.00000000139,4.65896515885289,1.00000000057796,0.436394599126433
5300.00000000175,5.76476854583923,1.00000000059431,0.446279504746799
5400.00000000211,7.03626815317063,1.0000000006249,0.455523127467506
5500.00000000248,8.53226040343414,1.00000000064264,0.46410875162398
5600.00000000284,10.2035501580964,1.00000000066591,0.472610667704697
5700.00000000321,12.0985641766705,1.00000000067942,0.480138823980807
5800.00000000357,14.2240579628081,1.00000000071177,0.487575416256706
5900.00000000393,16.5451530583262,1.00000000072494,0.494723116024344
6000.0000000043,19.1246309159647,1.00000000072874,0.501066613467209
6100.00000000466,21.9194968989443,1.00000000076227,0.507378190611653
6200.00000000502,24.935253134962,1.00000000075956,0.513273113792273
6300.00000000539,28.2038280781579,1.00000000075837,0.518593738422711
6400.00000000575,31.6689271994592,1.00000000075908,0.523978686182059
6500.00000000612,35.3720471999508,1.00000000078851,0.528372466237177
6600.00000000648,39.2929097017618,1.00000000076567,0.532964204287062
6700.00000000684,43.3981087863486,1.00000000078953,0.537365693902421
6800.00000000721,47.729272163087,1.00000000079472,0.541107700443621
6900.00000000757,52.2325895373198,1.00000000077572,0.544919947600389
7000.00000000793,56.9164832074954,1.00000000078392,0.548121066746114
7100.0000000083,61.7854425275439,1.00000000078079,0.551157440093473
7200.00000000866,66.7848562404605,1.00000000080446,0.554328181568412
7300.00000000903,71.949465550854,1.00000000078913,0.556796693255734
7400.00000000939,77.243718218593,1.00000000077745,0.559325327977638
7500.00000000975,82.6459629217601,1.00000000080337,0.561698939570989
7600.00000001012,88.1763528841634,1.00000000077452,0.563763554962155
7700.00000001048,93.7796168270511,1.00000000079626,0.565786477934015
7800.00000001084,99.4730875080432,1.00000000075056,0.56749384428712
7900.00000001121,105.24304954733,1.0000000007565,0.569009738431976
8000.00000001157,111.05007196515,1.00000000074423,0.570756663429226
8100.00000001194,116.91832900006,1.00000000074892,0.571934774783458
8200.0000000123,122.805096304694,1.00000000074929,0.573098286228652
8300.00000001266,128.708481966116,1.00000000075718,0.574146955661223
8400.00000001303,134.632210132488,1.00000000072828,0.575060652388913
8500.00000001339,140.533239858374,1.00000000073576,0.576194165398582
8600.00000001376,146.42934264363,1.00000000071698,0.57677912993318
8700.00000001412,152.296676140772,1.00000000071573,0.577328742468466
8800.00000001448,158.118667707474,1.00000000071073,0.577982633628452
8900.00000001485,163.908909584495,1.00000000068448,0.5782139941188
9000.00000001521,169.628676745606,1.00000000070122,0.578824209454104
9100.00000001557,175.288752440621,1.0000000006906,0.578880838875732
9200.00000001594,180.879377751286,1.00000000067292,0.579116826274013
9300.0000000163,186.379072651278,1.00000000068066,0.579352679295492
9400.00000001667,191.800929945242,1.0000000006689,0.579434505621131
9500.00000001703,197.120017563016,1.00000000066342,0.579675420051624
9600.00000001739,202.335416166184,1.00000000066497,0.57912341442589
9700.00000001776,207.452177997573,1.00000000066077,0.579661718507747
9800.00000001812,212.444894527886,1.00000000066126,0.578620482789269
9900.00000001848,217.327738411514,1.00000000063179,0.579509679176315
10000.0000000188,222.084778581379,1.00000000062159,0.578719804484342
10100.0000000192,226.709910083821,1.00000000059923,0.578583071291576
10200.0000000196,231.215100443161,1.00000000063598,0.579030802425836
10300.0000000199,235.577980551149,1.00000000059704,0.577732034708953
10400.0000000203,239.808545090045,1.00000000060389,0.578411420655431
10500.0000000207,243.901104556843,1.00000000058076,0.578201026466321
10600.000000021,247.847326505885,1.00000000057512,0.577264534638058
10700.0000000214,251.65978663621,1.00000000058679,0.57761902867632
10800.0000000218,255.32347315094,1.00000000056477,0.576929103025587
10900.0000000221,258.843669903747,1.00000000054362,0.576107436396676
11000.0000000225,262.21972549668,1.00000000057246,0.576332600061915
11100.0000000229,265.446269653409,1.00000000052684,0.575950047006234
11200.0000000232,268.532853451272,1.00000000051228,0.574768511998521
11300.0000000236,271.46846676252,1.00000000053679,0.575436209856712
11400.0000000239,274.26042047773,1.00000000053142,0.5742719118846
11500.0000000243,276.908474568138,1.00000000051814,0.573303832897806
11600.0000000247,279.407802830666,1.00000000052306,0.574199083360607
11700.000000025,281.771413789948,1.00000000050632,0.572794864986809
11800.0000000254,283.988019513279,1.00000000050063,0.572204966621063
11900.0000000258,286.063741854409,1.00000000049828,0.572962369375598
12000.0000000261,288.005599722401,1.00000000049439,0.571959123705504
12100.0000000265,289.805059858622,1.00000000048778,0.571921395542366
12200.0000000269,291.474560088121,1.00000000049202,0.570691258699798
12300.0000000272,293.008897382632,1.00000000047719,0.56994871304322
12400.0000000276,294.410099901307,1.00000000046453,0.571648338889859
12500.0000000279,295.689529271019,1.00000000046755,0.571106688888303
12600.0000000283,296.839900940911,1.00000000044159,0.56854062673106
12700.0000000287,297.867222139453,1.00000000044707,0.56833648162742
12800.000000029,298.773263269776,1.00000000046131,0.570997891322621
12900.0000000294,299.56298599002,1.00000000046092,0.571813236597149
13000.0000000298,300.245337992294,1.00000000044165,0.567657285967074
13100.0000000301,300.81044618751,1.0000000004132,0.56452895361226
13200.0000000305,301.264184263138,1.00000000042646,0.568346403397566
13300.0000000309,301.617498855668,1.00000000045014,0.573113070914734
13400.0000000312,301.876696728081,1.00000000043556,0.570177344104189
13500.0000000316,302.042478984528,1.00000000040403,0.562192929444867
13600.0000000319,302.1027117858,1.00000000039443,0.560715734184843
13700.0000000323,302.070195119533,1.00000000042264,0.569971812962265
13800.0000000327,301.964005416489,1.00000000046287,0.574950136533579
13900.000000033,301.787770365104,1.00000000042671,0.566999758279613
14000.0000000334,301.532333585745,1.00000000038664,0.55566648821464
14100.0000000338,301.184941861143,1.00000000037462,0.555144325375822
14200.0000000341,300.76316409544,1.00000000043363,0.57025509868173
14300.0000000345,300.294863169693,1.00000000048941,0.57731936670199
14400.0000000349,299.779137599972,1.00000000044016,0.56472780200651
14500.0000000352,299.202923048707,1.00000000037547,0.549496806730565
14600.0000000356,298.546566649874,1.00000000035984,0.545816219839449
14700.0000000359,297.827292331616,1.00000000042724,0.564735728316629
14800.0000000363,297.07828027643,1.00000000051273,0.5795731558315
14900.0000000367,296.306248416521,1.0000000004654,0.56934637127301
15000.000000037,295.499045254121,1.00000000039152,0.549138655820665
15100.0000000374,294.627368444499,1.00000000033333,0.534440609112808
15200.0000000378,293.695277234905,1.00000000035886,0.54593994792674
15300.0000000381,292.732237405603,1.00000000050051,0.574484327945387
15400.0000000385,291.765070992178,1.00000000053613,0.579628182390984
15500.0000000389,290.791491459019,1.00000000047064,0.56015448656653
15600.0000000392,289.786585255213,1.00000000037327,0.535282228228653
15700.0000000396,288.726743568831,1.00000000030542,0.52096403735148
15800.0000000399,287.620901732726,1.0000000003946,0.541969989731641
15900.0000000403,286.499244323601,1.00000000052668,0.576280452680123
16000.0000000407,285.391356219469,1.00000000057013,0.581958752283542
16100.000000041,284.289257174884,1.00000000047832,0.557251556672682
16200.0000000414,283.167224998532,1.00000000036431,0.527881087837817
16300.0000000418,282.004497271377,1.00000000030159,0.509420005263407
16400.0000000418,280.799129912726,1.00000000035665,0.524626827678228
16500.0000000404,279.581626817316,1.00000000050701,0.565491508587522
16600.0000000389,278.379193907047,1.00000000059665,0.584545707681204
16700.0000000375,277.196112619369,1.00000000054675,0.568577844557628
16800.000000036,276.016350702459,1.00000000042353,0.535769316700864
16900.0000000346,274.813090802176,1.00000000033606,0.508788601579832
17000.0000000331,273.577163492314,1.00000000031385,0.502464634862902
17100.0000000317,272.316335186438,1.00000000039618,0.527016726056211
17200.0000000302,271.055491502811,1.00000000055068,0.568831625610429
17300.0000000287,269.817181769915,1.00000000060906,0.583143637118219
17400.0000000273,268.600362261649,1.00000000055254,0.563925438858025
17500.0000000258,267.389973300184,1.00000000043744,0.530021598046047
17600.0000000244,266.16715095024,1.00000000034413,0.50378093923201
17700.0000000229,264.920748759569,1.00000000031364,0.497571463951756
17800.0000000215,263.657824848579,1.00000000036398,0.513824315559424
17900.00000002,262.392220514527,1.00000000048083,0.549075259580859
18000.0000000186,261.142540662525,1.00000000058338,0.576147696230099
18100.0000000171,259.916280355646,1.00000000060406,0.571667278802649
18200.0000000156,258.705896025821,1.00000000052641,0.543805926324004
18300.0000000142,257.498455482068,1.00000000040804,0.512556283046093
18400.0000000127,256.281403741895,1.00000000033818,0.498359569366485
18500.0000000113,255.052457967049,1.00000000035338,0.500444082032852
18600.0000000098,253.816436750146,1.00000000038064,0.513682573392219
18700.0000000084,252.582164173444,1.00000000046137,0.5398581496435
18800.0000000069,251.361996208537,1.00000000054844,0.565076576473312
18900.0000000055,250.161180728318,1.00000000057345,0.565505798487344
19000.000000004,248.975795374056,1.00000000052427,0.543564938078533
19100.0000000026,247.798771535073,1.00000000044731,0.517378655840468
19200.0000000011,246.621197691329,1.00000000038225,0.502365273346419
19299.9999999996,245.441433846387,1.00000000036354,0.500824910589489
19399.9999999982,244.258459858281,1.00000000037538,0.506412726889122
19499.9999999967,243.076136379085,1.00000000042129,0.517201982804106
19599.9999999953,241.901059441335,1.00000000048905,0.534499596941437
19699.9999999938,240.737806874539,1.00000000054651,0.550756909053501
19799.9999999924,239.588910446934,1.00000000054287,0.551891666812807
19899.9999999909,238.453066809483,1.00000000052651,0.538339663625834
19999.9999999895,237.325813365064,1.00000000046001,0.520484769730925
20099.999999988,236.204466258833,1.00000000040737,0.508521658726879
20199.9999999865,235.08577077555,1.00000000038632,0.505415689488576
20299.9999999851,233.970501253856,1.0000000003992,0.508555314087603
20399.9999999836,232.858916601535,1.00000000041408,0.512791463979421
20499.9999999822,231.752528542453,1.00000000043615,0.517876216812307
20599.9999999807,230.654533380884,1.00000000047423,0.525190357962877
20699.9999999793,229.566403589175,1.00000000050626,0.534892116221738
20799.9999999778,228.488872084942,1.00000000051683,0.541135459516235
20899.9999999764,227.422200954966,1.00000000049907,0.534736960567098
20999.9999999749,226.364165117708,1.0000000004772,0.525192202094505
21099.9999999734,225.314360419067,1.00000000043903,0.517329664188059
21199.999999972,224.271397391594,1.00000000040542,0.514068029284072
21299.9999999705,223.235498905022,1.00000000042004,0.51576065275604
21399.9999999691,222.206391594712,1.00000000041122,0.515014648698792
21499.9999999676,221.183586278915,1.00000000042098,0.512497845516297
21599.9999999662,220.168401557735,1.00000000041822,0.511631106854273
21699.9999999647,219.161218815872,1.00000000044956,0.516024473178162
21799.9999999633,218.162663219457,1.00000000048868,0.524437026552183
21899.9999999618,217.173387349139,1.00000000049828,0.530971062033241
21999.9999999603,216.192771576567,1.00000000047565,0.535861353804454
22099.9999999589,215.220683533667,1.00000000046427,0.530986737949466
22199.9999999574,214.257048104832,1.00000000044206,0.525208293870096
22299.999999956,213.301629059831,1.00000000043522,0.52491425512219
22399.9999999545,212.354959100986,1.0000000004411,0.528028247774142
22499.9999999531,211.416718992194,1.00000000041283,0.523554694617168
22599.9999999516,210.487431269246,1.00000000039357,0.515871242487167
22699.9999999502,209.566514823759,1.00000000036787,0.506905113315184
22799.9999999487,208.654308015432,1.0000000003931,0.503481219518763
22899.9999999473,207.751145446767,1.00000000041452,0.507023611238922
22999.9999999458,206.856671329416,1.00000000046903,0.516598050391047
23099.9999999443,205.970078577693,1.00000000049708,0.525662053486248
23199.9999999429,205.091211722533,1.00000000047951,0.532308551833738
23299.9999999414,204.21967306473,1.00000000046272,0.536506313054566
23399.99999994,203.356154935062,1.00000000044265,0.530823127146411
23499.9999999385,202.500574587923,1.00000000044816,0.528735524184581
23599.9999999371,201.65279526595,1.00000000044957,0.535989886005749
23699.9999999356,200.812927136791,1.00000000048048,0.538509830096089
23799.9999999342,199.981668145159,1.00000000045075,0.52994880624774
23899.9999999327,199.160156577757,1.00000000038521,0.518366581917716
23999.9999999312,198.349299651304,1.0000000003444,0.500993489672146
24099.9999999298,197.550066075615,1.00000000035006,0.492197130929566
24199.9999999283,196.761881222453,1.00000000039354,0.494243410699827
24299.9999999269,195.983086469001,1.00000000044094,0.506177280990015
24399.9999999254,195.211753386057,1.00000000049846,0.516181610243789
24499.999999924,194.446451907505,1.00000000050033,0.522322239480927
24599.9999999225,193.686252318321,1.0000000004789,0.528972638356516
24699.9999999211,192.932463887623,1.0000000004396,0.531796521060144
24799.9999999196,192.185764035315,1.00000000043532,0.531862827118861
24899.9999999181,191.445933340706,1.00000000045673,0.530002531253313
24999.9999999167,190.711998969817,1.00000000049143,0.539210567207399
25099.9999999152,189.983103371268,1.00000000051578,0.546789755175471
25199.9999999138,189.26007729733,1.00000000048779,0.540055735084
25299.9999999123,188.545083163374,1.00000000043974,0.524357874785437
25399.9999999109,187.841297390687,1.00000000037474,0.508595723062147
25499.9999999094,187.150988686387,1.00000000032304,0.491361912163711
25599.999999908,186.475392173833,1.0000000003198,0.481262071540064
25699.9999999065,185.812847242255,1.00000000038992,0.486632759999677
25799.9999999051,185.159797062853,1.00000000046041,0.499336957250914
25899.9999999036,184.512716413625,1.00000000049876,0.51098504058735
25999.9999999021,183.869860255641,1.0000000005203,0.515431764112871
26099.9999999007,183.230001072947,1.00000000048757,0.516354179673099
26199.9999998992,182.594081204642,1.00000000046474,0.519004626359816
26299.9999998978,181.963202966227,1.00000000044156,0.528664254296889
26399.9999998963,181.337269154635,1.0000000004307,0.534154152491348
26499.9999998949,180.715856368822,1.00000000047259,0.533658690948393
26599.9999998934,180.097781750559,1.0000000004906,0.538685924194397
26699.999999892,179.48193578175,1.00000000051743,0.546399166201369
26799.9999998905,178.869278834995,1.00000000049683,0.542084288302962
26899.999999889,178.262163926428,1.00000000045436,0.527803313467934
26999.9999998876,177.664273083839,1.00000000040571,0.509929596739525
27099.9999998861,177.079668338689,1.00000000036574,0.497338582527495
27199.9999998847,176.510113892372,1.00000000033119,0.489598713956266
27299.9999998832,175.955600867012,1.00000000034694,0.482574808544847
27399.9999998818,175.414167907684,1.0000000003946,0.484778784730146
27499.9999998803,174.882370749557,1.00000000043338,0.492040878216776
27599.9999998789,174.356676667919,1.0000000004797,0.502689676510611
27699.9999998774,173.834343059378,1.00000000050742,0.509015818055013
27799.9999998759,173.313992756671,1.00000000050182,0.513526910661501
27899.9999998745,172.794665315343,1.00000000049805,0.513501446953683
27999.999999873,172.276984439208,1.00000000047099,0.517341865252524
28099.9999998716,171.761612500852,1.00000000045394,0.527121398733714
28199.9999998701,171.248087333654,1.00000000046671,0.536484360812602
28299.9999998687,170.736381159625,1.00000000045746,0.535608095142708
28399.9999998672,170.226515436859,1.00000000046752,0.53459220683562
28499.9999998658,169.718202901562,1.00000000049036,0.534828836587641
28599.9999998643,169.212227367264,1.00000000049124,0.534980651665158
28699.9999998629,168.709808205336,1.00000000048861,0.531124992192928
28799.9999998614,168.213214874775,1.00000000043931,0.520647665394535
28899.9999998599,167.725431559477,1.00000000040959,0.509461430799153
