Time,AGPnorm,Energy,Entropy
0,0,1,-1.17525709858709e-17
99.9999999999986,2.58176905736925e-05,1.00000000000072,0.00110592436382977
199.999999999993,0.00230226964312376,1.00000000000009,0.00175646704566675
300,0.00573519491849961,1.00000000000041,0.00311402589283621
400.000000000022,0.00797357035334526,1.00000000000058,0.00528752282546346
500.000000000045,0.009749608045177,0.999999999999914,0.00711226347099891
600.000000000068,0.0138426335598802,1.00000000000075,0.00989829072609809
700.000000000091,0.0170446961599654,1.00000000000011,0.0126566691113382
800.000000000113,0.021882196653212,1.00000000000036,0.0156178256022425
900.000000000136,0.0274951400466516,1.00000000000067,0.0191623879279881
1000.00000000016,0.0320684125444489,0.999999999999801,0.0225294421404516
1100.0000000001,0.0382196303663133,1.00000000000077,0.026427929713729
1200,0.0446650200117786,1.00000000000021,0.0304783888246878
1299.99999999991,0.0514680107009388,1.00000000000024,0.0346375892988312
1399.99999999982,0.058923413232688,1.00000000000076,0.0392412170995755
1499.99999999973,0.0660211132341163,0.999999999999713,0.0438138563417813
1599.99999999964,0.0741465687412013,1.00000000000077,0.0487448422697161
1699.99999999955,0.0829039159309937,1.00000000000034,0.0539340543914859
1799.99999999946,0.0912900345952359,1.00000000000007,0.0592350303790181
1899.99999999937,0.0999961434679848,1.00000000000085,0.0649170915515614
1999.99999999928,0.108909098320811,0.99999999999972,0.0707050125690384
2099.99999999919,0.118423919981098,1.00000000000071,0.0768318504997532
2199.99999999909,0.128498297721575,1.00000000000049,0.0832981820857304
2299.999999999,0.138045667686303,0.999999999999846,0.0899443712482494
2399.99999999891,0.147555033608398,1.00000000000096,0.097005096990425
2499.99999999882,0.157592935755107,0.999999999999855,0.104354494565375
2599.99999999873,0.16776240684188,1.00000000000062,0.112148575330565
2699.99999999864,0.178174282310598,1.00000000000068,0.120450841139609
2799.99999999855,0.188259978317093,0.999999999999693,0.129158923267401
2899.99999999846,0.198187470895498,1.00000000000114,0.138540532609166
2999.99999999837,0.208634160384505,1.00000000000043,0.148646174119782
3099.99999999828,0.218917974096941,1.00000000000169,0.159603823549332
3199.99999999819,0.229136977606904,1.00000000000383,0.171659392036363
3299.99999999809,0.238682507972198,1.00000000000733,0.184685317000744
3399.999999998,0.2496382468123,1.00000000001606,0.198871309766167
3499.99999999791,0.259112813941138,1.00000000002866,0.213974858531078
3599.99999999782,0.270274452908473,1.00000000004559,0.229607704933695
3699.99999999773,0.28486472817431,1.00000000007133,0.245558023074639
3799.99999999764,0.29638230084693,1.00000000010072,0.261420393033394
3899.99999999755,0.323355547434899,1.0000000001291,0.277215667905294
3999.99999999746,0.3540975267665,1.00000000016869,0.292723140419206
4099.99999999738,0.40107451861645,1.00000000020258,0.30786812548412
4199.99999999775,0.482034989273785,1.0000000002496,0.322560157256722
4299.99999999811,0.580928509850416,1.00000000028897,0.336879993303379
4399.99999999848,0.739215168136329,1.00000000032902,0.350732104468763
4499.99999999884,0.951019493829045,1.00000000037536,0.36413939170128
4599.9999999992,1.22779171933353,1.00000000043941,0.377005930350013
4699.99999999957,1.60777833227665,1.00000000043908,0.389541440286489
4799.99999999993,2.07371338891229,1.00000000048267,0.401460514851363
4900.00000000029,2.66792628935136,1.0000000005127,0.412935625128136
5000.00000000066,3.39987755005118,1.00000000055284,0.423728201196836
5100.00000000102,4.27065537604793,1.00000000059127,0.434247362768747
5200.00000000139,5.31927258113043,1.00000000060811,0.444205561836495
5300.00000000175,6.53720967381448,1.00000000064481,0.453555296839563
5400.00000000211,7.94675850161187,1.00000000063666,0.462753630222542
5500.00000000248,9.563071289801,1.00000000068806,0.471150548066109
5600.00000000284,11.3828796433624,1.00000000073295,0.479153195409353
5700.00000000321,13.4239981348506,1.00000000074477,0.486791812976523
5800.00000000357,15.6881971285988,1.00000000073559,0.493916807065726
5900.00000000393,18.1784681208118,1.0000000007829,0.500634937595064
6000.0000000043,20.8974387869812,1.00000000078854,0.506998743527083
6100.00000000466,23.8486263337429,1.00000000079022,0.512882285762218
6200.00000000502,27.0232618599567,1.00000000080823,0.51864706212578
6300.00000000539,30.424467497239,1.00000000080508,0.523812254055611
6400.00000000575,34.0507060234271,1.00000000080243,0.528738173162722
6500.00000000612,37.8818280991338,1.0000000007512,0.533535661927194
6600.00000000648,41.9305848516469,1.00000000080952,0.537449875928498
6700.00000000684,46.1722635032437,1.00000000083312,0.541627590273259
6800.00000000721,50.6000080459264,1.00000000082626,0.545310299415459
6900.00000000757,55.2207936663572,1.00000000082043,0.548673253772575
7000.00000000793,59.9934605097113,1.00000000083312,0.552063108956628
7100.0000000083,64.9342021475773,1.00000000081679,0.55488478782144
7200.00000000866,70.0189710021055,1.00000000082789,0.557640148634759
7300.00000000903,75.2240143839124,1.00000000081389,0.560307709714324
7400.00000000939,80.5680996804454,1.00000000080078,0.562531133701413
7500.00000000975,86.0010479355352,1.00000000081733,0.564808790360199
7600.00000001012,91.5329212014978,1.00000000081294,0.566589760936406
7700.00000001048,97.152436919471,1.00000000079794,0.568364865939203
7800.00000001084,102.820766757287,1.00000000076712,0.570379737357156
7900.00000001121,108.563348648207,1.00000000078712,0.57132360671152
8000.00000001157,114.334203177676,1.00000000078618,0.573087302555511
8100.00000001194,120.131956692806,1.00000000079503,0.5740973422201
8200.0000000123,125.960395217509,1.00000000077343,0.575109662629296
8300.00000001266,131.771881196806,1.0000000007607,0.576369467626606
8400.00000001303,137.594257968609,1.00000000077034,0.576841025247583
8500.00000001339,143.39209955712,1.00000000076078,0.577652520124507
8600.00000001376,149.152019756188,1.00000000072046,0.578827314777718
8700.00000001412,154.891124817173,1.00000000073717,0.578651897453724
8800.00000001448,160.561282577999,1.00000000073169,0.57959346266039
8900.00000001485,166.184853474924,1.0000000007106,0.579572570841061
9000.00000001521,171.741647105743,1.00000000071928,0.5800219216226
9100.00000001557,177.21020320202,1.00000000072978,0.580119684977403
9200.00000001594,182.613599822768,1.00000000069898,0.58028811335487
9300.0000000163,187.911602516794,1.00000000068833,0.580288234142446
9400.00000001667,193.116764004361,1.00000000065591,0.580833331028704
9500.00000001703,198.225449965502,1.00000000065296,0.58042697980876
9600.00000001739,203.20795325075,1.00000000062902,0.580557468007589
9700.00000001776,208.09382860549,1.00000000066026,0.580529940681695
9800.00000001812,212.848080738186,1.00000000063432,0.579548218529828
9900.00000001848,217.478668010477,1.00000000066018,0.580501786976087
10000.0000000188,221.99116858933,1.00000000064008,0.579081406734085
10100.0000000192,226.355697792902,1.00000000062397,0.579536947147108
10200.0000000196,230.601187172088,1.00000000061704,0.579442646204977
10300.0000000199,234.702061812107,1.00000000062053,0.578105814742614
10400.0000000203,238.660716662012,1.00000000062059,0.579106607812913
10500.0000000207,242.488890829213,1.00000000059137,0.578081366177886
10600.000000021,246.160970621706,1.0000000005777,0.577728176722161
10700.0000000214,249.699312682659,1.00000000058232,0.577855332847158
10800.0000000218,253.090582224391,1.00000000056831,0.57711289070131
10900.0000000221,256.330819319122,1.00000000056921,0.576620300517877
11000.0000000225,259.434681886891,1.00000000055514,0.576549401949617
11100.0000000229,262.383379137528,1.00000000054555,0.576245830409937
11200.0000000232,265.192697241035,1.00000000055176,0.575287482918476
11300.0000000236,267.856431504094,1.00000000054554,0.57567654438846
11400.0000000239,270.371347182109,1.00000000053362,0.575116358483397
11500.0000000243,272.750170541767,1.0000000005239,0.574087439207055
11600.0000000247,274.97924514878,1.00000000053508,0.57481003725759
11700.000000025,277.072848792741,1.00000000052252,0.573260634609737
11800.0000000254,279.027355628167,1.00000000052574,0.572468175710262
11900.0000000258,280.83829220757,1.00000000050535,0.573692954460012
12000.0000000261,282.523322526129,1.00000000050152,0.572715972927687
12100.0000000265,284.067701998608,1.00000000048718,0.571633975919234
12200.0000000269,285.483044254226,1.00000000049642,0.571671798135663
12300.0000000272,286.772030478664,1.0000000004868,0.571981159679225
12400.0000000276,287.929892934153,1.00000000048451,0.572494332043416
12500.0000000279,288.972080509329,1.00000000047867,0.570133605820876
12600.0000000283,289.887751293421,1.00000000044427,0.568431837887154
12700.0000000287,290.683887018117,1.00000000044331,0.571552463800559
12800.000000029,291.371827636344,1.00000000047131,0.573295657271054
12900.0000000294,291.946912775271,1.00000000046285,0.569733206208308
13000.0000000298,292.415988155156,1.0000000004429,0.565490037381247
13100.0000000301,292.772048212082,1.00000000042739,0.568395502246106
13200.0000000305,293.029591713788,1.00000000045267,0.57402212473526
13300.0000000309,293.201646456963,1.00000000046417,0.571287548516377
13400.0000000312,293.277916057573,1.00000000041944,0.564108532787962
13500.0000000316,293.258414137312,1.00000000039713,0.56096527803315
13600.0000000319,293.1455664866,1.00000000044142,0.569993391208908
13700.0000000323,292.960767806625,1.00000000046305,0.575401597639403
13800.0000000327,292.714578144672,1.00000000046678,0.568060709333276
13900.000000033,292.388860272977,1.00000000039947,0.556698049388426
14000.0000000334,291.980051327059,1.0000000003797,0.555669867938907
14100.0000000338,291.497953837794,1.00000000043737,0.569982885637149
14200.0000000341,290.968744289283,1.00000000049992,0.577637390457878
14300.0000000345,290.402774396816,1.00000000046278,0.565973051424687
14400.0000000349,289.773659496479,1.00000000039754,0.550314800883656
14500.0000000352,289.073677602412,1.00000000035906,0.545907086592571
14600.0000000356,288.313011416573,1.00000000044194,0.56500336173622
14700.0000000359,287.522101500388,1.00000000051213,0.580511216064108
14800.0000000363,286.717643068995,1.00000000048473,0.568799446227969
14900.0000000367,285.87375116759,1.00000000041955,0.548725116856128
15000.000000037,284.973161892667,1.00000000034254,0.534218488323225
15100.0000000374,284.014757131324,1.00000000040573,0.548192900897969
15200.0000000378,283.028531892875,1.00000000050789,0.575457734376847
15300.0000000381,282.044497288827,1.00000000055582,0.580411000320545
15400.0000000385,281.052075322271,1.00000000043653,0.556269967081561
15500.0000000389,280.027648048956,1.00000000037989,0.533424768854776
15600.0000000392,278.953223635859,1.0000000003271,0.52298669424039
15700.0000000396,277.83700515463,1.00000000041983,0.546520879504315
15800.0000000399,276.714524740771,1.00000000054231,0.577832524403754
15900.0000000403,275.603137008935,1.00000000059787,0.579512175969343
16000.0000000407,274.497932647422,1.00000000048851,0.552293452507548
16100.000000041,273.370886115353,1.00000000037091,0.524663502121835
16200.0000000414,272.203771398481,1.00000000031147,0.511836548532535
16300.0000000418,271.003599320821,1.00000000039469,0.529710735960457
16400.0000000418,269.794800317137,1.00000000054336,0.56986936412906
16500.0000000404,268.603703210965,1.00000000064804,0.583989003230352
16600.0000000389,267.431991310266,1.00000000053812,0.562109017197906
16700.0000000375,266.256566166828,1.00000000041536,0.529202625055713
16800.000000036,265.060339303381,1.00000000032998,0.506982750402376
16900.0000000346,263.831398310525,1.00000000033636,0.506612904247416
17000.0000000331,262.585585709217,1.00000000044697,0.536608086947972
17100.0000000317,261.346651911428,1.00000000058184,0.573528427038579
17200.0000000302,260.12894291904,1.00000000061382,0.580800243984805
17300.0000000287,258.931772621883,1.00000000053849,0.554854542749598
17400.0000000273,257.735976217853,1.00000000041388,0.520767651359162
17500.0000000258,256.526001148482,1.00000000034189,0.501681115498619
17600.0000000244,255.296281665254,1.00000000034557,0.502191825411015
17700.0000000229,254.052641696174,1.00000000041389,0.522506646137607
17800.0000000215,252.81407825576,1.00000000056352,0.557840807057569
17900.00000002,251.593685164575,1.00000000060503,0.576987042520528
18000.0000000186,250.393816425952,1.00000000058741,0.564217313827684
18100.0000000171,249.20739601211,1.00000000049148,0.532168488483393
18200.0000000156,248.019033765415,1.00000000039137,0.505363670651558
18300.0000000142,246.822886592649,1.0000000003489,0.498994690579861
18400.0000000127,245.616202564169,1.0000000003747,0.505682578350497
18500.0000000113,244.40612322497,1.00000000044206,0.52261937748308
18600.0000000098,243.203534017591,1.00000000052867,0.547470623471032
18700.0000000084,242.015575914631,1.00000000058367,0.564889688146569
18800.0000000069,240.845449496679,1.00000000058223,0.558890822705702
18900.0000000055,239.688787579517,1.00000000052025,0.533085817831611
19000.000000004,238.536701982622,1.00000000042488,0.509545991010901
19100.0000000026,237.38494085285,1.00000000038805,0.500926176955584
19200.0000000011,236.230006824104,1.00000000038006,0.505389446983147
19299.9999999996,235.075738516214,1.0000000004245,0.513136931334499
19399.9999999982,233.924845623581,1.00000000046796,0.523095396026846
19499.9999999967,232.782116542089,1.00000000050526,0.539095319252202
19599.9999999953,231.65245003938,1.00000000056168,0.550512225757366
19699.9999999938,230.536054401138,1.00000000055757,0.547014365424675
19799.9999999924,229.430686073858,1.00000000048488,0.530222405726227
19899.9999999909,228.33318085824,1.00000000046944,0.513833013314158
19999.9999999895,227.239838625901,1.0000000003978,0.505816740944419
20099.999999988,226.151146674097,1.0000000004087,0.509837962674054
20199.9999999865,225.065706582209,1.0000000004129,0.513375496526108
20299.9999999851,223.985733333218,1.00000000041951,0.51601024841263
20399.9999999836,222.912257848466,1.00000000046344,0.519446113343057
20499.9999999822,221.846943558689,1.00000000047582,0.528488571826724
20599.9999999807,220.79215306311,1.00000000052767,0.537099264140721
20699.9999999793,219.747671286373,1.00000000051727,0.537763123225815
20799.9999999778,218.712596205749,1.00000000050725,0.530942082605761
20899.9999999764,217.686230436966,1.0000000004792,0.520507687700074
20999.9999999749,216.6672135876,1.00000000044797,0.516220048945311
21099.9999999734,215.656109602913,1.0000000004355,0.517584150083606
21199.999999972,214.651873268008,1.00000000041888,0.517810769776629
21299.9999999705,213.654876246761,1.00000000041538,0.51451943439273
21399.9999999691,212.664897871447,1.00000000043686,0.513046066261516
21499.9999999676,211.682308614027,1.0000000004567,0.514313187656097
21599.9999999662,210.708314790849,1.00000000046579,0.518808559508871
21699.9999999647,209.743180539594,1.00000000052908,0.527370691333702
21799.9999999633,208.786482781137,1.00000000049668,0.535230827257417
21899.9999999618,207.838580517589,1.00000000049429,0.535092902152529
21999.9999999603,206.898857252733,1.00000000046016,0.529387426913739
22099.9999999589,205.967621092896,1.00000000045876,0.526711184464003
22199.9999999574,205.044890924916,1.00000000044108,0.527009935466245
22299.999999956,204.13107891996,1.00000000046081,0.526831562403296
22399.9999999545,203.226217689882,1.00000000043172,0.52236063532333
22499.9999999531,202.32990557558,1.00000000038785,0.510677687940174
22599.9999999516,201.442767578488,1.00000000039708,0.504360497930411
22699.9999999502,200.564482224275,1.00000000042253,0.504476263335508
22799.9999999487,199.694875477748,1.00000000046783,0.514165213946999
22899.9999999473,198.833628167508,1.00000000048832,0.520013254803401
22999.9999999458,197.979857370885,1.00000000051114,0.530586966499322
23099.9999999443,197.133261616652,1.00000000048634,0.535671123531062
23199.9999999429,196.294510413261,1.00000000045204,0.534134677303295
23299.9999999414,195.463535698633,1.0000000004527,0.529448537858396
23399.99999994,194.640379324233,1.00000000047878,0.533710263161628
23499.9999999385,193.824704417893,1.00000000048572,0.539702132608961
23599.9999999371,193.017437026338,1.00000000046024,0.533124918889787
23699.9999999356,192.219347612442,1.00000000041988,0.523086246094685
23799.9999999342,191.432102274945,1.000000000362,0.505679874256946
23899.9999999327,190.656784201292,1.00000000033662,0.492731242719542
23999.9999999312,189.892929431572,1.00000000039687,0.492488603098479
24099.9999999298,189.138843470832,1.00000000045284,0.503226675295363
24199.9999999283,188.392505977397,1.00000000048554,0.513850123541943
24299.9999999269,187.652047678913,1.00000000051805,0.522198607926149
24399.9999999254,186.916935747338,1.00000000049483,0.523905429396732
24499.999999924,186.187859474769,1.0000000004586,0.529554701380175
24599.9999999225,185.465436184673,1.00000000045062,0.533320747382264
24699.9999999211,184.749782019676,1.00000000046313,0.530834623914972
24799.9999999196,184.039874504322,1.00000000049436,0.536804636142865
24899.9999999181,183.334838905988,1.00000000054415,0.546411052474428
24999.9999999167,182.634981851792,1.00000000050799,0.542688204324211
25099.9999999152,181.942820618676,1.00000000046528,0.526666589377658
25199.9999999138,181.261116611309,1.00000000038984,0.511425340114645
25299.9999999123,180.593248971865,1.00000000033897,0.493362729912605
25399.9999999109,179.940372963202,1.00000000033216,0.484174076226961
25499.9999999094,179.300533297384,1.00000000039593,0.485948680056319
25599.999999908,178.670772066929,1.00000000045322,0.496448221368608
25699.9999999065,178.047512658367,1.00000000050102,0.508030519532316
25799.9999999051,177.428413555233,1.00000000051809,0.516085240547829
25899.9999999036,176.812087303413,1.00000000053157,0.514943157586197
25999.9999999021,176.199642072839,1.00000000047274,0.516471679537334
26099.9999999007,175.591816523627,1.00000000047458,0.527377806860125
26199.9999998992,174.988720230078,1.00000000046423,0.533895919148086
26299.9999998978,174.389757231245,1.00000000048508,0.535289277553532
26399.9999998963,173.793676978801,1.00000000050753,0.538141909103342
26499.9999998949,173.199858740128,1.0000000005266,0.542616535629882
26599.9999998934,172.608925664138,1.000000000507,0.541918438901548
26699.999999892,172.02353158518,1.00000000048417,0.527629412200139
26799.9999998905,171.447414608673,1.00000000040097,0.511048243749848
26899.999999889,170.883873517135,1.00000000038227,0.500483487560135
26999.9999998876,170.335008732891,1.00000000035221,0.490696329163745
27099.9999998861,169.801818089791,1.00000000036497,0.483421327590101
27199.9999998847,169.281541344535,1.00000000040567,0.485873557389069
27299.9999998832,168.771002225611,1.00000000047492,0.49162649577816
27399.9999998818,168.266575837642,1.00000000049132,0.500637956405068
27499.9999998803,167.765813169312,1.00000000051742,0.508104391705013
27599.9999998789,167.26668194629,1.00000000052051,0.512610375842119
27699.9999998774,166.76878348086,1.00000000049942,0.511519376551131
27799.9999998759,166.272159410009,1.0000000005002,0.518328370898317
27899.9999998745,165.776977883583,1.0000000004762,0.527367087012717
27999.999999873,165.283423000157,1.00000000049543,0.535050888717731
28099.9999998716,164.791458167941,1.00000000049197,0.535921465743083
28199.9999998701,164.300891396631,1.00000000049151,0.533795151186861
28299.9999998687,163.812608040578,1.00000000048409,0.531668216080696
28399.9999998672,163.326839705185,1.00000000052301,0.534683828598335
28499.9999998658,162.844348204946,1.00000000050921,0.530744392535217
28599.9999998643,162.368089512585,1.00000000044585,0.518367702648603
28699.9999998629,161.900406665974,1.00000000042692,0.510265634426122
28799.9999998614,161.443496027248,1.00000000039068,0.502917204441007
28899.9999998599,160.999567756217,1.0000000003864,0.498355015531503
