Time,AGPnorm,Energy,Entropy
0,0,1,-1.18526780641151e-17
99.9999999999986,3.70670645040222e-05,1.000000000003,0.00156059600127909
199.999999999993,0.00338341339545777,0.999999999999822,0.00248472733348888
300,0.00862100590859367,1.0000000000018,0.00443812107542214
400.000000000022,0.0121759386638496,1.00000000000198,0.00739125732154102
500.000000000045,0.0147033653247991,0.999999999999588,0.0100695470456045
600.000000000068,0.0204148617526801,1.00000000000303,0.0139287499428049
700.000000000091,0.0255357312670913,1.00000000000017,0.0177240755002091
800.000000000113,0.0330817974045531,1.00000000000132,0.0219886080092127
900.000000000136,0.0410080666828617,1.00000000000241,0.0268006667705457
1000.00000000016,0.0474107702969795,0.999999999999281,0.0316122364939578
1100.0000000001,0.0562889480725845,1.00000000000296,0.0370705354113238
1200,0.0662992877115812,1.00000000000073,0.0426579709590441
1299.99999999991,0.0760888687528907,1.00000000000071,0.0487200926010501
1399.99999999982,0.0858854008836406,1.0000000000027,0.0550990627236985
1499.99999999973,0.0960055174912924,0.999999999999261,0.0616481656171394
1599.99999999964,0.107781226959496,1.00000000000275,0.0688294730762801
1699.99999999955,0.120307079649271,1.00000000000128,0.0762420877756731
1799.99999999946,0.131302543574903,1.00000000000005,0.0841959971998305
1899.99999999937,0.142310541558467,1.00000000000293,0.0924978099381791
1999.99999999928,0.154997041882988,0.999999999999616,0.101216534616032
2099.99999999919,0.168196258175675,1.0000000000023,0.110852711713817
2199.99999999909,0.181127433339079,1.00000000000167,0.12091912554044
2299.999999999,0.192674793791128,0.999999999999612,0.131818161382645
2399.99999999891,0.204635950381397,1.00000000000343,0.143683807551156
2499.99999999882,0.21819452864529,1.00000000000155,0.156707264135684
2599.99999999873,0.231319767280886,1.00000000000602,0.171571286911762
2699.99999999864,0.243084742604585,1.00000000001415,0.187843326559668
2799.99999999855,0.253956126806163,1.00000000002897,0.205664236814349
2899.99999999846,0.26919424975716,1.00000000006081,0.224854382426725
2999.99999999837,0.280498785792976,1.00000000009907,0.244432343752264
3099.99999999828,0.299766888806643,1.00000000015425,0.264311683234644
3199.99999999819,0.324481576752513,1.00000000021736,0.283650648110463
3299.99999999809,0.355037011274506,1.00000000028321,0.302550505185889
3399.999999998,0.421860827602146,1.00000000035562,0.321383265664753
3499.99999999791,0.505148272544995,1.00000000043821,0.339234834370594
3599.99999999782,0.642399335974131,1.00000000051781,0.356646786302552
3699.99999999773,0.844281430106824,1.0000000005815,0.37311169693575
3799.99999999764,1.11331089385475,1.00000000064937,0.388969348346877
3899.99999999755,1.49544993377161,1.00000000073656,0.404486535274435
3999.99999999746,1.98271858430494,1.00000000078946,0.418564335271003
4099.99999999738,2.6123913154191,1.00000000083869,0.432393504936805
4199.99999999775,3.39535466244471,1.00000000095046,0.445200658554379
4299.99999999811,4.34522823412665,1.00000000096483,0.457303210781949
4399.99999999848,5.48730501425837,1.00000000099077,0.469084524778112
4499.99999999884,6.82037067779909,1.0000000010243,0.479400522877298
4599.9999999992,8.37436161972154,1.00000000109401,0.489386229221566
4699.99999999957,10.1303732342921,1.00000000109457,0.499094274907465
4799.99999999993,12.1176195658289,1.00000000111521,0.507336447894128
4900.00000000029,14.3324829091751,1.00000000117147,0.515688934301762
5000.00000000066,16.7560414001638,1.00000000115279,0.523007645752333
5100.00000000102,19.4271894303708,1.00000000119323,0.529736078793491
5200.00000000139,22.2895220475388,1.00000000119745,0.536612224883545
5300.00000000175,25.3743237314249,1.00000000123465,0.541948321800739
5400.00000000211,28.6725812682632,1.00000000121968,0.547745129612691
5500.00000000248,32.1312765913159,1.0000000012121,0.552932837456278
5600.00000000284,35.8062661226181,1.00000000121543,0.557170000073109
5700.00000000321,39.6219253485859,1.00000000122576,0.561847229901265
5800.00000000357,43.5923802310006,1.0000000012118,0.565359197309435
5900.00000000393,47.7264536367841,1.00000000118949,0.568891354132628
6000.0000000043,51.9418626038984,1.00000000122039,0.572491593216445
6100.00000000466,56.3017322225623,1.00000000116584,0.574986344078019
6200.00000000502,60.7377573653945,1.00000000119271,0.578097344493935
6300.00000000539,65.2364729463523,1.00000000113812,0.580402071882583
6400.00000000575,69.8313444922521,1.00000000116443,0.582065683799778
6500.00000000612,74.4284076265302,1.00000000115702,0.584715858628277
6600.00000000648,79.0823326650917,1.00000000120988,0.585682093175315
6700.00000000684,83.7495338800144,1.00000000116139,0.587419117651462
6800.00000000721,88.3932888450722,1.00000000111553,0.588902564822761
6900.00000000757,93.0620509737963,1.00000000113449,0.589451535473064
7000.00000000793,97.668960047652,1.00000000111702,0.591484301798942
7100.0000000083,102.251740943794,1.00000000108561,0.591688941877035
7200.00000000866,106.794580569809,1.00000000108932,0.5920097154899
7300.00000000903,111.247789301391,1.00000000104569,0.593139651156732
7400.00000000939,115.662393893099,1.00000000103998,0.593169665496107
7500.00000000975,119.96995768735,1.00000000104828,0.593773008367906
7600.00000001012,124.192894317822,1.00000000101975,0.593450179263514
7700.00000001048,128.333738187099,1.00000000102081,0.59386918636956
7800.00000001084,132.342075444492,1.0000000010282,0.594353740571779
7900.00000001121,136.264128355023,1.00000000098829,0.593879331474194
8000.00000001157,140.054354525317,1.00000000096515,0.593729367718752
8100.00000001194,143.718376392717,1.00000000092283,0.594705830565404
8200.0000000123,147.273787286264,1.00000000092519,0.592852869955793
8300.00000001266,150.674281654436,1.00000000094949,0.594298614845823
8400.00000001303,153.960149446785,1.00000000087223,0.592343027599458
8500.00000001339,157.101286795023,1.000000000907,0.593539639355355
8600.00000001376,160.097816442269,1.00000000089555,0.591849999105487
8700.00000001412,162.969703939216,1.00000000087532,0.592328344986129
8800.00000001448,165.681494982729,1.00000000086663,0.591323446621858
8900.00000001485,168.26220007662,1.00000000086028,0.591458270179915
9000.00000001521,170.700283456367,1.00000000083797,0.590435180373397
9100.00000001557,172.984898095517,1.00000000081561,0.590690556970978
9200.00000001594,175.145096965179,1.00000000079243,0.589657718832895
9300.0000000163,177.146241323898,1.00000000079043,0.589228859716366
9400.00000001667,179.018139806897,1.00000000080869,0.589433144264791
9500.00000001703,180.751472236151,1.00000000076636,0.58750042398252
9600.00000001739,182.339219463295,1.00000000076272,0.589117156634509
9700.00000001776,183.805914302301,1.00000000074422,0.58702450578065
9800.00000001812,185.127673608351,1.00000000072949,0.587383618092675
9900.00000001848,186.325843442026,1.00000000072432,0.586991171089872
10000.0000000188,187.399596796221,1.00000000071516,0.586021310694092
10100.0000000192,188.341889457983,1.00000000069488,0.586137158251385
10200.0000000196,189.173038823235,1.00000000067724,0.585119689576036
10300.0000000199,189.879432859443,1.00000000068012,0.586280078307081
10400.0000000203,190.47605828731,1.00000000066471,0.585256824980712
10500.0000000207,190.964685184655,1.00000000067487,0.584186477979513
10600.000000021,191.340778357845,1.00000000068213,0.58600887492142
10700.0000000214,191.624886823157,1.00000000067198,0.584856506131816
10800.0000000218,191.80555783034,1.00000000064242,0.582383507561686
10900.0000000221,191.893306620232,1.00000000065385,0.583938281823273
11000.0000000225,191.898658578154,1.0000000006778,0.585112265425776
11100.0000000229,191.817211101258,1.00000000065055,0.581045194489938
11200.0000000232,191.656536406523,1.0000000006124,0.578846241325828
11300.0000000236,191.418387911242,1.00000000066341,0.585465719511311
11400.0000000239,191.118985870713,1.00000000066609,0.582248568943909
11500.0000000243,190.751668164125,1.00000000062424,0.570755961125431
11600.0000000247,190.31227625534,1.00000000066344,0.580753370560664
11700.000000025,189.831451837877,1.00000000067858,0.584034982262872
11800.0000000254,189.300708786589,1.00000000061369,0.57172892348278
11900.0000000258,188.7099965764,1.00000000058574,0.566027277005203
12000.0000000261,188.074174376286,1.00000000072017,0.582029770787356
12100.0000000265,187.406283035993,1.00000000068191,0.579364682327108
12200.0000000269,186.706017736395,1.00000000062493,0.567245525592145
12300.0000000272,185.955553960628,1.00000000060669,0.559879357071085
12400.0000000276,185.171311973514,1.00000000070736,0.579914302138641
12500.0000000279,184.375402678519,1.0000000007427,0.577975680179491
12600.0000000283,183.555156787223,1.00000000065628,0.564149315958326
12700.0000000287,182.702080581779,1.00000000058726,0.551318897073134
12800.000000029,181.81648395683,1.00000000068629,0.571538252874571
12900.0000000294,180.925459664952,1.0000000008227,0.582072052370992
13000.0000000298,180.03108358196,1.00000000067677,0.563382319538755
13100.0000000301,179.111911982714,1.00000000058311,0.548889352147837
13200.0000000305,178.166816983093,1.00000000061097,0.548572948770072
13300.0000000309,177.212917196841,1.00000000083508,0.584577229805551
13400.0000000312,176.265425944447,1.00000000077574,0.568270992523333
13500.0000000316,175.315643389619,1.00000000065319,0.552839638060057
13600.0000000319,174.345464120731,1.00000000057751,0.538851211950415
13700.0000000323,173.359776553751,1.00000000068327,0.550709222851931
13800.0000000327,172.377870677762,1.00000000085254,0.583817534710253
13900.000000033,171.404965275405,1.00000000072648,0.561821144589687
14000.0000000334,170.434501184929,1.00000000067543,0.544306025748757
14100.0000000338,169.451061167969,1.00000000057703,0.537003798459395
14200.0000000341,168.458557915674,1.00000000067808,0.54409432297518
14300.0000000345,167.469874264742,1.00000000084535,0.573631818969161
14400.0000000349,166.492743832625,1.00000000080046,0.567619334001584
14500.0000000352,165.523383102978,1.00000000069753,0.540092087426069
14600.0000000356,164.550363371753,1.00000000060036,0.535142396509036
14700.0000000359,163.57240398644,1.00000000064852,0.540821616541196
14800.0000000363,162.594971993273,1.00000000071082,0.550065042819192
14900.0000000367,161.626124060608,1.00000000084952,0.570145145271725
15000.000000037,160.670056823914,1.00000000076154,0.553952463949774
15100.0000000374,159.718273803851,1.00000000067743,0.530080202645318
15200.0000000378,158.768029687296,1.00000000063657,0.535043526921637
15300.0000000381,157.818453848154,1.0000000006885,0.544944468677664
15400.0000000385,156.872080955834,1.00000000071035,0.545753469422038
15500.0000000389,155.934934589609,1.00000000078492,0.555412684641281
15600.0000000392,155.007306362226,1.00000000077621,0.553944059945169
15700.0000000396,154.087620601722,1.00000000068675,0.530769146186664
15800.0000000399,153.172598408886,1.00000000065977,0.528416605371718
15900.0000000403,152.261354264587,1.00000000071572,0.54621452779571
16000.0000000407,151.356697050457,1.00000000071048,0.545923594023767
16100.000000041,150.458014307568,1.0000000006994,0.540399770796457
16200.0000000414,149.56735770068,1.00000000078101,0.546818245902329
16300.0000000418,148.686160095579,1.00000000075302,0.543858499711463
16400.0000000418,147.811684432088,1.00000000069622,0.531559692399653
16500.0000000404,146.944870370509,1.00000000066565,0.532418614968708
16600.0000000389,146.084657155908,1.00000000067316,0.544702602561219
16700.0000000375,145.2317024479,1.00000000069043,0.54789380709708
16800.000000036,144.386206863969,1.00000000070811,0.538081791416693
16900.0000000346,143.547921003495,1.00000000069868,0.533212510868248
17000.0000000331,142.718032853861,1.00000000073999,0.538707304000801
17100.0000000317,141.896286666934,1.00000000070877,0.542808046052143
17200.0000000302,141.082493222279,1.0000000006758,0.536284858331376
17300.0000000287,140.277224774921,1.00000000068334,0.537668671328162
17400.0000000273,139.479737473317,1.00000000067768,0.547751440578002
17500.0000000258,138.690559876268,1.00000000066387,0.545942706735195
17600.0000000244,137.909003635858,1.00000000063959,0.533224793242262
17700.0000000229,137.13548591188,1.00000000066413,0.529794789804739
17800.0000000215,136.370577626641,1.00000000067672,0.53653160577989
17900.00000002,135.613664179274,1.00000000073899,0.547610361331704
18000.0000000186,134.865080391,1.0000000006652,0.544458870297169
18100.0000000171,134.12487614739,1.00000000069506,0.539545243160987
18200.0000000156,133.393165080787,1.00000000071069,0.546136930860623
18300.0000000142,132.670245241947,1.00000000068009,0.549601392386929
18400.0000000127,131.956036420406,1.00000000062306,0.536207642679024
18500.0000000113,131.250825634679,1.00000000064736,0.530230196905794
18600.0000000098,130.554126486743,1.00000000070416,0.533157335547057
18700.0000000084,129.865812622558,1.00000000066561,0.535910137435404
18800.0000000069,129.185908007099,1.00000000073683,0.546127503855187
18900.0000000055,128.513574190545,1.00000000069266,0.550707758811431
19000.000000004,127.849022635355,1.00000000069361,0.546333160020682
19100.0000000026,127.19248668061,1.00000000069932,0.5452653402834
19200.0000000011,126.544162606723,1.00000000071306,0.54857802320519
19299.9999999996,125.905580422433,1.00000000058509,0.540542749103251
19399.9999999982,125.277269879412,1.0000000006255,0.528523993126971
19499.9999999967,124.658302919639,1.00000000065312,0.527780539922755
19599.9999999953,124.047256722903,1.00000000074775,0.531745021770496
19699.9999999938,123.444189994612,1.00000000070045,0.532547920846204
19799.9999999924,122.848712755459,1.00000000070162,0.540670341479439
19899.9999999909,122.259701674035,1.00000000070262,0.551655152507853
19999.9999999895,121.677069921296,1.00000000069297,0.551889322100652
20099.999999988,121.101085887972,1.00000000074679,0.547661041675318
20199.9999999865,120.532021995335,1.00000000073106,0.548162965747343
20299.9999999851,119.971590821528,1.00000000064806,0.540099387046556
20399.9999999836,119.422227083157,1.00000000060269,0.531809550261898
20499.9999999822,118.884169649111,1.00000000062843,0.52292644959497
20599.9999999807,118.35515091298,1.00000000070451,0.523173826337007
20699.9999999793,117.832954564031,1.00000000071792,0.528726921408761
20799.9999999778,117.316864132581,1.00000000068834,0.526040102494582
20899.9999999764,116.807144951371,1.00000000068171,0.53011539372922
20999.9999999749,116.302648041192,1.00000000073285,0.546105997558825
21099.9999999734,115.802188191964,1.00000000073608,0.554977771616998
21199.999999972,115.306387557735,1.00000000074195,0.553727505709944
21299.9999999705,114.815238780042,1.00000000072098,0.547706852811265
21399.9999999691,114.330710260976,1.0000000006834,0.540029429379117
21499.9999999676,113.856073002184,1.00000000062661,0.531419691482666
21599.9999999662,113.392806190815,1.00000000061317,0.529976145086562
21699.9999999647,112.940384994096,1.00000000063614,0.526432041207838
21799.9999999633,112.496101569801,1.00000000070334,0.52108544993898
21899.9999999618,112.058497185411,1.00000000073591,0.522926839982066
21999.9999999603,111.62598833985,1.00000000068632,0.523087636605627
22099.9999999589,111.198943639827,1.00000000070809,0.522817682743409
22199.9999999574,110.776357046154,1.0000000007389,0.532432759520461
22299.999999956,110.355273271285,1.0000000007764,0.546591550275399
22399.9999999545,109.935312375834,1.00000000074765,0.555833867400262
22499.9999999531,109.518195859584,1.00000000075958,0.552951153050175
22599.9999999516,109.105705772688,1.0000000007286,0.541264780262596
22699.9999999502,108.700356723957,1.00000000067125,0.534895725123552
22799.9999999487,108.303805514248,1.00000000065426,0.53426950383088
22899.9999999473,107.917037931217,1.0000000006667,0.532366810667721
22999.9999999458,107.540240090676,1.00000000066017,0.532845995521447
23099.9999999443,107.171482295617,1.00000000067046,0.528814302131979
23199.9999999429,106.810616537758,1.00000000069014,0.518943762740339
23299.9999999414,106.456028772268,1.00000000068304,0.5177799924979
23399.99999994,106.106890439538,1.00000000070725,0.520925940452018
23499.9999999385,105.761553162863,1.00000000068398,0.527546319582005
23599.9999999371,105.418215636225,1.00000000075052,0.531278476159023
23699.9999999356,105.074920258525,1.00000000077313,0.540115392096833
23799.9999999342,104.730550880839,1.0000000007468,0.54761906142611
23899.9999999327,104.386484062878,1.00000000072834,0.551910402899334
23999.9999999312,104.045998654161,1.00000000068783,0.544878370043235
24099.9999999298,103.711529164403,1.00000000065532,0.53713227320606
24199.9999999283,103.38418866495,1.00000000068536,0.536461006922656
24299.9999999269,103.064150495586,1.00000000067564,0.539792521875158
24399.9999999254,102.751141127101,1.00000000068884,0.541652209473069
24499.999999924,102.446604333384,1.00000000064769,0.53536585499026
24599.9999999225,102.150232134295,1.00000000067238,0.533141925222072
24699.9999999211,101.861679773017,1.00000000069928,0.527661764148373
24799.9999999196,101.580229588036,1.0000000006702,0.521710565240361
24899.9999999181,101.305829943121,1.00000000066593,0.521104476693613
24999.9999999167,101.0361318224,1.0000000007096,0.529181308109116
25099.9999999152,100.767877995312,1.00000000075122,0.534964385043738
25199.9999999138,100.5004893092,1.00000000073494,0.540389317444522
25299.9999999123,100.232208603045,1.00000000077903,0.542122921966834
25399.9999999109,99.9619848023479,1.0000000007733,0.543435975222955
25499.9999999094,99.6910957963151,1.00000000076773,0.547846485395678
25599.999999908,99.4216697552848,1.00000000069699,0.548950593701604
25699.9999999065,99.1572102562558,1.00000000066725,0.544329159137388
25799.9999999051,98.8987300518819,1.00000000067448,0.543249492659832
25899.9999999036,98.6457731660505,1.00000000070265,0.544349503436501
25999.9999999021,98.3976698060741,1.00000000072377,0.54657168226548
26099.9999999007,98.1541196603552,1.00000000068989,0.547553764522593
26199.9999998992,97.9169393180184,1.00000000067766,0.54386314042867
26299.9999998978,97.6884786210854,1.00000000062884,0.533620330447184
26399.9999998963,97.468898355702,1.00000000064358,0.529889789304874
26499.9999998949,97.2568142965337,1.00000000067317,0.530638196366037
26599.9999998934,97.0498383290715,1.00000000068991,0.529106496317318
26699.999999892,96.848343356109,1.00000000068582,0.529474021027833
26799.9999998905,96.6513679390263,1.00000000068985,0.533410339370012
26899.999999889,96.4563777733413,1.00000000070994,0.538774844365924
26999.9999998876,96.2613530542019,1.00000000073565,0.547377277343485
27099.9999998861,96.0649446351575,1.00000000071928,0.548796184335461
27199.9999998847,95.8667785684042,1.00000000074255,0.545832268620526
27299.9999998832,95.6661594092217,1.00000000077872,0.549251640873045
27399.9999998818,95.4645881957315,1.00000000071467,0.54566075138463
27499.9999998803,95.2655595381415,1.00000000067572,0.543611221613282
27599.9999998789,95.0701685778339,1.00000000067964,0.549148581927751
27699.9999998774,94.8785593603319,1.00000000068651,0.551548666022935
27799.9999998759,94.6897054425649,1.00000000073466,0.553216801838383
27899.9999998745,94.5023807176823,1.00000000072619,0.551863381907321
27999.999999873,94.3174718763423,1.00000000074902,0.548395113022955
28099.9999998716,94.1363400165098,1.00000000068932,0.547340086841035
28199.9999998701,93.9612853545506,1.00000000065501,0.541818393404462
28299.9999998687,93.7948556211224,1.00000000061809,0.534930664517513
28399.9999998672,93.6363480816453,1.00000000066212,0.534675909609984
28499.9999998658,93.485157728075,1.0000000006778,0.532273280989773
28599.9999998643,93.3384044434955,1.0000000007194,0.53492639426168
28699.9999998629,93.1947275153948,1.00000000070799,0.535101068168679
28799.9999998614,93.055113169958,1.00000000066918,0.536697835620987
28899.9999998599,92.9185991374,1.00000000070662,0.541346291906198
28999.9999998585,92.7833385884489,1.00000000074389,0.549100747426708
