Time,AGPnorm,Energy,Entropy
0,0,1,-1.31941129125876e-17
99.9999999999986,8.37628863306967e-06,0.999999999994191,0.000407868914671218
199.999999999993,0.000769279305152996,0.999999999998767,0.000665548431971172
300,0.00188743856707962,0.999999999997577,0.00112842008526202
400.000000000022,0.0025875876528641,0.999999999994832,0.00201857486891062
500.000000000045,0.00308112624836214,1.0000000000002,0.00268278079248414
600.000000000068,0.00452961884276009,0.999999999994722,0.00374648605708021
700.000000000091,0.00559917530958458,0.999999999997756,0.00488852198997318
800.000000000113,0.00706102340424262,0.999999999998596,0.0059402782272429
900.000000000136,0.00888877249426142,0.999999999994282,0.00742498266010355
1000.00000000016,0.0103472033296924,1.00000000000001,0.00873025091114419
1100.0000000001,0.0126359346207539,0.99999999999556,0.0102065269214821
1200,0.014823569047182,0.999999999996683,0.0119237885202427
1299.99999999991,0.016928900082481,0.9999999999994,0.013429916041831
1399.99999999982,0.0195634299080319,0.999999999994107,0.0153166476420174
1499.99999999973,0.0219987425694942,0.999999999999479,0.0171340615248713
1599.99999999964,0.0250608293727419,0.999999999996573,0.0189449980981093
1699.99999999955,0.0281791661390863,0.999999999995679,0.0211049345647412
1799.99999999946,0.031003452429095,0.99999999999989,0.0230198666418832
1899.99999999937,0.034453513608788,0.999999999994334,0.025215869454032
1999.99999999928,0.0377600651822094,0.999999999998676,0.0274837538918078
2099.99999999919,0.0413811831828676,0.999999999997612,0.0296134560355508
2199.99999999909,0.0452437839789382,0.999999999994884,0.0321350190428689
2299.999999999,0.0488388095270064,1.00000000000002,0.0344484025874541
2399.99999999891,0.0530800454379577,0.999999999994917,0.0369191773766322
2499.99999999882,0.0571613395703516,0.999999999997698,0.0396006720505282
2599.99999999873,0.0611874041027395,0.999999999998536,0.0420615574098137
2699.99999999864,0.065627790192075,0.999999999994415,0.0448982733086083
2799.99999999855,0.0699519290741701,0.999999999999812,0.0476245092111163
2899.99999999846,0.0748215985132543,0.999999999995747,0.0503769135518923
2999.99999999837,0.0795673593860118,0.999999999996658,0.0534532229332096
3099.99999999828,0.0839788503169677,0.999999999999231,0.0562732157470268
3199.99999999819,0.0889247087636332,0.999999999994347,0.0594157499889588
3299.99999999809,0.0938310982549525,0.999999999999313,0.0625807046178453
3399.999999998,0.099066409522018,0.999999999996679,0.065658619537865
3499.99999999791,0.10428783802643,0.999999999995701,0.069129250779113
3599.99999999782,0.109151722662492,0.999999999999625,0.0723618269450913
3699.99999999773,0.114573826007594,0.999999999994655,0.0758439446903934
3799.99999999764,0.119916590063923,0.999999999998569,0.0794874482018996
3899.99999999755,0.125279796898239,0.999999999997592,0.0829647054208616
3999.99999999746,0.130775678413499,0.999999999994993,0.0868572685930292
4099.99999999738,0.136110555975982,0.999999999999679,0.0905977470164338
4199.99999999775,0.141907738700774,0.999999999995251,0.0944984307962983
4299.99999999811,0.147561039409273,0.999999999997646,0.0986972233209322
4399.99999999848,0.152928045769075,0.999999999998398,0.102679771041974
4499.99999999884,0.158593200129047,0.999999999994674,0.107084415084422
4599.9999999992,0.164262353479173,0.999999999999488,0.111478807406694
4699.99999999957,0.170239850260526,0.999999999996018,0.115942714125444
4799.99999999993,0.176025489248623,0.999999999996664,0.120839050486743
4900.00000000029,0.181409939126093,0.99999999999903,0.125532984833733
5000.00000000066,0.187244543302774,0.999999999994792,0.130647712297954
5100.00000000102,0.193038743876655,0.999999999999197,0.135941327386759
5200.00000000139,0.199017283306632,0.99999999999691,0.141263410675576
5300.00000000175,0.204748028733961,0.999999999996005,0.147149218030698
5400.00000000211,0.210200518174835,0.999999999999664,0.152946272787317
5500.00000000248,0.216309443458034,0.999999999995674,0.159176733191219
5600.00000000284,0.222005046267448,0.999999999999407,0.165822419798524
5700.00000000321,0.228000708426523,0.999999999999036,0.172465157999577
5800.00000000357,0.233750916728403,0.999999999997478,0.179794964317355
5900.00000000393,0.239203364984748,1.00000000000268,0.187176043472906
6000.0000000043,0.246347863635038,1.00000000000062,0.194904557760064
6100.00000000466,0.251921983552518,1.00000000000444,0.203164696610658
6200.00000000502,0.259035229437499,1.00000000000766,0.211229595377367
6300.00000000539,0.267188028060418,1.00000000000759,0.219861937982735
6400.00000000575,0.274191449043376,1.00000000001444,0.228482773883773
6500.00000000612,0.287619738244585,1.00000000001645,0.237127226298303
6600.00000000648,0.299187014578502,1.00000000002331,0.246135631902821
6700.00000000684,0.315950458514484,1.00000000003041,0.254669122212049
6800.00000000721,0.342034945645676,1.00000000003094,0.263484804446876
6900.00000000757,0.367558377285486,1.00000000004264,0.272198525942084
7000.00000000793,0.412348354022121,1.00000000004662,0.280562619709132
7100.0000000083,0.464524332927568,1.00000000005086,0.289233864850795
7200.00000000866,0.530321985365386,1.0000000000629,0.29731992793883
7300.00000000903,0.628789791758094,1.00000000006755,0.305404252664091
7400.00000000939,0.736862443480771,1.00000000007386,0.313592122829975
7500.00000000975,0.887352594684783,1.00000000008393,0.321083701891867
7600.00000001012,1.0742406816144,1.00000000008903,0.328930807471678
7700.00000001048,1.29121244824302,1.00000000009698,0.336342145957852
7800.00000001084,1.58074087745267,1.00000000010139,0.343533645252158
7900.00000001121,1.90782912140697,1.00000000012098,0.350896867283762
8000.00000001157,2.30777480680971,1.00000000012609,0.357574817958732
8100.00000001194,2.79419130344118,1.00000000012678,0.364538324371142
8200.0000000123,3.33693257603985,1.00000000013596,0.371238845192031
8300.00000001266,4.00103839628534,1.0000000001465,0.377446795947324
8400.00000001303,4.75007386895219,1.00000000014838,0.384083624746298
8500.00000001339,5.60345312591948,1.00000000015502,0.390000595641745
8600.00000001376,6.60499812152431,1.00000000015748,0.395947427889662
8700.00000001412,7.6986048247292,1.00000000017227,0.401947992048947
8800.00000001448,8.95910088032296,1.0000000001816,0.407237020108093
8900.00000001485,10.3646788332904,1.00000000018013,0.413009731645113
9000.00000001521,11.9022286842348,1.00000000018995,0.418202618903078
9100.00000001557,13.6470161260546,1.00000000019125,0.42325807225282
9200.00000001594,15.5265113619691,1.00000000019639,0.42861960248212
9300.0000000163,17.6044370491353,1.00000000019888,0.43314055967564
9400.00000001667,19.8889688929831,1.00000000020156,0.437983491742049
9500.00000001703,22.3275218055981,1.00000000022119,0.442563905155302
9600.00000001739,25.0166729020406,1.00000000021593,0.446757489425283
9700.00000001776,27.8857358731497,1.0000000002197,0.451413580088959
9800.00000001812,30.9661206911574,1.0000000002253,0.455308611706016
9900.00000001848,34.3037507073164,1.00000000022296,0.459315962171774
10000.0000000188,37.8125677410108,1.00000000022884,0.463477124393468
10100.0000000192,41.5921908012719,1.00000000023106,0.466825013518276
10200.0000000196,45.5927726133602,1.00000000023812,0.47070371129203
10300.0000000199,49.8008196972253,1.00000000023954,0.474154597058158
10400.0000000203,54.2965121479201,1.00000000023046,0.477391128944326
10500.0000000207,58.9769118940406,1.00000000024507,0.481031529390653
10600.000000021,63.9238896490777,1.00000000024559,0.483701589965565
10700.0000000214,69.1216170584714,1.00000000025731,0.486881240642216
10800.0000000218,74.5115060322305,1.00000000026143,0.489921347511806
10900.0000000221,80.195355175249,1.00000000025923,0.492374477104231
11000.0000000225,86.0735188706956,1.00000000024905,0.495641422905447
11100.0000000229,92.1929813902984,1.00000000025325,0.497933629792763
11200.0000000232,98.5770877147481,1.00000000027105,0.500218887806443
11300.0000000236,105.132782260291,1.00000000026527,0.503101034864278
11400.0000000239,111.965241108072,1.00000000025818,0.504920831091116
11500.0000000243,118.996301534728,1.00000000026003,0.507491378444975
11600.0000000247,126.228452452598,1.00000000026514,0.509641088845006
11700.000000025,133.721366013118,1.00000000025896,0.511280512313857
11800.0000000254,141.363579320453,1.00000000027286,0.51383657106777
11900.0000000258,149.245394045766,1.00000000025732,0.51528846654906
12000.0000000261,157.323697565609,1.00000000025876,0.517004626673903
12100.0000000265,165.556150090639,1.00000000027258,0.519142290812996
12200.0000000269,174.027319699577,1.00000000026476,0.520176531564178
12300.0000000272,182.627156558762,1.00000000026316,0.522145147275106
12400.0000000276,191.416525976946,1.0000000002682,0.523568051462089
12500.0000000279,200.390276051773,1.00000000026116,0.52457089173247
12600.0000000283,209.471449744559,1.00000000027246,0.526385104772017
12700.0000000287,218.754105911787,1.00000000025937,0.527431293204163
12800.000000029,228.146962389051,1.00000000025449,0.528626874201858
12900.0000000294,237.672244056265,1.00000000026534,0.529978366928313
13000.0000000298,247.36085940704,1.00000000026204,0.530669095207774
13100.0000000301,257.116883007285,1.00000000026071,0.531987138632174
13200.0000000305,267.025660027484,1.00000000026673,0.532760291901016
13300.0000000309,277.025100070395,1.00000000026032,0.533528249924159
13400.0000000312,287.100491546116,1.00000000026839,0.534665999555753
13500.0000000316,297.308086248382,1.00000000025631,0.535232760356795
13600.0000000319,307.550116895601,1.00000000025014,0.536205628250269
13700.0000000323,317.890565951939,1.00000000025475,0.536808103913039
13800.0000000327,328.301377049849,1.00000000025816,0.537107317179029
13900.000000033,338.737746429444,1.00000000026038,0.538137466223237
14000.0000000334,349.267958777795,1.00000000026484,0.53850115766597
14100.0000000338,359.804417025557,1.00000000024898,0.539057414592202
14200.0000000341,370.384904627478,1.00000000025161,0.539576735224787
14300.0000000345,381.012594827078,1.00000000025169,0.539729652925796
14400.0000000349,391.622110174014,1.00000000025361,0.540305021013492
14500.0000000352,402.282504268663,1.00000000024089,0.540968433906333
14600.0000000356,412.927857407333,1.00000000024187,0.541000866773621
14700.0000000359,423.567303729802,1.00000000024785,0.540978189509837
14800.0000000363,434.225884670064,1.00000000024726,0.541424167787015
14900.0000000367,444.834095142957,1.00000000024887,0.541923680671672
15000.000000037,455.44988735257,1.00000000023892,0.541915247873156
15100.0000000374,466.029427088416,1.00000000023431,0.542079849111773
15200.0000000378,476.561679869292,1.00000000024143,0.542276170298706
15300.0000000381,487.085977801656,1.00000000024057,0.54195058794348
15400.0000000385,497.531755233181,1.00000000024074,0.542476589662179
15500.0000000389,507.944776997786,1.00000000023471,0.542778299673975
15600.0000000392,518.304828026196,1.00000000022805,0.542548089214187
15700.0000000396,528.582084385423,1.0000000002269,0.542625254840869
15800.0000000399,538.821578797752,1.00000000024033,0.542215423718705
15900.0000000403,548.965200026858,1.00000000023242,0.542458769033831
16000.0000000407,559.039565146349,1.00000000023149,0.542508175236593
16100.000000041,569.04326872845,1.00000000023235,0.542533048836311
16200.0000000414,578.937591231169,1.00000000023702,0.542469097807509
16300.0000000418,588.767492173055,1.00000000022824,0.542148352584229
16400.0000000418,598.486992647169,1.00000000022179,0.542123157172106
16500.0000000404,608.106480576883,1.00000000021844,0.542039092540144
16600.0000000389,617.642398152671,1.0000000002237,0.541918341089068
16700.0000000375,627.047576858927,1.00000000022107,0.541959587668129
16800.000000036,636.364873601153,1.00000000021882,0.542139220477128
16900.0000000346,645.562338893039,1.00000000021577,0.541569783043513
17000.0000000331,654.63750684224,1.00000000020941,0.541730361272621
17100.0000000317,663.613320929178,1.00000000021259,0.5409139979659
17200.0000000302,672.447918658691,1.00000000021582,0.541205377356706
17300.0000000287,681.171988627395,1.00000000020428,0.540704682238888
17400.0000000273,689.768353071554,1.00000000020501,0.540708242536406
17500.0000000258,698.22460191922,1.00000000020762,0.540527840649277
17600.0000000244,706.568969170184,1.00000000021414,0.540162474223498
17700.0000000229,714.761999503789,1.00000000020131,0.539827462439831
17800.0000000215,722.826489842466,1.00000000020726,0.539521985910632
17900.00000002,730.757967924737,1.00000000019955,0.539120577618978
18000.0000000186,738.537349363524,1.00000000020281,0.539072423809468
18100.0000000171,746.191762270185,1.00000000019709,0.538737371016066
18200.0000000156,753.69201039882,1.00000000020565,0.538641865268425
18300.0000000142,761.049799927732,1.00000000019281,0.538457766559395
18400.0000000127,768.271841460444,1.00000000019263,0.538011599105753
18500.0000000113,775.332578559416,1.00000000018944,0.537581749915984
18600.0000000098,782.259914542129,1.00000000019124,0.537251100086869
18700.0000000084,789.031829452611,1.0000000001911,0.536831992302516
18800.0000000069,795.652437378998,1.0000000001852,0.536778703694601
18900.0000000055,802.133914341056,1.00000000019199,0.536373294708003
19000.000000004,808.45174490672,1.00000000018461,0.536355594835185
19100.0000000026,814.629519351683,1.00000000018987,0.536146791146314
19200.0000000011,820.653169673305,1.00000000017348,0.535541107075335
19299.9999999996,826.519947869446,1.0000000001811,0.535238369124628
19399.9999999982,832.246550944702,1.00000000017832,0.534564422837707
19499.9999999967,837.810193243182,1.00000000018631,0.534527227692573
19599.9999999953,843.229927759285,1.00000000017631,0.534306081893351
19699.9999999938,848.498458911658,1.00000000017673,0.534196979763388
19799.9999999924,853.609656662378,1.00000000017025,0.534162267978925
19899.9999999909,858.580617535792,1.00000000017145,0.533610916222839
19999.9999999895,863.392663195859,1.00000000017142,0.533115980791167
20099.999999988,868.057705581882,1.0000000001725,0.532383714830911
20199.9999999865,872.576047737359,1.00000000016658,0.532020951874581
20299.9999999851,876.93853886651,1.00000000017245,0.531872486258609
20399.9999999836,881.162661999,1.00000000016945,0.532091302298568
20499.9999999822,885.23398394789,1.00000000016431,0.532493907538328
20599.9999999807,889.160191607415,1.00000000016135,0.532395920649732
20699.9999999793,892.94702833902,1.00000000015989,0.531993761017789
20799.9999999778,896.582769406868,1.00000000016157,0.530942096833059
20899.9999999764,900.082009318312,1.00000000016448,0.529727072101594
20999.9999999749,903.433997283435,1.00000000015417,0.528668279435034
21099.9999999734,906.641296392954,1.00000000015872,0.52834510289644
21199.999999972,909.713628229664,1.00000000015232,0.529032761751224
21299.9999999705,912.64031427963,1.00000000015878,0.530295681987768
21399.9999999691,915.436409558845,1.00000000016032,0.531736777916601
21499.9999999676,918.098756862924,1.00000000015756,0.532343014671336
21599.9999999662,920.627040547502,1.00000000015599,0.53176143098295
21699.9999999647,923.031206086638,1.00000000015023,0.529602691698094
21799.9999999633,925.29845862128,1.00000000015033,0.526847188228002
21899.9999999618,927.435605774229,1.00000000014788,0.524496842982148
21999.9999999603,929.439585982941,1.00000000014674,0.52308061667908
22099.9999999589,931.30651162776,1.00000000014942,0.52423483065292
22199.9999999574,933.05026089884,1.00000000015013,0.527148340131588
22299.999999956,934.666476165005,1.00000000015057,0.531008561696159
22399.9999999545,936.169000652342,1.00000000015455,0.534162686295175
22499.9999999531,937.563390048683,1.00000000015569,0.535132112276358
22599.9999999516,938.848284331777,1.00000000015511,0.533696878980886
22699.9999999502,940.030139512151,1.00000000015345,0.529229154342986
22799.9999999487,941.096148326023,1.00000000014612,0.523321887421833
22899.9999999473,942.043118871925,1.00000000013343,0.518298903841335
22999.9999999458,942.868230588435,1.00000000013134,0.515424336906791
23099.9999999443,943.565075446969,1.00000000013139,0.517246794937294
23199.9999999429,944.147412790031,1.00000000013275,0.522759979110184
23299.9999999414,944.620625216611,1.00000000013812,0.529906966980866
23399.99999994,944.999644982514,1.00000000014887,0.536605885498856
23499.9999999385,945.30080696326,1.00000000015063,0.540183288356794
23599.9999999371,945.524688213935,1.00000000015752,0.539938448441608
23699.9999999356,945.677745573818,1.00000000015319,0.535081389145996
23799.9999999342,945.748767227892,1.00000000014672,0.526158226808122
23899.9999999327,945.724236451931,1.00000000012861,0.515992535242724
23999.9999999312,945.596808812286,1.00000000011643,0.506892707312016
24099.9999999298,945.3510155414,1.00000000011571,0.503376575991014
24199.9999999283,944.993866299456,1.00000000011393,0.507507175016961
24299.9999999269,944.533419751101,1.00000000012489,0.516708933198213
24399.9999999254,943.986072142216,1.00000000013797,0.52869535811765
24499.999999924,943.377385796589,1.00000000015428,0.538883557003142
24599.9999999225,942.718783156537,1.00000000016653,0.545107545330849
24699.9999999211,942.024810632412,1.00000000016946,0.546547449942521
24799.9999999196,941.295525316752,1.00000000016376,0.541311869151073
24899.9999999181,940.519550478718,1.00000000015359,0.53058052703363
24999.9999999167,939.685625086595,1.00000000014125,0.515687854355359
25099.9999999152,938.769599386959,1.00000000011641,0.499633546843632
25199.9999999138,937.75736185395,1.00000000010047,0.488814135812252
25299.9999999123,936.643580686305,1.00000000009328,0.486742886192932
25399.9999999109,935.4300003693,1.00000000009771,0.495228483095671
25499.9999999094,934.137902992842,1.00000000011558,0.511171666936127
25599.999999908,932.787210395598,1.00000000014055,0.528150292882027
25699.9999999065,931.402724714873,1.00000000016067,0.541479987242018
25799.9999999051,930.005034845155,1.0000000001813,0.549954296574869
25899.9999999036,928.602650005258,1.00000000018617,0.552143856170697
25999.9999999021,927.200166630327,1.00000000017654,0.547100569927067
26099.9999999007,925.785851205964,1.00000000017021,0.535925522050637
26199.9999998992,924.342935808623,1.00000000015056,0.517961157982634
26299.9999998978,922.850920963613,1.00000000012107,0.496654898314078
26399.9999998963,921.284479752899,1.00000000009355,0.477242134806205
26499.9999998949,919.6341569547,1.000000000081,0.46635431425987
26599.9999998934,917.895230187617,1.00000000008204,0.468443677502435
26699.999999892,916.078318628946,1.00000000009745,0.484527548823955
26799.9999998905,914.207027366065,1.0000000001225,0.506570855502211
26899.999999889,912.302043032404,1.00000000014797,0.527976058218082
26999.9999998876,910.390570131042,1.00000000017023,0.544278229828375
27099.9999998861,908.489142670214,1.00000000019416,0.553238079437774
27199.9999998847,906.608480793826,1.00000000021375,0.556746906091932
27299.9999998832,904.751587303901,1.00000000020253,0.552795033808595
27399.9999998818,902.908589665126,1.00000000018665,0.543421988865369
27499.9999998803,901.066619026399,1.00000000016235,0.525755167067164
27599.9999998789,899.203257383088,1.00000000013727,0.502072234405357
27699.9999998774,897.295407511061,1.00000000010365,0.476222049253383
27799.9999998759,895.326329924375,1.00000000008188,0.454170907307077
27899.9999998745,893.284007431755,1.00000000007067,0.444551295792606
27999.999999873,891.171104017171,1.00000000007467,0.451304912579279
28099.9999998716,889.002287697456,1.00000000009466,0.472401867901525
28199.9999998701,886.794612296452,1.0000000001245,0.499951439557579
28299.9999998687,884.574427688273,1.00000000016132,0.524236073598973
28399.9999998672,882.35965515632,1.00000000018326,0.542408574935185
28499.9999998658,880.167767734069,1.00000000020479,0.553307412465426
28599.9999998643,878.009219638898,1.0000000002147,0.557217041233717
28699.9999998629,875.885522788727,1.00000000021758,0.557306382965384
