Time,AGPnorm,Energy,Entropy
0,0,1,-1.14322283354894e-17
99.9999999999986,3.43977729155142e-05,1.00000000000025,0.00141484382601602
199.999999999993,0.00297142480378285,1.00000000000157,0.00221742974829534
300,0.00750830875614464,0.99999999999939,0.00390422350453731
400.000000000022,0.0103814128979579,1.00000000000144,0.00664876094620467
500.000000000045,0.0125269486103432,1.00000000000036,0.00884511124712064
600.000000000068,0.0179121951761889,0.999999999999961,0.0123534769926181
700.000000000091,0.022192317900369,1.00000000000164,0.0157304404285041
800.000000000113,0.0285792638999617,0.999999999999612,0.0193367864855816
900.000000000136,0.035548991173277,1.00000000000107,0.0237992110408969
1000.00000000016,0.0410487824718468,1.00000000000064,0.0278510200934191
1100.0000000001,0.0489719515730445,0.99999999999985,0.0327192090804316
1200,0.0572513546879404,1.00000000000161,0.0377421351332458
1299.99999999991,0.0659322604876643,0.999999999999846,0.0428086614248131
1399.99999999982,0.07520937088256,1.00000000000071,0.048628690615934
1499.99999999973,0.0839293082709074,1.00000000000084,0.054217977098238
1599.99999999964,0.094059675894234,0.9999999999999,0.0604178832879801
1699.99999999955,0.104682432217927,1.00000000000147,0.0670049088340132
1799.99999999946,0.114807235157233,1.00000000000006,0.0735869407653228
1899.99999999937,0.125490725085143,1.00000000000046,0.0809096940721364
1999.99999999928,0.13653478049151,1.00000000000097,0.0882705228708253
2099.99999999919,0.148037694050035,0.999999999999985,0.096189475941618
2199.99999999909,0.159738513991719,1.00000000000122,0.104772155518518
2299.999999999,0.170650866570563,1.00000000000027,0.113443170755614
2399.99999999891,0.181983006139308,1.00000000000041,0.123080756849578
2499.99999999882,0.193974474112299,1.00000000000117,0.133241525217952
2599.99999999873,0.205849205328405,1.00000000000032,0.144255388653434
2699.99999999864,0.217458684099924,1.00000000000201,0.156612950707097
2799.99999999855,0.228504915976402,1.00000000000379,0.169781795780095
2899.99999999846,0.240460456720673,1.00000000000935,0.184693135280083
2999.99999999837,0.25115300024466,1.00000000002215,0.201021870044657
3099.99999999828,0.263708458063968,1.0000000000422,0.218178268025073
3199.99999999819,0.276973520588416,1.00000000006885,0.236469097348252
3299.99999999809,0.287299462290468,1.0000000001074,0.254438629439212
3399.999999998,0.31359398876861,1.00000000015499,0.272571558557928
3499.99999999791,0.336593205014588,1.00000000020274,0.290549614307032
3599.99999999782,0.380840040597295,1.00000000027716,0.307567978527389
3699.99999999773,0.456372121019674,1.00000000031505,0.324734858054213
3799.99999999764,0.546219854844868,1.0000000003784,0.341052735116148
3899.99999999755,0.709177059749958,1.00000000045283,0.356804983443725
3999.99999999746,0.917841371480638,1.00000000049145,0.372280574471512
4099.99999999738,1.20493120004068,1.00000000057994,0.386583903648254
4199.99999999775,1.60920844410933,1.00000000060816,0.400646439460437
4299.99999999811,2.09651015557139,1.00000000065939,0.414098144831375
4399.99999999848,2.742388418835,1.00000000069213,0.426626709503087
4499.99999999884,3.52952009581,1.00000000075373,0.438776716714647
4599.9999999992,4.4694943488403,1.00000000080571,0.450060359591015
4699.99999999957,5.61625733927331,1.00000000084603,0.460846495267829
4799.99999999993,6.92845465970748,1.00000000088042,0.471010809031161
4900.00000000029,8.46092752429112,1.00000000091699,0.480419732974112
5000.00000000066,10.2096844765836,1.00000000091748,0.489484531530228
5100.00000000102,12.1608795346663,1.00000000093067,0.497906729891635
5200.00000000139,14.35813473549,1.00000000097773,0.505632545189251
5300.00000000175,16.7648173837926,1.00000000099367,0.512978638116751
5400.00000000211,19.4031099502936,1.00000000098506,0.519887898529795
5500.00000000248,22.2721397229674,1.00000000098938,0.526249719967373
5600.00000000284,25.3479803746686,1.00000000103037,0.532011599321408
5700.00000000321,28.6501194733605,1.00000000102741,0.537525589211698
5800.00000000357,32.150552586515,1.00000000105104,0.542485583798834
5900.00000000393,35.8493214534407,1.000000001045,0.547306429867755
6000.0000000043,39.7381719399432,1.00000000102374,0.551729193837773
6100.00000000466,43.7963157437612,1.00000000103962,0.555647732836814
6200.00000000502,48.0232060867545,1.00000000102839,0.559413876302673
6300.00000000539,52.3935921759509,1.00000000103468,0.562694249543611
6400.00000000575,56.9026059035088,1.00000000103794,0.565721548213501
6500.00000000612,61.5314498523525,1.00000000100596,0.568832015786467
6600.00000000648,66.2654326404464,1.00000000101471,0.571354680463609
6700.00000000684,71.0957514634967,1.00000000104203,0.573706926749535
6800.00000000721,75.9956855253711,1.00000000104848,0.575815379958231
6900.00000000757,80.9649258076562,1.00000000100713,0.57765937376463
7000.00000000793,85.9777635553449,1.00000000102361,0.579552141085431
7100.0000000083,91.0225122568793,1.00000000101051,0.580961029358859
7200.00000000866,96.0936322663788,1.00000000098766,0.582284825102058
7300.00000000903,101.161405166648,1.000000000991,0.583784567276196
7400.00000000939,106.230138295447,1.00000000096777,0.584670735586524
7500.00000000975,111.275718803204,1.00000000094161,0.585635910008857
7600.00000001012,116.286794480562,1.00000000096162,0.586146462930458
7700.00000001048,121.263800580575,1.00000000094363,0.58695595175675
7800.00000001084,126.176588855262,1.00000000094536,0.587797197596497
7900.00000001121,131.033903379939,1.00000000090516,0.587713126979478
8000.00000001157,135.816288049797,1.00000000090407,0.588477508752789
8100.00000001194,140.512031592335,1.00000000089473,0.588684848184897
8200.0000000123,145.126476995857,1.00000000088114,0.588876239494508
8300.00000001266,149.635229584136,1.00000000087572,0.588884825264377
8400.00000001303,154.045226152926,1.00000000084622,0.589072679602656
8500.00000001339,158.345803417957,1.00000000083083,0.588737436814045
8600.00000001376,162.523478256808,1.000000000858,0.589126488132962
8700.00000001412,166.590133815701,1.00000000084036,0.588052860181283
8800.00000001448,170.521773855846,1.00000000079227,0.588906485347319
8900.00000001485,174.329290564006,1.00000000082994,0.587774071517107
9000.00000001521,178.003812962727,1.00000000079363,0.587729838572309
9100.00000001557,181.53778508379,1.00000000079496,0.587885187883305
9200.00000001594,184.939634554652,1.00000000074226,0.586618169791109
9300.0000000163,188.196222892721,1.00000000075354,0.587512776980193
9400.00000001667,191.311983319023,1.00000000073741,0.58602868279266
9500.00000001703,194.288312122103,1.00000000074393,0.58627129145309
9600.00000001739,197.113946848668,1.00000000071129,0.585403612762289
9700.00000001776,199.802312396172,1.00000000072327,0.585318669892275
9800.00000001812,202.343215664079,1.00000000070383,0.5843318364383
9900.00000001848,204.739298669835,1.00000000070349,0.584586606549968
10000.0000000188,206.998796969829,1.00000000068856,0.584100714138594
10100.0000000192,209.10872379154,1.00000000069193,0.583315020862228
10200.0000000196,211.084424013354,1.00000000068585,0.584268337701216
10300.0000000199,212.920804978642,1.00000000065469,0.582366917330604
10400.0000000203,214.616675776654,1.00000000066683,0.582411125361419
10500.0000000207,216.184231159072,1.00000000065198,0.58271761732502
10600.000000021,217.613044475112,1.00000000063291,0.580746056401706
10700.0000000214,218.914411443311,1.0000000006302,0.581922509241699
10800.0000000218,220.08890661196,1.00000000061794,0.580932618235555
10900.0000000221,221.134764745385,1.00000000062623,0.579560216550409
11000.0000000225,222.062291509546,1.00000000060861,0.581831840069201
11100.0000000229,222.868948662726,1.00000000059728,0.580200968266852
11200.0000000232,223.560157431845,1.00000000056993,0.577696716797469
11300.0000000236,224.137190506219,1.00000000059098,0.581518934725932
11400.0000000239,224.608593431195,1.00000000057923,0.580545341358901
11500.0000000243,224.97672959285,1.00000000054257,0.575371978700571
11600.0000000247,225.236219785208,1.00000000054336,0.578706230129097
11700.000000025,225.405966880163,1.00000000057982,0.58142834581391
11800.0000000254,225.487475779391,1.00000000056185,0.576358193396718
11900.0000000258,225.47394847021,1.00000000053262,0.572662690633476
12000.0000000261,225.374497950249,1.00000000053892,0.577499724785094
12100.0000000265,225.19955210771,1.00000000059862,0.580468179821571
12200.0000000269,224.95756902647,1.00000000055223,0.573905587581398
12300.0000000272,224.637806990827,1.00000000051114,0.566049436140634
12400.0000000276,224.242613143793,1.00000000053673,0.574403207045396
12500.0000000279,223.796794055112,1.00000000061553,0.580610791598458
12600.0000000283,223.300557417364,1.00000000055974,0.571191622895635
12700.0000000287,222.742752465848,1.00000000049006,0.560195465161901
12800.000000029,222.120311352179,1.00000000053248,0.567519522331427
12900.0000000294,221.457674599175,1.00000000061493,0.581801412433649
13000.0000000298,220.769370751924,1.00000000059825,0.572463285893553
13100.0000000301,220.036842296075,1.00000000049626,0.557107291672892
13200.0000000305,219.250744899615,1.0000000004877,0.553576847363304
13300.0000000309,218.425932545752,1.00000000060775,0.575800131141093
13400.0000000312,217.587320219834,1.00000000067141,0.580693243182444
13500.0000000316,216.733568819501,1.00000000054911,0.560641865072974
13600.0000000319,215.840046533037,1.00000000047154,0.545537795839764
13700.0000000323,214.906130515919,1.00000000054074,0.550402411973766
13800.0000000327,213.95321544963,1.00000000066682,0.580348694682567
13900.000000033,213.002630981731,1.0000000006909,0.57654849306349
14000.0000000334,212.043759769024,1.000000000562,0.553147416228704
14100.0000000338,211.054843728826,1.00000000047227,0.536941990114784
14200.0000000341,210.034453025879,1.00000000052191,0.542112844438349
14300.0000000345,209.003108609565,1.00000000067841,0.577795179101159
14400.0000000349,207.982065942153,1.00000000071148,0.577943690106239
14500.0000000352,206.963676190524,1.000000000588,0.550594958272287
14600.0000000356,205.928442616327,1.00000000046762,0.533609630156655
14700.0000000359,204.868006231249,1.00000000048621,0.530490426475864
14800.0000000363,203.794742740139,1.00000000060528,0.55719424200378
14900.0000000367,202.730072426953,1.00000000076393,0.583987616599398
15000.000000037,201.680914270078,1.00000000068251,0.560839173766145
15100.0000000374,200.629880029907,1.00000000055553,0.533144806089285
15200.0000000378,199.565660480547,1.00000000048388,0.526807122897502
15300.0000000381,198.486592111192,1.00000000054459,0.530880688984549
15400.0000000385,197.404115548793,1.00000000065256,0.5579871447709
15500.0000000389,196.335726511231,1.00000000076118,0.579057089662055
15600.0000000392,195.282143778859,1.00000000068442,0.556057064566778
15700.0000000396,194.230937143897,1.00000000050794,0.524362415093127
15800.0000000399,193.173058995576,1.00000000051721,0.525098487094645
15900.0000000403,192.107410383747,1.0000000005311,0.530320557410392
16000.0000000407,191.041708758417,1.00000000061586,0.542683357031187
16100.000000041,189.985113345412,1.00000000071063,0.567136251241428
16200.0000000414,188.942715022254,1.00000000072985,0.564288130058341
16300.0000000418,187.910659961804,1.00000000058292,0.53133090646601
16400.0000000418,186.878826088842,1.00000000055136,0.520077806568274
16500.0000000404,185.846929988726,1.00000000053933,0.528042096763417
16600.0000000389,184.814441671659,1.00000000056191,0.533270108325396
16700.0000000375,183.786127183392,1.00000000061949,0.540096819454907
16800.000000036,182.767884838071,1.00000000070296,0.554514591430573
16900.0000000346,181.760989616114,1.00000000069108,0.553063666907825
17000.0000000331,180.763433203109,1.00000000063166,0.532551410219793
17100.0000000317,179.771675002195,1.00000000054688,0.518623830715173
17200.0000000302,178.783283889866,1.00000000052911,0.525186646330134
17300.0000000287,177.799264611871,1.00000000058431,0.535430330532012
17400.0000000273,176.820055058503,1.00000000062233,0.53421509055716
17500.0000000258,175.848623479834,1.0000000006305,0.533471740603622
17600.0000000244,174.886299402196,1.00000000066777,0.540975915786514
17700.0000000229,173.932923911684,1.00000000066446,0.543695685167892
17800.0000000215,172.988746180074,1.00000000060594,0.529759567453635
17900.00000002,172.051415481894,1.00000000055918,0.520443095831807
18000.0000000186,171.121185285846,1.00000000056301,0.528941436081336
18100.0000000171,170.197598548862,1.00000000057746,0.536655541688957
18200.0000000156,169.280793823492,1.00000000060872,0.533191999806174
18300.0000000142,168.371637699142,1.00000000059148,0.524669855697534
18400.0000000127,167.470264638352,1.0000000005904,0.526599937666842
18500.0000000113,166.577244100032,1.00000000061566,0.535842298955126
18600.0000000098,165.693256167579,1.0000000006364,0.53820068381927
18700.0000000084,164.817245904628,1.00000000061927,0.532034384912599
18800.0000000069,163.949897075658,1.00000000056035,0.527085982364396
18900.0000000055,163.090638612463,1.00000000061089,0.534598014999736
19000.000000004,162.239913309491,1.000000000561,0.536955048837073
19100.0000000026,161.396936705644,1.0000000005613,0.530821352455797
19200.0000000011,160.561628085721,1.00000000054766,0.520470465305739
19299.9999999996,159.734913785815,1.00000000057216,0.518776934369521
19399.9999999982,158.916748731814,1.00000000057987,0.525674318184233
19499.9999999967,158.106705555169,1.00000000064112,0.540265106357459
19599.9999999953,157.305055955148,1.00000000060345,0.542597437329285
19699.9999999938,156.511437117572,1.00000000058164,0.535857976992189
19799.9999999924,155.72643505842,1.00000000058412,0.535367622651361
19899.9999999909,154.949930206135,1.00000000059521,0.540786624090734
19999.9999999895,154.182458909872,1.00000000057315,0.538162161285417
20099.999999988,153.424165928652,1.0000000004962,0.524115999930563
20199.9999999865,152.674982144814,1.00000000053513,0.514631802412727
20299.9999999851,151.934964414186,1.00000000057496,0.517004576030091
20399.9999999836,151.203647348289,1.00000000063324,0.522852004875004
20499.9999999822,150.480208859296,1.00000000062791,0.533424535129687
20599.9999999807,149.7644803575,1.00000000061295,0.541047635894003
20699.9999999793,149.056143065261,1.00000000059228,0.543311553615353
20799.9999999778,148.355432537506,1.00000000060662,0.538880569666136
20899.9999999764,147.661732272552,1.00000000063989,0.544893030512652
20999.9999999749,146.975648169792,1.00000000061231,0.541866378342861
21099.9999999734,146.298878863192,1.00000000055154,0.53369757322366
21199.999999972,145.632851058039,1.00000000050271,0.518096383471716
21299.9999999705,144.978202421372,1.00000000052085,0.507655730403489
21399.9999999691,144.333325772031,1.00000000057956,0.511163131705579
21499.9999999676,143.696350338153,1.00000000063764,0.521122481212915
21599.9999999662,143.066576291573,1.00000000062418,0.520198760144661
21699.9999999647,142.443780517224,1.00000000059796,0.525421044443199
21799.9999999633,141.827339500213,1.00000000059919,0.541690223245199
21899.9999999618,141.216702323976,1.00000000059873,0.54546872102176
21999.9999999603,140.611459753337,1.0000000006185,0.546001345972645
22099.9999999589,140.01115113251,1.00000000065185,0.54729935983237
22199.9999999574,139.416784986369,1.00000000063885,0.542166309544175
22299.999999956,138.831044190065,1.00000000054238,0.529394725252628
22399.9999999545,138.257026518107,1.00000000049403,0.516837739953768
22499.9999999531,137.696117067462,1.00000000049611,0.507738274758642
22599.9999999516,137.146526248026,1.00000000053643,0.502632971324947
22699.9999999502,136.605566429296,1.00000000063456,0.510625973693879
22799.9999999487,136.070452535411,1.0000000006168,0.517858961050315
22899.9999999473,135.541306900909,1.00000000060619,0.515075639995902
22999.9999999458,135.017732683048,1.00000000061124,0.520953393922155
23099.9999999443,134.49873733874,1.0000000005905,0.533931276878032
23199.9999999429,133.983008824073,1.00000000065969,0.547194430300601
23299.9999999414,133.469824852931,1.00000000066329,0.548992134593931
23399.99999994,132.959549960231,1.0000000006479,0.545765920499881
23499.9999999385,132.453067307017,1.00000000064304,0.542740145521047
23599.9999999371,131.952944032001,1.0000000005794,0.532787988832244
23699.9999999356,131.462496480977,1.00000000052163,0.520803516735432
23799.9999999342,130.984322924821,1.00000000051754,0.515132775661488
23899.9999999327,130.518279738797,1.00000000052217,0.512430777286269
23999.9999999312,130.063670362267,1.00000000054807,0.50386810800316
24099.9999999298,129.61780338578,1.00000000057003,0.503989890516208
24199.9999999283,129.178457262373,1.00000000062005,0.510731336067401
24299.9999999269,128.743775965594,1.00000000060316,0.515277158666632
24399.9999999254,128.313531335834,1.0000000005908,0.515268768620447
24499.999999924,127.886483600254,1.00000000063542,0.522938162985123
24599.9999999225,127.460592850154,1.00000000063842,0.535337053580224
24699.9999999211,127.034316499723,1.00000000066003,0.547102420429414
24799.9999999196,126.608116369564,1.00000000064745,0.548283774176178
24899.9999999181,126.1844125807,1.00000000061382,0.542029179837606
24999.9999999167,125.764910286697,1.00000000061278,0.537293232605855
25099.9999999152,125.350597631623,1.00000000059097,0.535325050984643
25199.9999999138,124.942829012129,1.00000000058818,0.530007529698539
25299.9999999123,124.544333362085,1.00000000054492,0.52085893585034
25399.9999999109,124.156555851898,1.00000000054426,0.517192951940818
25499.9999999094,123.779825702819,1.00000000053656,0.517272664318086
25599.999999908,123.413022872011,1.00000000055073,0.511748681814924
25699.9999999065,123.055707558843,1.00000000055444,0.503872985671103
25799.9999999051,122.70662955561,1.00000000058482,0.506637505734402
25899.9999999036,122.363314909848,1.00000000060866,0.511994018179102
25999.9999999021,122.023666546306,1.00000000062137,0.521431082186826
26099.9999999007,121.685394353124,1.00000000062364,0.527039200542261
26199.9999998992,121.346423762818,1.00000000063629,0.529923826746775
26299.9999998978,121.006864273169,1.00000000063368,0.535535353604253
26399.9999998963,120.665580965281,1.00000000065745,0.542297555019789
26499.9999998949,120.323832605819,1.00000000062902,0.544242374748788
26599.9999998934,119.98422464305,1.00000000061741,0.542747226570071
26699.999999892,119.648402280038,1.00000000059296,0.538918175920534
26799.9999998905,119.317469151984,1.00000000058392,0.535964539689067
26899.999999889,118.991657703258,1.00000000058636,0.535573717376846
26999.9999998876,118.670781646261,1.00000000061612,0.535405659770256
27099.9999998861,118.356187669233,1.00000000058568,0.529138473370357
27199.9999998847,118.050146746337,1.00000000052235,0.523370504323865
27299.9999998832,117.755111363439,1.0000000005182,0.52013567129237
27399.9999998818,117.4705426255,1.00000000054538,0.51806640123459
27499.9999998803,117.195837301106,1.00000000055049,0.512338510228718
27599.9999998789,116.929249222612,1.00000000055927,0.513276095652248
27699.9999998774,116.669636742653,1.00000000057095,0.516614790286576
27799.9999998759,116.414263453938,1.00000000061487,0.524278190844388
27899.9999998745,116.161428150181,1.000000000602,0.528647585831123
27999.999999873,115.908864413076,1.00000000062113,0.539947388967605
28099.9999998716,115.654629384639,1.00000000063345,0.538030370732156
28199.9999998701,115.398458871463,1.0000000006389,0.540242105154156
28299.9999998687,115.140236852834,1.00000000067463,0.542767670039447
28399.9999998672,114.880040075913,1.00000000063135,0.545931456808411
28499.9999998658,114.620070527752,1.00000000060785,0.545029596561567
28599.9999998643,114.363100513501,1.0000000005717,0.54178571704075
28699.9999998629,114.110826964814,1.00000000057637,0.542969787966164
28799.9999998614,113.862187295,1.00000000060599,0.544097932230436
28899.9999998599,113.615834395483,1.000000000637,0.543096893792049
28999.9999998585,113.371457430277,1.00000000064169,0.542636770153911
