Time,AGPnorm,Energy,Entropy
0,0,1,1.0144183928747e-18
99.9999999999986,0.0136760288808229,1.00000000000104,0.034317858540157
199.999999999993,0.0346581109680293,1.0000000000027,0.105468798808292
300,0.0643714626912796,1.00000000008758,0.224911326700872
400.000000000022,0.121212874900732,1.00000000185389,0.405194825114783
500.000000000045,0.548753322720168,1.00000000410165,0.524287754275024
600.000000000068,1.6916734774015,1.00000000510765,0.583411929772753
700.000000000091,3.58808364477398,1.00000000509449,0.599720761804494
800.000000000113,5.63042778909189,1.00000000483647,0.604783302821956
900.000000000136,7.59250671785971,1.00000000461779,0.59369767015815
1000.00000000016,9.07546697343021,1.0000000039273,0.587815626337762
1100.0000000001,10.0844858730365,1.00000000346746,0.571035639391982
1200,10.5862572901849,1.00000000316862,0.575693995745067
1299.99999999991,10.6834197435458,1.00000000294728,0.566816077642629
1399.99999999982,10.5171451167952,1.00000000264402,0.531530700801748
1499.99999999973,10.2203392083854,1.00000000232038,0.495761062144875
1599.99999999964,9.85271671564577,1.00000000370886,0.559271795261334
1699.99999999955,9.42368907839169,1.00000000325197,0.50704593713397
1799.99999999946,9.02350803812442,1.00000000266831,0.487204289308974
1899.99999999937,8.60793963411943,1.00000000332629,0.500695442061304
1999.99999999928,8.22068687587912,1.00000000340046,0.525935758413781
2099.99999999919,7.86754771581964,1.00000000293281,0.477327002739261
2199.99999999909,7.52063346313096,1.00000000350333,0.545009769581611
2299.999999999,7.20428633834134,1.00000000313935,0.510681795670171
2399.99999999891,6.94625598763311,1.00000000302758,0.477887538176074
2499.99999999882,6.68753910157059,1.00000000307526,0.519834642630147
2599.99999999873,6.44492150379598,1.00000000382576,0.557821329324534
2699.99999999864,6.22568170319669,1.00000000279689,0.495760276781191
2799.99999999855,6.07475852594965,1.00000000280411,0.486693831877344
2899.99999999846,5.91330638293316,1.00000000356121,0.548769178451095
2999.99999999837,5.76607250788928,1.00000000321863,0.548610920149106
3099.99999999828,5.61252606272496,1.00000000362974,0.56886597652703
3199.99999999819,5.46220821533728,1.00000000367026,0.544847333781785
3299.99999999809,5.37941065067163,1.00000000231157,0.474768900535767
3399.999999998,5.33111892891978,1.00000000361708,0.542574794795856
3499.99999999791,5.26589011937219,1.00000000348752,0.554012308758811
3599.99999999782,5.20426168814553,1.00000000331176,0.568924796351779
3699.99999999773,5.13341882331785,1.000000003672,0.584785579504391
3799.99999999764,5.04473306998719,1.00000000314075,0.59854718665019
3899.99999999755,4.95481539635635,1.00000000392161,0.584660778766022
3999.99999999746,4.86669020856294,1.00000000368882,0.559764451608917
4099.99999999738,4.83324477707723,1.00000000248115,0.506917170620606
4199.99999999775,4.86610444046602,1.0000000033132,0.535455336317393
4299.99999999811,4.88234377984485,1.00000000386981,0.564640117155315
4399.99999999848,4.89061903552506,1.00000000328567,0.570415320240488
4499.99999999884,4.88524032420521,1.00000000358955,0.601564033360705
4599.9999999992,4.87459616783388,1.00000000358609,0.599888031264688
4699.99999999957,4.86618342020688,1.00000000368024,0.633629937290227
4799.99999999993,4.84043060227894,1.00000000326272,0.617596319667042
4900.00000000029,4.80460960691814,1.00000000398241,0.627485127800705
5000.00000000066,4.7547030609728,1.00000000368273,0.635459131344622
5100.00000000102,4.70107792007012,1.00000000360226,0.643012098290236
5200.00000000139,4.64493701374308,1.00000000413465,0.633906175598938
5300.00000000175,4.59019912576998,1.00000000381861,0.597458717492624
5400.00000000211,4.55452053716612,1.00000000294042,0.553853165448294
5500.00000000248,4.5906178596912,1.00000000272665,0.534277398158619
5600.00000000284,4.67659287097955,1.00000000353284,0.561213846473154
5700.00000000321,4.75313794847495,1.00000000399314,0.585083924192667
5800.00000000357,4.81554514159698,1.00000000353886,0.594774314947122
5900.00000000393,4.87049908838948,1.00000000406213,0.612115474074079
6000.0000000043,4.9130271419362,1.00000000384011,0.625261988053163
6100.00000000466,4.94651983022383,1.00000000395685,0.647765312076065
6200.00000000502,4.96369328850676,1.00000000419403,0.649841797624382
6300.00000000539,4.9747093956871,1.00000000390774,0.661262771987237
6400.00000000575,4.97516914909905,1.00000000397048,0.655615434986775
6500.00000000612,4.98237009437708,1.00000000356041,0.645350416176394
6600.00000000648,4.99365716139466,1.00000000408116,0.670538496381111
6700.00000000684,4.99615556238632,1.00000000403115,0.641183261695471
6800.00000000721,4.98890501814749,1.00000000391153,0.646671588181223
6900.00000000757,4.98629125626026,1.00000000386781,0.657151054592405
7000.00000000793,4.98108247976815,1.00000000407421,0.673900679183626
7100.0000000083,4.96548344195368,1.00000000402649,0.679978834517685
7200.00000000866,4.9483979587925,1.0000000039075,0.64997786546158
7300.00000000903,4.92964245502336,1.00000000417739,0.664628568415431
7400.00000000939,4.90266532794971,1.00000000429282,0.67432225543052
7500.00000000975,4.86482284075432,1.00000000454143,0.671781495768751
7600.00000001012,4.82307623797694,1.00000000391905,0.677917722395218
7700.00000001048,4.78089795705399,1.00000000416224,0.681405906837472
7800.00000001084,4.74228470760689,1.0000000044684,0.671831148890977
7900.00000001121,4.70653385413721,1.00000000470247,0.674451611770523
8000.00000001157,4.6724778769747,1.00000000436808,0.622331487545367
8100.00000001194,4.65290625002697,1.00000000352208,0.580818321227974
8200.0000000123,4.68496243820187,1.00000000346268,0.562345303950748
8300.00000001266,4.78104013408315,1.00000000374437,0.56960673250235
8400.00000001303,4.91226357975335,1.00000000419597,0.581851854096805
8500.00000001339,5.04770694178491,1.00000000429103,0.588663751559172
8600.00000001376,5.1759736027957,1.00000000450018,0.599883384962563
8700.00000001412,5.29860085131679,1.00000000447125,0.599924330374822
8800.00000001448,5.40897542118826,1.00000000425253,0.606461440366445
8900.00000001485,5.50925632559018,1.00000000451723,0.625296893158036
9000.00000001521,5.59768450853161,1.00000000427883,0.639309070256549
9100.00000001557,5.6768092132767,1.00000000452729,0.663601036709907
9200.00000001594,5.75111965237302,1.00000000418955,0.666975478935316
9300.0000000163,5.81809331752106,1.00000000455538,0.656615365773983
9400.00000001667,5.87074518322439,1.00000000480211,0.677102202436441
9500.00000001703,5.91100611844142,1.00000000458559,0.689428175435023
9600.00000001739,5.94824626923887,1.00000000429551,0.680035364619847
9700.00000001776,5.98875588962811,1.00000000447436,0.683005523474876
9800.00000001812,6.03183962270011,1.00000000463296,0.700589774356991
9900.00000001848,6.05755894992764,1.00000000460249,0.705325286335058
10000.0000000188,6.088526258928,1.00000000414263,0.701929271214921
10100.0000000192,6.11471226997728,1.00000000451272,0.696489405809562
10200.0000000196,6.1397304630873,1.00000000438028,0.69383026985384
10300.0000000199,6.15319986043875,1.00000000471865,0.700905033906911
10400.0000000203,6.16287578801086,1.00000000474803,0.699175777350761
10500.0000000207,6.17279008428869,1.00000000434194,0.683384112671242
10600.000000021,6.18175076849649,1.00000000498331,0.685775675568906
10700.0000000214,6.1971245728683,1.00000000462215,0.673970098307052
10800.0000000218,6.22143871998323,1.00000000440513,0.69825730630301
10900.0000000221,6.25723210043598,1.00000000458012,0.688335404569069
11000.0000000225,6.29461413681422,1.00000000467511,0.683544772953572
11100.0000000229,6.33494539221236,1.00000000501156,0.682056440529365
11200.0000000232,6.37648021288425,1.00000000421844,0.671214658860554
11300.0000000236,6.41545809702317,1.00000000567285,0.663376976713868
11400.0000000239,6.44896097808988,1.00000000480684,0.664760751754282
11500.0000000243,6.49705218174757,1.00000000491032,0.698914738560141
11600.0000000247,6.53092487957889,1.00000000491155,0.683960918798384
11700.000000025,6.56250145790775,1.00000000443089,0.712874577086324
11800.0000000254,6.594813855266,1.00000000514861,0.704195315133201
11900.0000000258,6.62352237838489,1.00000000457918,0.691596767219422
12000.0000000261,6.64810453060973,1.00000000500458,0.677484643761845
12100.0000000265,6.68330626316013,1.00000000429332,0.67125685116192
12200.0000000269,6.72199443146265,1.00000000519719,0.700501786585365
12300.0000000272,6.76021978276957,1.00000000498649,0.689164461688566
12400.0000000276,6.79566541875722,1.00000000510172,0.681475005908667
12500.0000000279,6.82993668881599,1.00000000520433,0.692559495955405
12600.0000000283,6.85963024222089,1.0000000044746,0.702166949669149
12700.0000000287,6.8896473393191,1.00000000478045,0.697762440112376
12800.000000029,6.92257322154782,1.00000000492916,0.69524098594307
12900.0000000294,6.96531251655197,1.00000000493313,0.708139792489421
13000.0000000298,7.00460095316361,1.00000000502421,0.701336894025616
13100.0000000301,7.0368424171409,1.00000000522805,0.700401352065801
13200.0000000305,7.05949165214396,1.00000000518119,0.713985468546251
13300.0000000309,7.08826972986072,1.00000000474046,0.702230550594733
13400.0000000312,7.12002060492126,1.00000000485255,0.713175153122526
13500.0000000316,7.14538773124118,1.00000000533939,0.721396829997951
13600.0000000319,7.17222260006077,1.00000000480458,0.681536971169076
13700.0000000323,7.20144324541849,1.00000000518401,0.702257977385986
13800.0000000327,7.22325483213643,1.00000000609758,0.708130400240239
13900.000000033,7.23542018211807,1.00000000503338,0.708050646761638
14000.0000000334,7.2538886237982,1.00000000502327,0.708282098614047
14100.0000000338,7.27464367733305,1.00000000544119,0.712067399966228
14200.0000000341,7.29247558435434,1.0000000050201,0.720490336089065
14300.0000000345,7.31009394911941,1.00000000496651,0.709127715785272
14400.0000000349,7.32465020161712,1.00000000555026,0.704354526945517
14500.0000000352,7.33005413156888,1.00000000563511,0.70654239320633
14600.0000000356,7.3359610488774,1.0000000051172,0.683129828395583
14700.0000000359,7.33699718872215,1.00000000589031,0.718175606304753
14800.0000000363,7.32830136488112,1.00000000582725,0.705682104844064
14900.0000000367,7.31863427405216,1.00000000554839,0.705767956002932
15000.000000037,7.30438121141328,1.00000000534224,0.702691090008302
15100.0000000374,7.28328943053469,1.00000000549526,0.720816596965701
15200.0000000378,7.26059040175155,1.00000000597789,0.723861648019935
15300.0000000381,7.23654038692085,1.00000000548323,0.725061133546737
15400.0000000385,7.21488135546973,1.00000000583059,0.735628613985585
15500.0000000389,7.19583409582868,1.00000000579389,0.716324530826261
15600.0000000392,7.17997011831216,1.00000000601761,0.72207316531019
15700.0000000396,7.16931280333899,1.00000000588714,0.726168675496194
15800.0000000399,7.16008939797555,1.00000000605387,0.71967184215501
15900.0000000403,7.15741495190497,1.00000000608578,0.714198787356233
16000.0000000407,7.15695514937038,1.00000000555823,0.707322250592659
16100.000000041,7.17741216002724,1.00000000548329,0.683045220219674
16200.0000000414,7.22087327200779,1.00000000532608,0.67121807742577
16300.0000000418,7.30272812259905,1.00000000543722,0.64956971916167
16400.0000000418,7.43213542573875,1.00000000542187,0.636126215280663
16500.0000000404,7.6269987224223,1.00000000513702,0.638774779464349
16600.0000000389,7.87351569273397,1.00000000545492,0.643534811235586
16700.0000000375,8.18248394555251,1.00000000615132,0.645542851813716
16800.000000036,8.50664672176288,1.00000000596125,0.647470773773596
16900.0000000346,8.86350273199503,1.00000000677162,0.647091039796059
17000.0000000331,9.20088852057009,1.00000000582356,0.657176358509608
17100.0000000317,9.55012822098522,1.00000000651141,0.660091774580496
17200.0000000302,9.88810056930087,1.00000000591718,0.657286249502098
17300.0000000287,10.233720281119,1.00000000534732,0.656071526641033
17400.0000000273,10.5805690886384,1.00000000581597,0.659211426423661
17500.0000000258,10.92381577946,1.00000000594498,0.657467264464054
17600.0000000244,11.2893436237791,1.00000000631637,0.671942821061642
17700.0000000229,11.6521078732381,1.00000000585101,0.674525372436814
17800.0000000215,12.0322687355245,1.00000000666329,0.676556964310523
17900.00000002,12.4160070484982,1.00000000614743,0.69749901243724
18000.0000000186,12.7914791495438,1.00000000670697,0.701544904728591
18100.0000000171,13.181192940129,1.00000000635061,0.705478636106733
18200.0000000156,13.5496371023025,1.00000000674561,0.70766825316921
18300.0000000142,13.9174230155856,1.00000000699479,0.717930837340286
18400.0000000127,14.2516859376042,1.00000000639374,0.718203722784123
18500.0000000113,14.6012007301307,1.00000000596832,0.723640585352047
18600.0000000098,14.9364543933674,1.0000000065769,0.731664396758518
18700.0000000084,15.2779595815535,1.00000000587352,0.711160194243012
18800.0000000069,15.6109092874847,1.00000000688467,0.72862505415202
18900.0000000055,15.919819278972,1.00000000680424,0.730720662017646
19000.000000004,16.236578825921,1.00000000685188,0.73443658221052
19100.0000000026,16.5504552144312,1.00000000690166,0.724156031825786
19200.0000000011,16.8722773519444,1.00000000611563,0.717066551957318
19299.9999999996,17.1803706983726,1.00000000664795,0.723492268080855
19399.9999999982,17.4870747143967,1.00000000708615,0.73680477848612
19499.9999999967,17.8022955482011,1.00000000663607,0.724077394771578
19599.9999999953,18.114619980849,1.00000000692867,0.740504914997886
19699.9999999938,18.4363588900819,1.00000000672469,0.726628861797476
19799.9999999924,18.7620535525532,1.00000000705835,0.727327701839995
19899.9999999909,19.1034510571288,1.00000000665648,0.722374799386749
19999.9999999895,19.4474109532285,1.00000000668729,0.730299847505262
20099.999999988,19.791429910637,1.00000000703926,0.728962741326107
20199.9999999865,20.1303390374696,1.0000000070909,0.734877807647673
20299.9999999851,20.4568371450763,1.00000000788998,0.736504623509683
20399.9999999836,20.7902160199429,1.00000000656342,0.736484795994308
20499.9999999822,21.1284758415734,1.00000000687694,0.737095776575569
20599.9999999807,21.4907940313282,1.00000000576375,0.733693397473045
20699.9999999793,21.8692862089929,1.00000000664098,0.735850811017598
20799.9999999778,22.2451821169819,1.00000000668999,0.735462582219875
20899.9999999764,22.6078617047846,1.00000000691782,0.741949140237534
20999.9999999749,22.9492175976884,1.00000000666978,0.745658673869728
21099.9999999734,23.2900212515627,1.00000000718186,0.736244242696608
21199.999999972,23.6420084370955,1.0000000071759,0.735812789167293
21299.9999999705,24.0073840167635,1.00000000723757,0.732287212475971
21399.9999999691,24.4033656960606,1.00000000700543,0.742860080812297
21499.9999999676,24.7885045422044,1.00000000724534,0.751013610936562
21599.9999999662,25.1720487749647,1.00000000768729,0.751145626346083
21699.9999999647,25.5612706756453,1.00000000690659,0.737555616537306
21799.9999999633,25.9585869045005,1.00000000686021,0.720573169343966
21899.9999999618,26.3623876877637,1.00000000715547,0.744231902299801
21999.9999999603,26.758232622233,1.00000000787156,0.738149975238793
22099.9999999589,27.1665328184136,1.00000000659581,0.739807002961005
22199.9999999574,27.586730939486,1.00000000758256,0.738659901495426
22299.999999956,28.0007686733758,1.00000000774548,0.736644055649895
22399.9999999545,28.4115014578383,1.00000000816368,0.754716138649586
22499.9999999531,28.836924912772,1.00000000710195,0.732719556743583
22599.9999999516,29.2752360351353,1.00000000773597,0.749897389318681
22699.9999999502,29.7056722613758,1.00000000781464,0.750727659640571
22799.9999999487,30.1433682925784,1.00000000729379,0.736646155423695
22899.9999999473,30.5851502881479,1.00000000737993,0.74373327767594
22999.9999999458,31.025580976157,1.00000000711388,0.727746193231313
23099.9999999443,31.4709920828299,1.00000000730164,0.737313915903896
23199.9999999429,31.9154214269106,1.00000000778967,0.739763318076876
23299.9999999414,32.3742310139307,1.00000000760235,0.744043867066978
23399.99999994,32.8427282410745,1.00000000710545,0.752366062391124
23499.9999999385,33.3091805431349,1.00000000849611,0.749145037356437
23599.9999999371,33.770731984493,1.00000000739525,0.736034904491725
23699.9999999356,34.2505652741925,1.00000000741838,0.731785213820201
23799.9999999342,34.7457122353765,1.00000000807834,0.730156887820368
23899.9999999327,35.2738340917047,1.00000000830039,0.723817410920575
23999.9999999312,35.8368432288731,1.00000000765248,0.734397370805689
24099.9999999298,36.4148795746972,1.0000000083264,0.742739912363485
24199.9999999283,36.9776454882178,1.00000000765789,0.745549278139373
24299.9999999269,37.5401083733297,1.0000000080272,0.751036265295337
24399.9999999254,38.0972456097031,1.00000000779241,0.749307241662787
24499.999999924,38.6546715458078,1.00000000743402,0.737166295426107
24599.9999999225,39.1944738862652,1.00000000900365,0.731466212556094
24699.9999999211,39.7400703333419,1.00000000737165,0.733142218923301
24799.9999999196,40.2958354995646,1.00000000767633,0.745460570980823
24899.9999999181,40.8619998597566,1.00000000759483,0.745224228590214
24999.9999999167,41.4473007918317,1.00000000806467,0.746143167542838
25099.9999999152,42.045954893814,1.00000000814026,0.750639633282193
25199.9999999138,42.6261830128471,1.00000000833975,0.759402007227442
25299.9999999123,43.2117690122356,1.00000000834877,0.73630551796617
25399.9999999109,43.807473560288,1.00000000851376,0.727393882252525
25499.9999999094,44.3963257326853,1.00000000849332,0.749834122717344
25599.999999908,44.9688615458528,1.00000000792892,0.758214320135981
25699.9999999065,45.5395573184061,1.00000000858576,0.745413346666414
25799.9999999051,46.1230481159344,1.0000000079328,0.745653868775871
25899.9999999036,46.720262493591,1.00000000781127,0.743735589525547
25999.9999999021,47.3275967607563,1.00000000832405,0.735984266501872
26099.9999999007,47.9553082651808,1.0000000085166,0.741166262780246
26199.9999998992,48.5856842787458,1.00000000778297,0.750286684375019
26299.9999998978,49.2176414679554,1.00000000895171,0.75313115258604
26399.9999998963,49.8329469300677,1.00000000877043,0.75649407635455
26499.9999998949,50.4334594408532,1.00000000834703,0.747866671887052
26599.9999998934,51.0356839275724,1.00000000776432,0.737086580083547
26699.999999892,51.6545017301778,1.00000000871919,0.738718689912301
26799.9999998905,52.280530427899,1.00000000848898,0.739348357835961
26899.999999889,52.9094170053971,1.00000000845008,0.743882821710153
26999.9999998876,53.559557704155,1.00000000799212,0.736348488178883
27099.9999998861,54.2161509165796,1.00000000825527,0.748685586532066
27199.9999998847,54.8711346039799,1.00000000857818,0.743179419990857
27299.9999998832,55.5324733348252,1.00000000856567,0.742016765499112
27399.9999998818,56.2040123239586,1.00000000877939,0.741705583540499
27499.9999998803,56.8872319017356,1.00000000897369,0.734275828193885
27599.9999998789,57.5756609378435,1.00000000898283,0.74905456374517
27699.9999998774,58.2669110470505,1.00000000889025,0.740602197366619
27799.9999998759,58.9583651427101,1.00000000842901,0.751548611892589
27899.9999998745,59.6575187110058,1.00000000828465,0.75147924174346
27999.999999873,60.3388611004719,1.00000000870166,0.751326735436846
28099.9999998716,61.0101545717501,1.00000000842903,0.749581960728713
28199.9999998701,61.6852555874355,1.00000000875966,0.744066843646312
28299.9999998687,62.3631986385113,1.00000000882345,0.73939381287197
28399.9999998672,63.0443575020756,1.00000000818814,0.748286295613027
28499.9999998658,63.7324743666614,1.00000000843132,0.749043580248705
28599.9999998643,64.4206155836815,1.0000000093275,0.75779224706818
28699.9999998629,65.1027524531784,1.00000000882952,0.753990191786689
28799.9999998614,65.7931784572801,1.00000000885279,0.748893569944571
28899.9999998599,66.5211026243786,1.00000000871315,0.741309122913201
28999.9999998585,67.265861569253,1.0000000090458,0.737661139216875
29099.999999857,68.0239082590193,1.00000000976872,0.750332984391194
