Time,AGPnorm,Energy,Entropy
0,0,1,-7.15279375066112e-17
99.9999999999986,0.0016541374391502,0.999999999999777,0.00526203193081759
199.999999999993,0.0114081157216306,0.999999999998231,0.0152263605741136
300,0.0229150354192675,0.999999999998251,0.0278766552175891
400.000000000022,0.0341857520224195,0.999999999999835,0.0439571829467408
500.000000000045,0.0477758334156598,0.999999999999563,0.0637085470279117
600.000000000068,0.0653197562321725,0.999999999998638,0.086710240081171
700.000000000091,0.0824539512961987,0.999999999998331,0.113160034180459
800.000000000113,0.099154752763644,1.00000000000024,0.144487828266659
900.000000000136,0.116340108415452,1.00000000001064,0.1843689904131
1000.00000000016,0.131371714270599,1.00000000007723,0.234989795533706
1100.0000000001,0.155045988861989,1.00000000030763,0.292845152355405
1200,0.215264199831053,1.00000000068671,0.348176065590655
1299.99999999991,0.338772763352162,1.00000000108799,0.3972806413084
1399.99999999982,0.61185676769408,1.00000000146845,0.43935345042653
1499.99999999973,1.1769020597319,1.00000000172494,0.474004170684118
1599.99999999964,2.1104785627255,1.0000000020539,0.502127906364061
1699.99999999955,3.42574025005572,1.00000000221065,0.525707232811233
1799.99999999946,5.16463683991088,1.00000000218335,0.544558050821853
1899.99999999937,7.33960012306939,1.00000000224044,0.558858701929084
1999.99999999928,9.87873491788899,1.00000000236758,0.569777541827575
2099.99999999919,12.6959142142043,1.00000000231331,0.578344034677288
2199.99999999909,15.7354251263412,1.00000000227176,0.5842629435234
2299.999999999,18.9319336271637,1.00000000226731,0.587341937204625
2399.99999999891,22.17810481745,1.0000000022401,0.589473291130727
2499.99999999882,25.3848815986636,1.0000000021357,0.591102301091774
2599.99999999873,28.5041659054676,1.00000000211485,0.591199208006006
2699.99999999864,31.492468282406,1.0000000019931,0.589755493316583
2799.99999999855,34.2948031311514,1.00000000188012,0.588665793482369
2899.99999999846,36.8603847973287,1.00000000181024,0.58744487947938
2999.99999999837,39.1703945509968,1.00000000176813,0.584842453248347
3099.99999999828,41.2242040128761,1.00000000160241,0.581018918823498
3199.99999999819,43.012886853706,1.00000000157683,0.579033244247449
3299.99999999809,44.5233597557011,1.00000000151082,0.57735640318924
3399.999999998,45.7575942496863,1.00000000148396,0.575562558861395
3499.99999999791,46.7310760685471,1.00000000146707,0.574713147859431
3599.99999999782,47.4608657560462,1.00000000141894,0.573385435371776
3699.99999999773,47.9578382308417,1.00000000130823,0.572041575874815
3799.99999999764,48.2485079579905,1.00000000126794,0.566800810956187
3899.99999999755,48.3339816520908,1.00000000139081,0.57825712778255
3999.99999999746,48.2724157209808,1.00000000117746,0.555764042302487
4099.99999999738,48.0544861432714,1.00000000137927,0.576927073039628
4199.99999999775,47.7477466468603,1.0000000012056,0.555272262337412
4299.99999999811,47.3149134785557,1.00000000125324,0.555649096655805
4399.99999999848,46.8374596316005,1.00000000144114,0.568021202913952
4499.99999999884,46.2850663704518,1.00000000104926,0.525468536823216
4599.9999999992,45.6810984900143,1.00000000170837,0.581710576156289
4699.99999999957,45.080241782843,1.00000000133204,0.540471799782572
4799.99999999993,44.4198336264402,1.00000000112532,0.514670969694078
4900.00000000029,43.7547994200298,1.00000000184605,0.582445546342772
5000.00000000066,43.1059363998537,1.00000000129048,0.521960565298914
5100.00000000102,42.4224834043292,1.00000000103949,0.499006527517156
5200.00000000139,41.7401812436039,1.00000000181589,0.569585301795175
5300.00000000175,41.0881417638832,1.00000000150756,0.523959956946098
5400.00000000211,40.4274117715027,1.00000000108883,0.493242649452238
5500.00000000248,39.7585234608915,1.0000000013749,0.517162241100233
5600.00000000284,39.1145924731227,1.0000000017208,0.554403854884086
5700.00000000321,38.4916929048702,1.00000000123685,0.497621791376339
5800.00000000357,37.8713558269276,1.00000000114931,0.496497496875401
5900.00000000393,37.2550254956104,1.00000000141516,0.512018766298863
6000.0000000043,36.6576990518249,1.00000000165794,0.537823067416631
6100.00000000466,36.0803331649148,1.00000000136962,0.511870843522608
6200.00000000502,35.5174208528863,1.00000000108488,0.494371399611929
6300.00000000539,34.9669614869202,1.00000000125644,0.516253566015336
6400.00000000575,34.4297428334905,1.00000000131069,0.514878337885171
6500.00000000612,33.9095294678358,1.0000000015161,0.525068005858348
6600.00000000648,33.4039667635021,1.00000000154708,0.520549447133895
6700.00000000684,32.9164398905836,1.00000000114274,0.495384438951469
6800.00000000721,32.4473059222746,1.00000000134846,0.522235019783781
6900.00000000757,31.9910717353387,1.00000000139365,0.532370670270609
7000.00000000793,31.5529452899591,1.00000000125096,0.501799077533043
7100.0000000083,31.1297303042463,1.00000000145748,0.521565226082466
7200.00000000866,30.7159715992489,1.00000000148208,0.516813031707331
7300.00000000903,30.3199656545427,1.00000000119784,0.501844141062547
7400.00000000939,29.9443128160769,1.0000000012568,0.516861009584341
7500.00000000975,29.5770627525954,1.00000000159083,0.53495362679514
7600.00000001012,29.223080701923,1.00000000119306,0.519450114033243
7700.00000001048,28.8891345075199,1.00000000124897,0.498643482470979
7800.00000001084,28.5668043318288,1.00000000155036,0.524982509959048
7900.00000001121,28.2494041544801,1.00000000149799,0.519376759896125
8000.00000001157,27.9446817484331,1.00000000133159,0.507710206802209
8100.00000001194,27.6578321040889,1.00000000132106,0.519159308767358
8200.0000000123,27.3819350968431,1.00000000147113,0.528417164351175
8300.00000001266,27.1097705404783,1.00000000148283,0.52606838274974
8400.00000001303,26.847711845497,1.00000000126574,0.524270246060015
8500.00000001339,26.6013583279539,1.00000000126184,0.513735551747307
8600.00000001376,26.3663801142223,1.0000000014426,0.523176923414312
8700.00000001412,26.137800445208,1.0000000014736,0.533502979228954
8800.00000001448,25.9150474254409,1.00000000141725,0.522817990477645
8900.00000001485,25.7054305519593,1.00000000127147,0.515228107812741
9000.00000001521,25.5076723891694,1.00000000138138,0.529994040467569
9100.00000001557,25.3158116509624,1.00000000138567,0.540825088498953
9200.00000001594,25.1343354300129,1.00000000131302,0.527131009081533
9300.0000000163,24.9587966641892,1.00000000138175,0.522801132310087
9400.00000001667,24.7855080675533,1.00000000141281,0.543533720096434
9500.00000001703,24.6166010119543,1.00000000141106,0.550926435599664
9600.00000001739,24.4561462647405,1.00000000127696,0.531156392695711
9700.00000001776,24.3056740437431,1.00000000138086,0.534695354542309
9800.00000001812,24.1618712081338,1.00000000147448,0.543641617174467
9900.00000001848,24.0230379655874,1.00000000147252,0.532050762920497
10000.0000000188,23.8925101967677,1.00000000127853,0.536450448664795
10100.0000000192,23.7736067892107,1.00000000126589,0.539564006153034
10200.0000000196,23.6567867196947,1.00000000156703,0.543871762734788
10300.0000000199,23.5389674333339,1.00000000147857,0.547347475212389
10400.0000000203,23.4339352840749,1.00000000122871,0.524914437795538
10500.0000000207,23.3419207678369,1.00000000138706,0.535539536327126
10600.000000021,23.2481248723016,1.00000000151527,0.541296045865401
10700.0000000214,23.1470199249888,1.00000000162138,0.56104556833115
10800.0000000218,23.0405534054671,1.00000000150012,0.566863177608864
10900.0000000221,22.9370514590127,1.00000000138161,0.559899505321279
11000.0000000225,22.8409644774809,1.00000000140895,0.553023644182772
11100.0000000229,22.7511210055162,1.00000000145078,0.557235120208662
11200.0000000232,22.6676916213354,1.0000000014819,0.551830511148837
11300.0000000236,22.5916276193239,1.00000000139491,0.538948657967904
11400.0000000239,22.5214144070636,1.00000000135612,0.537464793989143
11500.0000000243,22.4583028466571,1.00000000142537,0.553689717461807
11600.0000000247,22.3997090354149,1.00000000137208,0.555481696250307
11700.000000025,22.3429161433143,1.00000000144623,0.551018067273992
11800.0000000254,22.28731004035,1.00000000147759,0.551622338514346
11900.0000000258,22.2362756397465,1.000000001385,0.55052985663666
12000.0000000261,22.1938632599588,1.0000000013281,0.541344307150553
12100.0000000265,22.1600265328588,1.00000000144005,0.552503691852959
12200.0000000269,22.1227885173157,1.00000000150582,0.566144895437501
12300.0000000272,22.0805219228013,1.00000000143738,0.566652432906479
12400.0000000276,22.0345655532202,1.00000000149459,0.570682519677167
12500.0000000279,21.9847673873234,1.0000000016046,0.569159956102963
12600.0000000283,21.9300195292576,1.00000000148919,0.575717157955862
12700.0000000287,21.8696498370202,1.00000000148217,0.585124818640815
12800.000000029,21.8098259237887,1.00000000142004,0.57844715417818
12900.0000000294,21.7560027803807,1.00000000135143,0.571593349418775
13000.0000000298,21.7087690384091,1.00000000145742,0.567980816679029
13100.0000000301,21.6694933338869,1.00000000158873,0.563892186998885
13200.0000000305,21.6378719894936,1.0000000014325,0.547376278813624
13300.0000000309,21.6118478770667,1.00000000143435,0.55171924806471
13400.0000000312,21.5922077241279,1.00000000138257,0.560945882178569
13500.0000000316,21.5753649045075,1.00000000143446,0.571059709332698
13600.0000000319,21.5584040187887,1.0000000015576,0.57328918104925
13700.0000000323,21.5412254742352,1.00000000145656,0.564407959757584
13800.0000000327,21.5276395806443,1.00000000134746,0.554828706968029
13900.000000033,21.521289410939,1.00000000141063,0.553753739225928
14000.0000000334,21.5182003766185,1.00000000148939,0.55831282567665
14100.0000000338,21.5170778899711,1.00000000150099,0.568500255074747
14200.0000000341,21.5196263546491,1.00000000149106,0.576560009905147
14300.0000000345,21.522458498675,1.00000000152964,0.582106428147185
14400.0000000349,21.5195937450237,1.00000000154296,0.592625514021314
14500.0000000352,21.5088813191248,1.00000000151847,0.592299430785115
14600.0000000356,21.493250741252,1.00000000151656,0.593512703626206
14700.0000000359,21.4770171303092,1.00000000147701,0.594188790050886
14800.0000000363,21.4621037629081,1.00000000145674,0.586989256597213
14900.0000000367,21.4452461331607,1.00000000156045,0.587824715086311
15000.000000037,21.4224426759904,1.0000000016177,0.588830389708828
15100.0000000374,21.3890935002351,1.00000000161681,0.586103387212115
15200.0000000378,21.3487748954721,1.00000000159339,0.596913298442437
15300.0000000381,21.3052438777217,1.00000000148732,0.595944295120533
15400.0000000385,21.2627076614602,1.00000000147929,0.587061036417093
15500.0000000389,21.227129894498,1.00000000152876,0.584128159638642
15600.0000000392,21.1987764839933,1.00000000141103,0.578852457128116
15700.0000000396,21.1778944532639,1.00000000150155,0.57885643105425
15800.0000000399,21.1653617961118,1.00000000152343,0.577524820157667
15900.0000000403,21.1593813903662,1.00000000141415,0.575221115365099
16000.0000000407,21.1598090410099,1.00000000156029,0.57991686815574
16100.000000041,21.1637614066102,1.00000000149116,0.58588774503788
16200.0000000414,21.1704705578558,1.00000000154697,0.58780075451764
16300.0000000418,21.1762610166129,1.0000000016247,0.58881533116029
16400.0000000418,21.1828467492057,1.00000000156916,0.582904702537101
16500.0000000404,21.1935001038845,1.00000000146388,0.572213612331652
16600.0000000389,21.2104402907067,1.0000000015653,0.57183886902296
16700.0000000375,21.2296630167322,1.00000000147454,0.574944883517791
16800.000000036,21.2516967017517,1.00000000153864,0.584667353439816
16900.0000000346,21.2772331461532,1.00000000151487,0.586942609496419
17000.0000000331,21.3017336180993,1.00000000151077,0.587958090261427
17100.0000000317,21.3227200793707,1.0000000016579,0.594135272708192
17200.0000000302,21.3394457167149,1.00000000152057,0.585623034615348
17300.0000000287,21.3563018405666,1.00000000152333,0.584681009311188
17400.0000000273,21.3744003196307,1.0000000015679,0.597896066545008
17500.0000000258,21.3913759864649,1.00000000147416,0.608817798644494
17600.0000000244,21.4037708560793,1.00000000158414,0.617221894572141
17700.0000000229,21.4122311058574,1.00000000159153,0.630505093696303
17800.0000000215,21.4172887837731,1.00000000155401,0.632908238495468
17900.00000002,21.4198098201737,1.00000000159758,0.632495298450741
18000.0000000186,21.4212907859574,1.00000000157222,0.632319894023627
18100.0000000171,21.4191570532744,1.00000000159409,0.639743507078154
18200.0000000156,21.4132889945717,1.00000000152137,0.640535762501986
18300.0000000142,21.4045041876427,1.00000000160621,0.647048652300477
18400.0000000127,21.392123434978,1.00000000160544,0.641515474707648
18500.0000000113,21.3756946166055,1.00000000158692,0.642939445625016
18600.0000000098,21.352853322327,1.00000000159582,0.645589201199435
18700.0000000084,21.325517627046,1.00000000163904,0.648304312621765
18800.0000000069,21.292747662654,1.00000000163081,0.64567602767605
18900.0000000055,21.2553672946672,1.00000000158601,0.642457214554268
19000.000000004,21.2170149536612,1.00000000163051,0.645542605911611
19100.0000000026,21.1788903733109,1.00000000155344,0.644856299365678
19200.0000000011,21.143336077906,1.0000000015676,0.639250152202627
19299.9999999996,21.1110151085671,1.00000000154337,0.638124229893317
19399.9999999982,21.0841644074723,1.00000000154033,0.636931495015723
19499.9999999967,21.0629941607117,1.00000000158203,0.634522518801333
19599.9999999953,21.0486151154816,1.00000000171456,0.635684127013226
19699.9999999938,21.0389806460335,1.00000000149106,0.62597846211986
19799.9999999924,21.0359942517962,1.00000000156591,0.619003314858329
19899.9999999909,21.0401921466213,1.0000000015761,0.607626703550059
19999.9999999895,21.0482755692251,1.0000000016041,0.605721542960533
20099.999999988,21.0618759277243,1.00000000164252,0.609932190268924
20199.9999999865,21.0782587997092,1.0000000016835,0.615825383970981
20299.9999999851,21.0944810695922,1.00000000166481,0.621673912159364
20399.9999999836,21.1127574717673,1.00000000169024,0.616788348965877
20499.9999999822,21.1325961042535,1.00000000158639,0.609022614762147
20599.9999999807,21.1525324037987,1.00000000165212,0.614158558398621
20699.9999999793,21.1771812239374,1.00000000152558,0.603420412595609
20799.9999999778,21.2071978200244,1.00000000162551,0.597105580915725
20899.9999999764,21.2418196615481,1.00000000155746,0.601187175333034
20999.9999999749,21.2768221867402,1.0000000016867,0.607834206400803
21099.9999999734,21.3125489971918,1.00000000164575,0.613101167801951
21199.999999972,21.347182812673,1.00000000167334,0.618252261607991
21299.9999999705,21.3823426999397,1.00000000159415,0.620157970404486
21399.9999999691,21.4174136860319,1.00000000170706,0.622280538878856
21499.9999999676,21.4503418903428,1.00000000156034,0.618245540865807
21599.9999999662,21.4809778195143,1.00000000171322,0.621826127925779
21699.9999999647,21.5048943005657,1.00000000174162,0.623851470448154
21799.9999999633,21.52296737638,1.00000000171822,0.632009251655947
21899.9999999618,21.53847062565,1.00000000169,0.644988160258211
21999.9999999603,21.5536397345416,1.00000000169412,0.64508590431601
22099.9999999589,21.5690038353897,1.00000000166637,0.645466975140971
22199.9999999574,21.5877622961754,1.00000000165422,0.638075864414608
22299.999999956,21.6051128265791,1.00000000176685,0.64318933553146
22399.9999999545,21.6224968513095,1.00000000162484,0.645335433868349
22499.9999999531,21.6403253718834,1.00000000174353,0.655181823139176
22599.9999999516,21.6568514385061,1.00000000176299,0.650966271369337
22699.9999999502,21.6704934019308,1.0000000017152,0.653878778079636
22799.9999999487,21.6787022635742,1.00000000191893,0.649075566966547
22899.9999999473,21.6798219871134,1.00000000173396,0.650934629148272
22999.9999999458,21.678795654434,1.0000000017867,0.65580941752003
23099.9999999443,21.6747754629487,1.00000000168875,0.646904821936104
23199.9999999429,21.6724119875184,1.00000000159611,0.639807500369855
23299.9999999414,21.6725935497161,1.00000000167035,0.641877258013461
23399.99999994,21.6721189794292,1.00000000169598,0.647217735968002
23499.9999999385,21.6714250050981,1.00000000159209,0.642699354277758
23599.9999999371,21.6715054209668,1.0000000017586,0.648491103625023
23699.9999999356,21.6696438234942,1.00000000170985,0.652912919045403
23799.9999999342,21.6647766134716,1.00000000173241,0.656897083333004
23899.9999999327,21.6561278591279,1.00000000185125,0.668638928042269
23999.9999999312,21.6454768012779,1.00000000172376,0.665425689760406
24099.9999999298,21.6329989052568,1.0000000017552,0.663289492891269
24199.9999999283,21.6175609688672,1.00000000181704,0.662027978491124
24299.9999999269,21.6014003432736,1.00000000166046,0.661964775573373
24399.9999999254,21.585652480898,1.00000000177454,0.660599905498235
24499.999999924,21.5667565955792,1.00000000171089,0.659953935620702
24599.9999999225,21.5471196172236,1.00000000170072,0.653805195619647
24699.9999999211,21.5275804127022,1.00000000164225,0.655688082097755
24799.9999999196,21.5052973887519,1.00000000180811,0.661510765183669
24899.9999999181,21.4793113450923,1.00000000181334,0.665055430217283
24999.9999999167,21.4510502437576,1.00000000174016,0.662668453069281
25099.9999999152,21.4203125084471,1.00000000187896,0.668131137670086
25199.9999999138,21.3872754171545,1.00000000179303,0.662254366622537
25299.9999999123,21.3517086208702,1.00000000178577,0.665088960474958
25399.9999999109,21.3158776863459,1.00000000170789,0.662041956176573
25499.9999999094,21.2819099589976,1.00000000171477,0.660780977977153
25599.999999908,21.2494672200658,1.00000000172732,0.659506893226689
25699.9999999065,21.2197907669532,1.00000000179198,0.65291321057171
25799.9999999051,21.1928356328788,1.00000000174723,0.646611103594507
25899.9999999036,21.1702982596275,1.00000000179804,0.646434436934699
25999.9999999021,21.1514082036753,1.00000000175891,0.646981577290683
26099.9999999007,21.1387907384456,1.00000000171111,0.643850269525365
26199.9999998992,21.1313020168405,1.00000000183549,0.644683809871346
26299.9999998978,21.1283215491229,1.00000000165634,0.638302527040731
26399.9999998963,21.130957997303,1.00000000175946,0.62973527427702
26499.9999998949,21.1383587974673,1.00000000183796,0.633409202848044
26599.9999998934,21.1514282742295,1.00000000171772,0.620507218638028
26699.999999892,21.1723234615693,1.00000000183743,0.614595362831734
26799.9999998905,21.1955470466566,1.00000000194965,0.611947254217688
26899.999999889,21.2213018502783,1.00000000176595,0.605612612142952
26999.9999998876,21.2511318389651,1.00000000184204,0.611564975343489
27099.9999998861,21.280469505521,1.00000000193512,0.614829964738315
27199.9999998847,21.311591639217,1.00000000186804,0.611175306602762
27299.9999998832,21.345642844624,1.00000000194871,0.611076117160861
27399.9999998818,21.379862500895,1.000000001864,0.60243478917548
27499.9999998803,21.4172850225156,1.00000000175599,0.597351543791931
27599.9999998789,21.4621573622889,1.00000000183094,0.605046504257544
27699.9999998774,21.5105850179517,1.00000000188427,0.602639023814155
27799.9999998759,21.5582956577722,1.00000000197051,0.594114086362307
27899.9999998745,21.608697546915,1.00000000177822,0.595187379126771
27999.999999873,21.6635056136057,1.00000000189823,0.611041720246578
28099.9999998716,21.7176174823561,1.00000000192117,0.61001575536404
28199.9999998701,21.7727556079253,1.00000000189181,0.610538024333705
28299.9999998687,21.8306417352547,1.00000000187857,0.625165576448396
28399.9999998672,21.8877751489066,1.00000000191369,0.628480049666109
28499.9999998658,21.9452408068111,1.00000000194301,0.633065449328317
28599.9999998643,21.999512908079,1.00000000209329,0.631102990783245
28699.9999998629,22.0511594521745,1.00000000185631,0.632572533773401
28799.9999998614,22.1037282622806,1.00000000192093,0.63716730731601
28899.9999998599,22.1510424296008,1.00000000213495,0.646409568254134
28999.9999998585,22.1923662925695,1.00000000206113,0.64373226248479
