Time,AGPnorm,Energy,Entropy
0,0,1,4.99200630177824e-18
99.9999999999986,0.00409128205983149,1.00000000000165,0.0132620005749063
199.999999999993,0.0115722244503856,0.999999999998998,0.037509935430133
300,0.0237297967743886,1.00000000000258,0.0737030552131743
400.000000000022,0.0376188449009132,0.999999999999383,0.118764115991758
500.000000000045,0.0518160850457402,1.00000000001035,0.17912652723789
600.000000000068,0.0726669826648546,1.00000000008944,0.259446312036878
700.000000000091,0.103756343240654,1.00000000037439,0.354610140150675
800.000000000113,0.343405180341534,1.00000000081443,0.437665695275375
900.000000000136,0.976419652566529,1.00000000122238,0.495899879663685
1000.00000000016,2.38345193268474,1.00000000136212,0.532180532672645
1100.0000000001,4.58305657586924,1.00000000153427,0.552556146704558
1200,7.57909676805757,1.00000000165347,0.561250056643711
1299.99999999991,11.1282589988355,1.00000000165497,0.564959032622625
1399.99999999982,14.9835295332177,1.00000000155354,0.562018762601331
1499.99999999973,18.8766694489033,1.00000000145026,0.556747405434116
1599.99999999964,22.5758539871929,1.00000000137395,0.548229950351316
1699.99999999955,25.9327861546919,1.00000000132812,0.541771175723634
1799.99999999946,28.8246573139452,1.00000000126945,0.533783436759473
1899.99999999937,31.2009955246789,1.00000000120756,0.528974215041062
1999.99999999928,33.0230985712392,1.00000000105716,0.513705052786565
2099.99999999919,34.3383047076699,1.00000000107151,0.530752765860441
2199.99999999909,35.1476909422252,1.00000000084126,0.483480668267982
2299.999999999,35.5054258346872,1.00000000101411,0.537916329526476
2399.99999999891,35.6167997257193,1.00000000087946,0.509072602596114
2499.99999999882,35.3155805682341,1.00000000063111,0.442763619607436
2599.99999999873,34.8245932036149,1.00000000116407,0.559355753509413
2699.99999999864,34.3476773661751,1.00000000104204,0.5196413865889
2799.99999999855,33.6452445394509,1.00000000042749,0.369226078915588
2899.99999999846,32.7840294637483,1.00000000103536,0.498996132170213
2999.99999999837,32.0143191501523,1.00000000138698,0.575386362083723
3099.99999999828,31.3342503342583,1.00000000096752,0.488588454010646
3199.99999999819,30.5506011372351,1.00000000038016,0.316069748244134
3299.99999999809,29.6947716382882,1.00000000076085,0.421640945588774
3399.999999998,28.8695517191507,1.00000000123242,0.532779150340603
3499.99999999791,28.1447288757334,1.00000000134524,0.563194985338004
3599.99999999782,27.4918338980662,1.00000000096112,0.503713799903989
3699.99999999773,26.8195544527991,1.00000000054785,0.337677106238612
3799.99999999764,26.1588111045729,1.00000000050959,0.330806132668366
3899.99999999755,25.5294498317931,1.00000000097605,0.4669917870525
3999.99999999746,24.9066017797884,1.00000000116663,0.527622540272393
4099.99999999738,24.3055409575918,1.00000000111486,0.500664306885453
4199.99999999775,23.7366708506564,1.00000000127992,0.564884847508092
4299.99999999811,23.208739226892,1.00000000107193,0.537362093314371
4399.99999999848,22.7065180550251,1.00000000046182,0.389950413903258
4499.99999999884,22.2791508064236,1.00000000044479,0.302344208125168
4599.9999999992,21.9525829352579,1.00000000074613,0.371327341417119
4699.99999999957,21.6508646975114,1.0000000010758,0.476758826944232
4799.99999999993,21.3038087928405,1.0000000013249,0.540770970597132
4900.00000000029,20.93614280436,1.00000000087227,0.52878096978024
5000.00000000066,20.5893908848269,1.00000000080733,0.474706370400969
5100.00000000102,20.2366057929612,1.0000000011789,0.496380729868289
5200.00000000139,19.8613682335991,1.00000000143174,0.544001527807702
5300.00000000175,19.4896670032852,1.0000000012622,0.576627373175667
5400.00000000211,19.1365628573436,1.0000000009705,0.520746552707861
5500.00000000248,18.8269190006275,1.00000000047536,0.39789338738727
5600.00000000284,18.6297063868246,1.0000000004038,0.320474126541375
5700.00000000321,18.5824100284327,1.00000000057144,0.329287230728067
5800.00000000357,18.6154228717742,1.00000000096368,0.417031338214765
5900.00000000393,18.6219323254863,1.00000000107723,0.502059157089231
6000.0000000043,18.5785680518895,1.00000000101581,0.529808736422722
6100.00000000466,18.4954878029813,1.0000000009506,0.519638162067571
6200.00000000502,18.3645417725579,1.00000000113377,0.543096352080638
6300.00000000539,18.1942207576982,1.00000000112518,0.543830045109502
6400.00000000575,18.0174510105717,1.00000000086127,0.523101319652814
6500.00000000612,17.8540571562539,1.00000000080373,0.513173950168427
6600.00000000648,17.6934697728552,1.00000000080856,0.525815926113447
6700.00000000684,17.5221420654458,1.00000000094365,0.522485089045503
6800.00000000721,17.3292941646435,1.00000000119621,0.532217467062756
6900.00000000757,17.1092586951573,1.00000000127085,0.541738189827557
7000.00000000793,16.8753000333747,1.00000000138103,0.571172874827666
7100.0000000083,16.6425708920848,1.00000000121364,0.577876290959562
7200.00000000866,16.4173509849778,1.00000000083855,0.529490000055074
7300.00000000903,16.2228547451186,1.0000000005198,0.441601046314458
7400.00000000939,16.1187827715969,1.00000000039622,0.360198084283366
7500.00000000975,16.1639927523245,1.00000000044519,0.331188140277568
7600.00000001012,16.3716394794534,1.00000000056858,0.343156511850764
7700.00000001048,16.6721981511697,1.00000000085366,0.402996861468988
7800.00000001084,16.9786060852838,1.00000000104908,0.464512807278148
7900.00000001121,17.2296440291883,1.00000000113096,0.513425843333827
8000.00000001157,17.4092939426238,1.0000000010344,0.538804355868437
8100.00000001194,17.5436991327089,1.00000000094749,0.543174200032769
8200.0000000123,17.6325172658516,1.00000000102981,0.563632434507602
8300.00000001266,17.6657031770671,1.00000000108214,0.581157220945628
8400.00000001303,17.6561350371251,1.00000000096987,0.56568727475463
8500.00000001339,17.6208930581085,1.0000000009665,0.554970538521625
8600.00000001376,17.5651295548594,1.00000000102799,0.548467316770625
8700.00000001412,17.4887806848953,1.00000000106092,0.551611175527651
8800.00000001448,17.3946693696665,1.00000000093274,0.545987479862967
8900.00000001485,17.3072821523768,1.00000000085239,0.535427311613284
9000.00000001521,17.236044909886,1.00000000077884,0.529229207533267
9100.00000001557,17.1649693842428,1.00000000102713,0.53215187332383
9200.00000001594,17.0854333580204,1.00000000095741,0.538350459133667
9300.0000000163,17.006103741509,1.00000000085508,0.540114083867119
9400.00000001667,16.9271170595515,1.00000000090822,0.546161480337363
9500.00000001703,16.8415137373545,1.00000000097575,0.54952133001399
9600.00000001739,16.7398625961504,1.00000000101301,0.558812350140219
9700.00000001776,16.6283608647174,1.00000000094319,0.57396328449082
9800.00000001812,16.5136419506926,1.00000000082247,0.576044968157962
9900.00000001848,16.4011798872195,1.00000000078679,0.568028468153672
10000.0000000188,16.2853012355279,1.000000000902,0.574960948067934
10100.0000000192,16.1592865712937,1.00000000105691,0.578214598761739
10200.0000000196,16.0225269982072,1.00000000107973,0.580194392346985
10300.0000000199,15.879557272192,1.00000000121652,0.592106758062904
10400.0000000203,15.7380326962654,1.00000000137521,0.59482558621055
10500.0000000207,15.6059575232414,1.00000000135249,0.597093163812938
10600.000000021,15.4837852000959,1.00000000135948,0.599403372522349
10700.0000000214,15.3624892904448,1.00000000111055,0.582959382603448
10800.0000000218,15.2313243573239,1.00000000082581,0.542765428055809
10900.0000000221,15.095629892258,1.00000000062233,0.486760118265154
11000.0000000225,14.9851045025506,1.00000000044177,0.42460737259744
11100.0000000229,14.9475284080242,1.00000000041305,0.376240330800522
11200.0000000232,15.0282032310914,1.00000000041283,0.345462760860521
11300.0000000236,15.2616684043644,1.00000000042965,0.345401105341359
11400.0000000239,15.6365073262046,1.00000000068941,0.362820172948491
11500.0000000243,16.1174830580255,1.00000000076907,0.390501185256253
11600.0000000247,16.6385117777577,1.00000000105613,0.429056619345453
11700.000000025,17.1426234535904,1.00000000108141,0.465142066340552
11800.0000000254,17.607037914975,1.00000000115331,0.493557402747001
11900.0000000258,18.0116135971756,1.0000000011403,0.523600677018059
12000.0000000261,18.3593281736868,1.00000000103948,0.541383950507522
12100.0000000265,18.6612742529934,1.00000000109195,0.544465365154246
12200.0000000269,18.9156919477634,1.0000000010253,0.559358630832833
12300.0000000272,19.1224898379828,1.00000000108444,0.582551363227413
12400.0000000276,19.2869399175607,1.00000000097194,0.582574709974277
12500.0000000279,19.4118387852456,1.00000000107092,0.585090726687334
12600.0000000283,19.4990374485891,1.00000000100614,0.588734705533787
12700.0000000287,19.5558319171784,1.00000000095543,0.596158403882726
12800.000000029,19.5818319427792,1.00000000108204,0.60177699734351
12900.0000000294,19.5841850568381,1.00000000096198,0.584226818111796
13000.0000000298,19.5764634408879,1.0000000009704,0.568794480855171
13100.0000000301,19.5520095818345,1.0000000009959,0.56527599673146
13200.0000000305,19.515219545089,1.00000000098434,0.563432073121582
13300.0000000309,19.4755732096699,1.00000000092853,0.563439833767496
13400.0000000312,19.4255289719424,1.00000000103158,0.57082430478223
13500.0000000316,19.3640391444281,1.00000000099666,0.575942658574553
13600.0000000319,19.2933067962913,1.00000000101164,0.58648109168709
13700.0000000323,19.2144565832149,1.0000000010041,0.576893498697381
13800.0000000327,19.1282751604163,1.00000000102015,0.582216842730042
13900.000000033,19.0367077043748,1.0000000009918,0.586040234839704
14000.0000000334,18.9441809304112,1.00000000093063,0.579036342811529
14100.0000000338,18.8553467588664,1.00000000087028,0.56102081703272
14200.0000000341,18.7749649081831,1.00000000085716,0.543819504654884
14300.0000000345,18.6980155993507,1.00000000105829,0.550831501748864
14400.0000000349,18.6191541646804,1.00000000099781,0.558431355908779
14500.0000000352,18.5394063489277,1.00000000103453,0.563229486909417
14600.0000000356,18.4553612206087,1.00000000111841,0.56606339996332
14700.0000000359,18.3695709511614,1.00000000098571,0.565909515261931
14800.0000000363,18.2903088076024,1.00000000089272,0.567763712869914
14900.0000000367,18.2230030680899,1.00000000086196,0.56469654358564
15000.000000037,18.1614316446045,1.00000000097005,0.552049268265937
15100.0000000374,18.1018061721877,1.00000000100546,0.561668386085687
15200.0000000378,18.0504876937361,1.00000000086012,0.547041123595439
15300.0000000381,18.006682108747,1.000000000987,0.534206976371707
15400.0000000385,17.9615739732202,1.00000000107687,0.532594180831256
15500.0000000389,17.9168105645539,1.00000000098391,0.540200110684604
15600.0000000392,17.8789239038302,1.00000000084775,0.550142980793511
15700.0000000396,17.8434617547219,1.00000000101418,0.572702988585146
15800.0000000399,17.8044231420123,1.00000000103547,0.591198520333115
15900.0000000403,17.7615659131607,1.00000000099418,0.591933822884101
16000.0000000407,17.7141345988842,1.00000000102894,0.577729194284227
16100.000000041,17.6615684466875,1.00000000106257,0.567400013344908
16200.0000000414,17.6099486890277,1.00000000090562,0.568245004414598
16300.0000000418,17.5645236741283,1.00000000094312,0.576963904292867
16400.0000000418,17.5174588041326,1.00000000101254,0.588831261371504
16500.0000000404,17.4660952448173,1.00000000100651,0.597700739347541
16600.0000000389,17.4147083939957,1.00000000097443,0.594851336409894
16700.0000000375,17.3589887181338,1.00000000102435,0.604245065360928
16800.000000036,17.2953367881706,1.00000000103852,0.606176823051979
16900.0000000346,17.2285110614485,1.00000000097173,0.602884301824071
17000.0000000331,17.1606865923907,1.00000000104511,0.599548408754391
17100.0000000317,17.0897405689227,1.00000000101807,0.610152880666148
17200.0000000302,17.0188514084957,1.00000000093903,0.607501414636459
17300.0000000287,16.9521267332179,1.00000000095371,0.600426173350488
17400.0000000273,16.8866969032435,1.00000000107285,0.597777035787771
17500.0000000258,16.8176773296162,1.0000000011449,0.59157950162202
17600.0000000244,16.7469153120508,1.00000000106225,0.589528840542006
17700.0000000229,16.6779482500429,1.00000000086905,0.601291280982371
17800.0000000215,16.6110497349373,1.00000000094572,0.609067652805212
17900.00000002,16.5429678622174,1.00000000102302,0.606314131731156
18000.0000000186,16.4758570903906,1.00000000093679,0.593802294053902
18100.0000000171,16.4115634698474,1.00000000096536,0.601397751457783
18200.0000000156,16.344568310488,1.00000000106503,0.592275219716864
18300.0000000142,16.2734536706497,1.00000000103362,0.599089233166925
18400.0000000127,16.2010448622778,1.00000000101717,0.596515561073074
18500.0000000113,16.1271079913246,1.00000000102638,0.600522795084805
18600.0000000098,16.0519466777119,1.00000000100906,0.60248525135662
18700.0000000084,15.974850874433,1.00000000105272,0.6156646723711
18800.0000000069,15.8951260476348,1.00000000118321,0.621407332809687
18900.0000000055,15.8143864951013,1.00000000103331,0.621090456845768
19000.000000004,15.7349649202913,1.00000000091542,0.60550860985335
19100.0000000026,15.656843224163,1.00000000107718,0.619972785285855
19200.0000000011,15.5768841934282,1.00000000113774,0.626287440561641
19299.9999999996,15.4967675836766,1.00000000097351,0.622090904253638
19399.9999999982,15.4178526312417,1.00000000098286,0.605757426803478
19499.9999999967,15.3393272172944,1.0000000009166,0.594819667144095
19599.9999999953,15.2615812944427,1.00000000091928,0.613618284404004
19699.9999999938,15.1847349874816,1.00000000093801,0.62107635480484
19799.9999999924,15.1087254966514,1.00000000087146,0.610952357464021
19899.9999999909,15.0338553298047,1.00000000091354,0.606000593741492
19999.9999999895,14.9607955280657,1.00000000097265,0.614313690040124
20099.999999988,14.8909867944889,1.00000000101889,0.619040189154134
20199.9999999865,14.8261848093858,1.00000000109151,0.605892724693343
20299.9999999851,14.7688185354084,1.00000000109531,0.62111828681003
20399.9999999836,14.7229693578972,1.00000000118461,0.624575313874084
20499.9999999822,14.6909207675087,1.00000000121777,0.626603543498811
20599.9999999807,14.681547725476,1.00000000129326,0.6353746314818
20699.9999999793,14.69073376685,1.00000000136119,0.637899433413478
20799.9999999778,14.7358116469034,1.00000000135125,0.639117334552707
20899.9999999764,14.8021637086868,1.00000000140664,0.636931018644895
20999.9999999749,14.9105403778062,1.00000000140509,0.624896610874353
21099.9999999734,15.0344250007828,1.00000000141552,0.614440035547741
21199.999999972,15.1931160009126,1.00000000139797,0.60346800350402
21299.9999999705,15.3489176168052,1.00000000129598,0.59211014811588
21399.9999999691,15.5043606072487,1.00000000114397,0.585083408541379
21499.9999999676,15.6248315194785,1.00000000099543,0.570958695759158
21599.9999999662,15.7082351398794,1.00000000094801,0.54882839606575
21699.9999999647,15.7422304891906,1.00000000082898,0.517485983243326
21799.9999999633,15.7322387689983,1.00000000068629,0.489913806014301
21899.9999999618,15.6872925276221,1.00000000058419,0.456649015206262
21999.9999999603,15.6282590982904,1.00000000052863,0.42911269281012
22099.9999999589,15.5761958347167,1.00000000049096,0.402603897639103
22199.9999999574,15.5638203068192,1.00000000041672,0.380798582928391
22299.999999956,15.6182338079456,1.00000000043126,0.362125983190566
22399.9999999545,15.7635415344402,1.00000000038598,0.350030750282283
22499.9999999531,16.0315687582469,1.00000000046401,0.349697905955785
22599.9999999516,16.4150693629844,1.00000000049419,0.353024665735674
22699.9999999502,16.9455357017504,1.00000000062686,0.360747589688806
22799.9999999487,17.5791469738179,1.00000000073172,0.375860161312222
22899.9999999473,18.3270745898013,1.00000000080232,0.386561795436936
22999.9999999458,19.1369508700556,1.0000000008739,0.404114409610521
23099.9999999443,19.996326557179,1.00000000107054,0.415373996753632
23199.9999999429,20.8736744673204,1.00000000099668,0.4381847630578
23299.9999999414,21.7404487434465,1.00000000116445,0.448900858464944
23399.99999994,22.6018386013128,1.00000000110961,0.465822302214536
23499.9999999385,23.4177411816148,1.0000000010746,0.486042414284272
23599.9999999371,24.2159636221319,1.00000000115789,0.489871913659641
23699.9999999356,24.9535332669503,1.00000000116051,0.503537580056848
23799.9999999342,25.6553976068042,1.00000000118858,0.516561461910195
23899.9999999327,26.3166532261358,1.00000000117307,0.52661791208785
23999.9999999312,26.9282271631346,1.00000000110463,0.535334586828968
24099.9999999298,27.5023573581363,1.00000000109394,0.545693198620506
24199.9999999283,28.0341912846031,1.00000000110297,0.555903022483058
24299.9999999269,28.5407022447628,1.0000000010991,0.567731975203784
24399.9999999254,29.0058037662636,1.00000000110844,0.57421915436489
24499.999999924,29.438267552792,1.00000000102261,0.574917857823714
24599.9999999225,29.8344847625925,1.0000000011875,0.597180229120566
24699.9999999211,30.1910068030688,1.00000000109051,0.606788271214101
24799.9999999196,30.5225576655222,1.00000000104205,0.604826110587365
24899.9999999181,30.8148065995363,1.00000000108822,0.601934901788225
24999.9999999167,31.0760761587031,1.00000000109483,0.619314646596472
25099.9999999152,31.2892462945616,1.00000000123248,0.633800000348633
25199.9999999138,31.4773423881984,1.00000000111639,0.625969917862313
25299.9999999123,31.6417958396153,1.0000000010636,0.617329207040172
25399.9999999109,31.7863200688831,1.00000000116728,0.614087570464659
25499.9999999094,31.9086878756484,1.000000001142,0.627686510462012
25599.999999908,31.999111410323,1.00000000116538,0.632600717148379
25699.9999999065,32.0680457714527,1.00000000113703,0.63241814159377
25799.9999999051,32.1203753953996,1.00000000105167,0.619533846739701
25899.9999999036,32.170155176449,1.00000000104723,0.608915121145695
25999.9999999021,32.2093117462137,1.00000000114094,0.60307373175401
26099.9999999007,32.2367544564208,1.0000000010073,0.616146442505716
26199.9999998992,32.24479810397,1.00000000114364,0.630580874745438
26299.9999998978,32.2331452744871,1.00000000114081,0.628327055387813
26399.9999998963,32.2146815742473,1.00000000099809,0.619006901881189
26499.9999998949,32.1925236397806,1.00000000097568,0.60755782140548
26599.9999998934,32.1706577204564,1.00000000104553,0.609350293731
26699.999999892,32.1406893420049,1.00000000108395,0.595233336576836
26799.9999998905,32.1057892388951,1.000000001085,0.586771051095318
26899.999999889,32.0639960422561,1.00000000110526,0.603103972691261
26999.9999998876,32.0162413310494,1.0000000010489,0.620389808495084
27099.9999998861,31.9617860225624,1.00000000108217,0.628604182198453
27199.9999998847,31.904032283074,1.00000000102131,0.611723419483327
27299.9999998832,31.8500131279124,1.00000000100496,0.590782291835827
27399.9999998818,31.7974851361019,1.00000000109,0.595631521815871
27499.9999998803,31.7397718593482,1.00000000112824,0.59582264287972
27599.9999998789,31.6695519419924,1.00000000130614,0.593942097419928
27699.9999998774,31.593988958567,1.00000000105542,0.58627316996301
27799.9999998759,31.5185378853187,1.00000000097842,0.577162403419619
27899.9999998745,31.4443355707748,1.00000000104716,0.590682571315683
27999.999999873,31.3686487202727,1.00000000102286,0.606380763999025
28099.9999998716,31.2862594885577,1.00000000122142,0.616703111166397
28199.9999998701,31.1988915203047,1.00000000106333,0.616755508683239
28299.9999998687,31.1123235249402,1.00000000099046,0.599727302627923
28399.9999998672,31.0308255200646,1.0000000010256,0.595568841228848
28499.9999998658,30.9524100087084,1.00000000101999,0.605872441599952
28599.9999998643,30.8731972503328,1.00000000119349,0.605381325330221
28699.9999998629,30.7925445216139,1.00000000104626,0.595883971837791
28799.9999998614,30.716537831866,1.00000000087781,0.570656056496406
28899.9999998599,30.6469192580121,1.00000000104435,0.581236854684018
28999.9999998585,30.5736842977048,1.00000000115877,0.6010007578763
29099.999999857,30.4957290982319,1.00000000124616,0.606188251997178
