Time,AGPnorm,Energy,Entropy
0,0,1,5.17887284783412e-18
99.9999999999986,0.00312155042703156,0.999999999999353,0.0103318160895947
199.999999999993,0.00915132453861801,0.999999999999759,0.0298060661712722
300,0.0191312586277083,0.999999999999886,0.0583473993099871
400.000000000022,0.0303496223609476,0.999999999999951,0.0933568893038888
500.000000000045,0.0428453139895758,1.00000000000127,0.137759525746678
600.000000000068,0.0564408411899747,1.00000000001216,0.193920991344038
700.000000000091,0.068358399650709,1.00000000008761,0.2666463689223
800.000000000113,0.125575579864936,1.00000000028339,0.348365384264762
900.000000000136,0.310189260187423,1.00000000058045,0.422079621970616
1000.00000000016,0.910780479094608,1.00000000088279,0.477189631404187
1100.0000000001,2.12359032489197,1.00000000104643,0.514633988253126
1200,4.17343779434798,1.000000001162,0.536993401173633
1299.99999999991,7.03712284627295,1.00000000120866,0.550287775433292
1399.99999999982,10.6418102971576,1.00000000121673,0.554774481469064
1499.99999999973,14.7615688371831,1.00000000119971,0.555652162541453
1599.99999999964,19.1877604551876,1.00000000127095,0.553384287834228
1699.99999999955,23.6739811326132,1.00000000110455,0.547701120624613
1799.99999999946,28.0328750422252,1.00000000116617,0.540167043765151
1899.99999999937,32.0849614061381,1.00000000102241,0.534054791312767
1999.99999999928,35.7278943226283,1.00000000097245,0.525820470638328
2099.99999999919,38.8575243419721,1.00000000091577,0.515878364444134
2199.99999999909,41.4617644139141,1.00000000086338,0.520045965095496
2299.999999999,43.5096822092401,1.00000000083259,0.494944608603298
2399.99999999891,44.9982717159505,1.0000000007613,0.501537341396641
2499.99999999882,46.051137293466,1.00000000078299,0.523855884315172
2599.99999999873,46.6431577616668,1.00000000058775,0.462043744906295
2699.99999999864,46.7442667093374,1.00000000067265,0.481933649508755
2799.99999999855,46.6335562793602,1.00000000092784,0.549537644906799
2899.99999999846,46.3769001062644,1.00000000067388,0.479845934025745
2999.99999999837,45.7531455459195,1.00000000036777,0.389278226186553
3099.99999999828,44.9082929242843,1.00000000079032,0.499349600017552
3199.99999999819,44.1293572992961,1.00000000104537,0.568884265222016
3299.99999999809,43.4214599727482,1.0000000008088,0.500065104355433
3399.999999998,42.5593931455393,1.00000000031934,0.335760502818627
3499.99999999791,41.5265931093845,1.0000000004469,0.375336527869697
3599.99999999782,40.4939696008822,1.00000000092181,0.511675934988067
3699.99999999773,39.5748899217577,1.00000000112115,0.558408810824638
3799.99999999764,38.7817422743333,1.00000000095135,0.540802534348749
3899.99999999755,37.9914714930179,1.00000000052795,0.410801954825986
3999.99999999746,37.1313863351867,1.00000000028837,0.283274867268698
4099.99999999738,36.268527863366,1.00000000047032,0.347582764000153
4199.99999999775,35.4289398812022,1.00000000086849,0.486812234200198
4299.99999999811,34.6126980623859,1.00000000090133,0.51407557550332
4399.99999999848,33.8430565310673,1.00000000097437,0.516147260270334
4499.99999999884,33.139398875009,1.00000000100747,0.560781677422289
4599.9999999992,32.48151195915,1.00000000077447,0.515794779714648
4699.99999999957,31.8276007403356,1.00000000039477,0.376052025685774
4799.99999999993,31.2160023254028,1.00000000032444,0.28004860618775
4900.00000000029,30.7053824588381,1.00000000045513,0.321982840783785
5000.00000000066,30.2628080824473,1.00000000070992,0.42847632592967
5100.00000000102,29.7977547855055,1.00000000093271,0.517065791007586
5200.00000000139,29.2963757134185,1.00000000083768,0.540139153132998
5300.00000000175,28.8032502542004,1.00000000065307,0.474027170647488
5400.00000000211,28.3212680268171,1.00000000083674,0.457316787359927
5500.00000000248,27.8245731015416,1.00000000101297,0.518313771890557
5600.00000000284,27.3301954821368,1.00000000113237,0.566366472969184
5700.00000000321,26.8593131657396,1.00000000091792,0.556334714432238
5800.00000000357,26.408206954123,1.00000000055436,0.468659190555334
5900.00000000393,26.0039761187036,1.00000000031277,0.353174909434174
6000.0000000043,25.7232102445544,1.000000000274,0.281044635038189
6100.00000000466,25.6073573171443,1.00000000042495,0.296862309533485
6200.00000000502,25.6022446131877,1.00000000067229,0.383232501035731
6300.00000000539,25.607023822056,1.00000000074183,0.471563395565149
6400.00000000575,25.556534308028,1.00000000082026,0.515228820643204
6500.00000000612,25.4305661574672,1.00000000087408,0.514812016213356
6600.00000000648,25.2334122501247,1.0000000009064,0.528942868524516
6700.00000000684,24.9887584596751,1.00000000082771,0.543278373282869
6800.00000000721,24.7379882265841,1.00000000062502,0.513856253424748
6900.00000000757,24.5143107939104,1.0000000005557,0.48050195115049
7000.00000000793,24.304058554346,1.0000000006387,0.495447313012041
7100.0000000083,24.0765128944779,1.00000000073894,0.510823528363625
7200.00000000866,23.8240325796234,1.00000000086909,0.50827899103239
7300.00000000903,23.543816262233,1.00000000092485,0.517595777217614
7400.00000000939,23.241323195789,1.00000000107752,0.547937052154403
7500.00000000975,22.9359303543521,1.00000000108989,0.572583871994959
7600.00000001012,22.6395782269962,1.00000000087275,0.56202196016029
7700.00000001048,22.3515815364231,1.00000000061448,0.505462289003819
7800.00000001084,22.0927763336399,1.00000000037549,0.418664976844427
7900.00000001121,21.9220046596258,1.00000000027718,0.339158207910411
8000.00000001157,21.9096269875179,1.00000000026574,0.293285640627235
8100.00000001194,22.0926260507134,1.00000000038056,0.293725084594623
8200.0000000123,22.4365554833224,1.00000000053709,0.344950540972819
8300.00000001266,22.8568773107881,1.00000000071337,0.406185934380183
8400.00000001303,23.2547203508203,1.00000000083505,0.465843966681875
8500.00000001339,23.5719877725636,1.00000000088871,0.510286452456143
8600.00000001376,23.8047962435813,1.00000000076632,0.524332155405374
8700.00000001412,23.961233585143,1.0000000007893,0.5374561626639
8800.00000001448,24.0433290986336,1.00000000084631,0.56231475218882
8900.00000001485,24.0634685844481,1.0000000007764,0.556744643431295
9000.00000001521,24.049139755516,1.00000000073678,0.533339365561915
9100.00000001557,24.0068410841037,1.00000000077873,0.520820565149444
9200.00000001594,23.9297348203542,1.0000000008332,0.5248719929105
9300.0000000163,23.8125557799055,1.00000000083804,0.537413249656704
9400.00000001667,23.6760362846186,1.00000000075302,0.536845548225487
9500.00000001703,23.5523998910351,1.0000000005588,0.513377331353367
9600.00000001739,23.4509174338068,1.00000000063712,0.499213654530332
9700.00000001776,23.3557400675201,1.00000000072157,0.499616140309607
9800.00000001812,23.2576100211366,1.00000000077227,0.508035275177712
9900.00000001848,23.1576618053886,1.00000000075646,0.510978089835214
10000.0000000188,23.0546969751411,1.00000000075728,0.520523698934357
10100.0000000192,22.9458952425455,1.00000000072235,0.52964858555972
10200.0000000196,22.8221255392145,1.0000000008044,0.544472419404275
10300.0000000199,22.6867289643987,1.00000000071405,0.552837691098757
10400.0000000203,22.5480219906878,1.00000000061553,0.553698470309717
10500.0000000207,22.4102311592781,1.00000000058731,0.54830101493119
10600.000000021,22.2699369057341,1.00000000069956,0.546220570469699
10700.0000000214,22.1172744113001,1.0000000007951,0.553673541711354
10800.0000000218,21.9487446862693,1.00000000083391,0.552349156720295
10900.0000000221,21.7668167405815,1.00000000089643,0.560182372028228
11000.0000000225,21.5785725486401,1.00000000093697,0.560669817100397
11100.0000000229,21.395367475087,1.00000000104398,0.567369869215453
11200.0000000232,21.2264793956817,1.00000000112348,0.576020004019066
11300.0000000236,21.0743634241102,1.00000000103791,0.578313105583455
11400.0000000239,20.9281912414267,1.00000000090194,0.570616079489182
11500.0000000243,20.7724306061359,1.00000000069491,0.538472827825056
11600.0000000247,20.6025127198888,1.00000000053695,0.487084430268259
11700.000000025,20.4366839734336,1.00000000037703,0.427363652639558
11800.0000000254,20.3158298871458,1.00000000031165,0.374078671644723
11900.0000000258,20.2935409986098,1.00000000026451,0.326051781708452
12000.0000000261,20.4241973670801,1.00000000027242,0.304712731684627
12100.0000000265,20.7373771176764,1.00000000031782,0.304115609989235
12200.0000000269,21.241847604433,1.00000000037719,0.315135634793783
12300.0000000272,21.8985782966342,1.00000000059851,0.348205849670578
12400.0000000276,22.6362237511578,1.00000000068785,0.391025528130558
12500.0000000279,23.3958247984954,1.00000000078482,0.430115006356087
12600.0000000283,24.1169211705795,1.00000000083842,0.467537037840288
12700.0000000287,24.7626064116667,1.0000000009344,0.500311257877635
12800.000000029,25.3273719106245,1.00000000083039,0.518470971275955
12900.0000000294,25.8144313005874,1.00000000082335,0.529358864973158
13000.0000000298,26.2255685223149,1.00000000079401,0.551763779491631
13100.0000000301,26.5647520432916,1.00000000083512,0.570427464066604
13200.0000000305,26.8406822597845,1.00000000083231,0.570591448925255
13300.0000000309,27.0594573227542,1.00000000079644,0.564780125745979
13400.0000000312,27.2306418193441,1.00000000076999,0.565785909866118
13500.0000000316,27.357074779493,1.00000000078607,0.579918078943983
13600.0000000319,27.4354802946988,1.00000000081477,0.591535708301386
13700.0000000323,27.4737219868952,1.00000000077985,0.57950761853518
13800.0000000327,27.4857011762542,1.00000000074119,0.56720803580293
13900.000000033,27.4709537978517,1.00000000078234,0.553010678398662
14000.0000000334,27.4368612960085,1.00000000073022,0.546518670325686
14100.0000000338,27.3969422918593,1.00000000071969,0.541819083310404
14200.0000000341,27.3451729321158,1.00000000079736,0.554987475550949
14300.0000000345,27.2765904308389,1.00000000073283,0.554290607722024
14400.0000000349,27.1955595687224,1.00000000076894,0.56533758623945
14500.0000000352,27.1046803885597,1.00000000078899,0.572004465771134
14600.0000000356,27.0018984017647,1.00000000081723,0.569047999398855
14700.0000000359,26.8915168945685,1.00000000081873,0.567992119366357
14800.0000000363,26.7766324248437,1.00000000075754,0.568918120312744
14900.0000000367,26.6612968033155,1.00000000066496,0.558749130796171
15000.000000037,26.5519611672439,1.00000000062196,0.550182906399646
15100.0000000374,26.44984192417,1.00000000069539,0.54306867140552
15200.0000000378,26.3475410082556,1.00000000077261,0.543389478471473
15300.0000000381,26.2395711671809,1.00000000082886,0.550355450106608
15400.0000000385,26.1267812203817,1.00000000087623,0.55435267019617
15500.0000000389,26.0067890655038,1.00000000085319,0.564486529149503
15600.0000000392,25.8795106426137,1.00000000080601,0.568808580505887
15700.0000000396,25.7531228139568,1.00000000072044,0.563767390217076
15800.0000000399,25.6344489775293,1.000000000675,0.555538848813421
15900.0000000403,25.5292887715043,1.00000000065775,0.546462261648659
16000.0000000407,25.4385417416635,1.00000000068715,0.538728775158274
16100.000000041,25.3617130707492,1.00000000061567,0.531749854851915
16200.0000000414,25.3003984041951,1.00000000069205,0.515915260353646
16300.0000000418,25.2450204193956,1.00000000078259,0.506636784455336
16400.0000000418,25.1869669365291,1.00000000081791,0.511060040587654
16500.0000000404,25.1319531354494,1.00000000074572,0.511629587713368
16600.0000000389,25.086877487687,1.0000000006688,0.518836268698731
16700.0000000375,25.0459155224372,1.0000000007441,0.542859187026847
16800.000000036,25.0042996156422,1.00000000075768,0.562553820964477
16900.0000000346,24.9584825971735,1.00000000077799,0.574058062125729
17000.0000000331,24.9018423631937,1.00000000076853,0.56647102898223
17100.0000000317,24.8351074948608,1.0000000008178,0.555914868197739
17200.0000000302,24.7672760182341,1.00000000065377,0.550874648847488
17300.0000000287,24.7052275664731,1.0000000006753,0.55609937051327
17400.0000000273,24.641970104175,1.0000000008058,0.566384531755488
17500.0000000258,24.5726939240256,1.00000000077117,0.578214716559067
17600.0000000244,24.502162036499,1.00000000071039,0.58386537291076
17700.0000000229,24.4319052694993,1.00000000077568,0.586676198629594
17800.0000000215,24.3547676202655,1.00000000083811,0.593376817361807
17900.00000002,24.269969437862,1.00000000076775,0.589856428727923
18000.0000000186,24.1804232483133,1.0000000008307,0.587981991673841
18100.0000000171,24.0851355464643,1.00000000081743,0.594122821135029
18200.0000000156,23.9866712517594,1.00000000074398,0.598022074414243
18300.0000000142,23.8911115928904,1.00000000064578,0.583771322507563
18400.0000000127,23.8013966989842,1.00000000070045,0.577376862019734
18500.0000000113,23.7113223404936,1.00000000083103,0.577877282464629
18600.0000000098,23.6190431385534,1.00000000074907,0.569533840543951
18700.0000000084,23.5282803240463,1.00000000071957,0.56608817204308
18800.0000000069,23.440522586342,1.00000000067553,0.578681067398082
18900.0000000055,23.3534283273156,1.00000000073517,0.582328626389216
19000.000000004,23.2648464391574,1.0000000007066,0.585299888420552
19100.0000000026,23.1770230383589,1.00000000072249,0.582253444037004
19200.0000000011,23.0903109287546,1.00000000071988,0.586109175752516
19299.9999999996,23.0032657908201,1.00000000071218,0.572413405156214
19399.9999999982,22.912761170523,1.00000000079522,0.581282808759477
19499.9999999967,22.8176703602324,1.00000000077057,0.585736469787018
19599.9999999953,22.7199700859784,1.0000000007823,0.577467326840372
19699.9999999938,22.6205716964218,1.00000000077288,0.576346000166672
19799.9999999924,22.5193113025414,1.00000000079206,0.584921502164488
19899.9999999909,22.4152178753092,1.00000000085588,0.604792328374295
19999.9999999895,22.3089572316936,1.00000000080994,0.609348560416669
20099.999999988,22.2022618608606,1.0000000007707,0.604093156122233
20199.9999999865,22.0974017549644,1.00000000068704,0.588838667312431
20299.9999999851,21.9943475668323,1.00000000073756,0.596343554876882
20399.9999999836,21.8893303132949,1.00000000086524,0.607336419495989
20499.9999999822,21.7834472588892,1.00000000080264,0.619982133105139
20599.9999999807,21.6784522785076,1.00000000065166,0.598433542348099
20699.9999999793,21.5745726342473,1.00000000060031,0.58198020165692
20799.9999999778,21.4715587816386,1.00000000073319,0.598440317156028
20899.9999999764,21.3693140700158,1.00000000069255,0.600993921462695
20999.9999999749,21.2680739418224,1.00000000062581,0.595173907615417
21099.9999999734,21.1681431782441,1.00000000067198,0.593979201557801
21199.999999972,21.0696905830899,1.00000000070674,0.595749093912766
21299.9999999705,20.9738613780289,1.00000000076669,0.602520498315172
21399.9999999691,20.8818628392242,1.00000000074763,0.600011889643305
21499.9999999676,20.7963935937817,1.00000000078703,0.597615344844232
21599.9999999662,20.7202463719901,1.00000000085276,0.608461064128815
21699.9999999647,20.6566046712965,1.0000000009479,0.612011536414272
21799.9999999633,20.612964442248,1.00000000093996,0.607196302516393
21899.9999999618,20.5894159249429,1.00000000095737,0.61551430271291
21999.9999999603,20.5989313501263,1.0000000010306,0.61949621648345
22099.9999999589,20.6372257167693,1.00000000106579,0.620628515737645
22199.9999999574,20.721210485931,1.00000000111177,0.628670008799592
22299.999999956,20.8377399623372,1.00000000107006,0.624579764372638
22399.9999999545,21.0020659046538,1.00000000109298,0.620771749344567
22499.9999999531,21.1987991293068,1.00000000110443,0.613135035133569
22599.9999999516,21.4334569433702,1.0000000010993,0.604848013615796
22699.9999999502,21.6818569644805,1.00000000097802,0.594283875223985
22799.9999999487,21.9281274229926,1.00000000091969,0.58917562671499
22899.9999999473,22.1488033138487,1.00000000079612,0.57422818905117
22999.9999999458,22.3239782454038,1.0000000006965,0.555338671187217
23099.9999999443,22.444553965546,1.00000000062821,0.528094166130041
23199.9999999429,22.5027892266398,1.00000000055201,0.499168576528677
23299.9999999414,22.500692634431,1.00000000049323,0.470348573887136
23399.99999994,22.4553908375407,1.000000000401,0.437630270688706
23499.9999999385,22.376116798544,1.00000000033613,0.406501523872818
23599.9999999371,22.2999698962166,1.00000000032192,0.380163200190351
23699.9999999356,22.2453036106285,1.00000000028455,0.355134893901523
23799.9999999342,22.2519174291359,1.00000000027416,0.335921366592655
23899.9999999327,22.3484779190891,1.00000000026272,0.316813708183133
23999.9999999312,22.5619699340631,1.00000000027457,0.30883493631945
24099.9999999298,22.924891213416,1.00000000029615,0.30582204698637
24199.9999999283,23.446320890551,1.00000000031194,0.308800807990192
24299.9999999269,24.1367113724517,1.00000000037075,0.318745512350119
24399.9999999254,24.9932044747964,1.00000000043746,0.331584370351348
24499.999999924,25.9847435925212,1.00000000051498,0.343279418790099
24599.9999999225,27.1126884069074,1.00000000063928,0.361294258820449
24699.9999999211,28.3054313631868,1.00000000060664,0.380651332509756
24799.9999999196,29.5887912671925,1.00000000076483,0.396468279875141
24899.9999999181,30.8660075425117,1.00000000079312,0.418417877238691
24999.9999999167,32.1707510926621,1.00000000086758,0.432407430561885
25099.9999999152,33.4330851237286,1.00000000089944,0.445831081988444
25199.9999999138,34.6585556535807,1.0000000009951,0.461115680384536
25299.9999999123,35.8332663073705,1.00000000089547,0.482714964387239
25399.9999999109,36.9438334088745,1.00000000091089,0.486593168932186
25499.9999999094,37.99461009778,1.00000000093055,0.498727597173004
25599.999999908,38.9632549686795,1.00000000092632,0.517386972434035
25699.9999999065,39.8777652473158,1.00000000082637,0.526960401366186
25799.9999999051,40.7226040473748,1.00000000092442,0.535206887845433
25899.9999999036,41.5094309977435,1.0000000009035,0.539642370671426
25999.9999999021,42.2341380757613,1.00000000084322,0.5510593796014
26099.9999999007,42.8968150783436,1.00000000083401,0.559885456200399
26199.9999998992,43.5169636037393,1.00000000084476,0.572656126466797
26299.9999998978,44.0773512630316,1.00000000082893,0.576485004210878
26399.9999998963,44.6019832487704,1.00000000083309,0.57647641027187
26499.9999998949,45.075270380562,1.00000000080616,0.577079050667577
26599.9999998934,45.5079535217139,1.00000000087088,0.592897768479558
26699.999999892,45.8860173159754,1.00000000087652,0.605885165088804
26799.9999998905,46.221152824056,1.00000000084997,0.606308595721628
26899.999999889,46.5239575922398,1.00000000080253,0.599883102173924
26999.9999998876,46.7910037036418,1.00000000084259,0.590152136219674
27099.9999998861,47.0253911928734,1.00000000088352,0.604461538996241
27199.9999998847,47.2097125819968,1.00000000092279,0.617177455808391
27299.9999998832,47.3612713459734,1.00000000084235,0.62717122032231
27399.9999998818,47.481075074491,1.00000000082585,0.621085662211223
27499.9999998803,47.5906477872952,1.00000000078824,0.602006031466939
27599.9999998789,47.685204734023,1.00000000084137,0.594547593247455
27699.9999998774,47.7551987582263,1.00000000093766,0.601152795384624
27799.9999998759,47.7920635880498,1.00000000095608,0.61321830330759
27899.9999998745,47.7991238932456,1.00000000083718,0.606329795183413
27999.999999873,47.7950010244911,1.00000000078095,0.607557337436092
28099.9999998716,47.7835113414437,1.00000000074421,0.599105361146075
28199.9999998701,47.7710151976448,1.00000000077309,0.598930010480237
28299.9999998687,47.7497706341376,1.00000000080033,0.595229950425643
28399.9999998672,47.7176129439631,1.00000000086053,0.583061934525826
28499.9999998658,47.6722862605134,1.00000000081054,0.571827713455484
28599.9999998643,47.6156750223732,1.00000000083843,0.578240197943596
28699.9999998629,47.5483900813787,1.00000000080018,0.597435931630105
28799.9999998614,47.4709244792841,1.00000000080624,0.601200148926089
28899.9999998599,47.3902536407042,1.00000000081151,0.590484620382049
28999.9999998585,47.3119928994724,1.00000000072051,0.566623263510858
29099.999999857,47.2412274736155,1.00000000074531,0.575267994343359
