Time,AGPnorm,Energy,Entropy
0,0,1,-1.11919713477033e-17
99.9999999999986,1.36192345096751e-05,1.00000000000271,0.000629958654674304
199.999999999993,0.00114827610147812,1.00000000000088,0.000979485280646156
300,0.00292890203072815,1.00000000000101,0.00177133472639131
400.000000000022,0.00408883184931502,1.00000000000265,0.00300209084409765
500.000000000045,0.00499573240650926,0.999999999999964,0.00404432244659712
600.000000000068,0.00712142296234614,1.00000000000244,0.00570224033807292
700.000000000091,0.00885889210208974,1.00000000000133,0.00725236600786234
800.000000000113,0.0114943616155491,1.00000000000062,0.00900801290894631
900.000000000136,0.0142774409603074,1.00000000000282,0.0110758016694186
1000.00000000016,0.0166010030192279,1.00000000000006,0.0130161483696022
1100.0000000001,0.019980614125039,1.00000000000209,0.0153616549982468
1200,0.0235619940129541,1.0000000000018,0.0176645060357861
1299.99999999991,0.0273714244929083,1.00000000000029,0.020111622451725
1399.99999999982,0.0312650879285694,1.00000000000284,0.0228117314074591
1499.99999999973,0.0350631331957006,1.00000000000032,0.0254108653619741
1599.99999999964,0.0397233220942959,1.00000000000169,0.0283375800908236
1699.99999999955,0.044594763591226,1.00000000000222,0.0312624648574045
1799.99999999946,0.0494091262087174,1.00000000000004,0.0342953727682943
1899.99999999937,0.0543758082976095,1.00000000000272,0.0375536440340312
1999.99999999928,0.0595936249879605,1.00000000000072,0.0407336952164692
2099.99999999919,0.0653262212528222,1.00000000000129,0.0442172288064929
2199.99999999909,0.0710443676729741,1.00000000000252,0.0477296189790751
2299.999999999,0.0766644006648068,0.999999999999938,0.0513170245030231
2399.99999999891,0.0826055311212949,1.0000000000025,0.0551410779055402
2499.99999999882,0.0890023149578937,1.00000000000119,0.0589156081328123
2599.99999999873,0.09552319257034,1.00000000000086,0.0629818980891518
2699.99999999864,0.101808458745918,1.00000000000267,0.0671097626603564
2799.99999999855,0.108127501635679,1.00000000000002,0.0712900817982152
2899.99999999846,0.114845767026414,1.00000000000224,0.0757620972145048
2999.99999999837,0.121983792789183,1.00000000000164,0.0802183492611678
3099.99999999828,0.12897896849067,1.00000000000045,0.0849560955804411
3199.99999999819,0.13569110688525,1.00000000000269,0.0898103237106845
3299.99999999809,0.142663957224158,1.00000000000029,0.094722141751059
3399.999999998,0.149904278580328,1.00000000000193,0.100009201198835
3499.99999999791,0.15731249588,1.00000000000203,0.105336980043841
3599.99999999782,0.164478051217639,1.00000000000016,0.110942260372795
3699.99999999773,0.171510277702338,1.00000000000263,0.116787317708329
3799.99999999764,0.178959486872815,1.0000000000007,0.122753264523892
3899.99999999755,0.186456092995448,1.0000000000016,0.129203644088313
3999.99999999746,0.193771926935109,1.00000000000241,0.135822472757929
4099.99999999738,0.20091986564504,1.00000000000026,0.142793689670093
4199.99999999775,0.208196643641269,1.00000000000285,0.150254136663065
4299.99999999811,0.215699642463818,1.00000000000179,0.15801208574955
4399.99999999848,0.223306744703871,1.00000000000248,0.166457588662344
4499.99999999884,0.230375275910008,1.00000000000494,0.175317069930257
4599.9999999992,0.237362194539801,1.00000000000462,0.184650719849237
4699.99999999957,0.245486150310276,1.00000000000955,0.194692040206483
4799.99999999993,0.252430184875904,1.00000000001284,0.205055233704763
4900.00000000029,0.261260780437756,1.00000000001726,0.215944902611825
5000.00000000066,0.270165339516161,1.00000000002587,0.227058263153462
5100.00000000102,0.279081340409123,1.00000000003237,0.238209090308103
5200.00000000139,0.295196452023655,1.00000000004425,0.24965514116271
5300.00000000175,0.309860779383157,1.00000000005351,0.260891703425728
5400.00000000211,0.334741545747997,1.0000000000643,0.272094253133367
5500.00000000248,0.369583569176322,1.00000000008161,0.283154538136614
5600.00000000284,0.411823657295011,1.00000000009529,0.293852679503359
5700.00000000321,0.481702296366253,1.00000000011047,0.30460502091358
5800.00000000357,0.565667515763175,1.00000000012392,0.314930881639549
5900.00000000393,0.684336070022063,1.00000000013667,0.325016421480087
6000.0000000043,0.844421737253673,1.00000000015315,0.334992125171901
6100.00000000466,1.04013780492998,1.00000000016777,0.344565638780524
6200.00000000502,1.30497934274496,1.00000000018739,0.354034521258595
6300.00000000539,1.62507854506353,1.00000000020656,0.363080183898258
6400.00000000575,2.02463576848361,1.00000000022053,0.371868848197134
6500.00000000612,2.51802819394354,1.00000000023852,0.380583955369057
6600.00000000648,3.09700625310351,1.00000000025093,0.388831685955944
6700.00000000684,3.80197403223308,1.00000000026101,0.396989369942602
6800.00000000721,4.61959864243133,1.000000000278,0.404741512052978
6900.00000000757,5.57287161439963,1.00000000029322,0.41221248667126
7000.00000000793,6.67947603388269,1.00000000029751,0.419703885378118
7100.0000000083,7.92895312585023,1.00000000030892,0.426621045325831
7200.00000000866,9.36201852772774,1.00000000031451,0.433392393755238
7300.00000000903,10.9628977638981,1.00000000033039,0.439951176851731
7400.00000000939,12.7517884190599,1.00000000034069,0.446204538212221
7500.00000000975,14.7454939834377,1.00000000035125,0.452339823519832
7600.00000001012,16.9285788455906,1.00000000035008,0.458109421903875
7700.00000001048,19.3397457621573,1.00000000035745,0.46370059580613
7800.00000001084,21.9574247399279,1.00000000038056,0.46911998498649
7900.00000001121,24.7984098335528,1.00000000038496,0.474112515892271
8000.00000001157,27.8773532191251,1.00000000039224,0.479117103739639
8100.00000001194,31.1697658559704,1.00000000040701,0.483806955443467
8200.0000000123,34.7132893453639,1.00000000039402,0.488339196400004
8300.00000001266,38.4798173353049,1.00000000039931,0.492797905021048
8400.00000001303,42.4805946335224,1.00000000041104,0.496707657439877
8500.00000001339,46.7305013366317,1.00000000039888,0.500739688815957
8600.00000001376,51.193021402198,1.00000000042678,0.504488144833048
8700.00000001412,55.9062535362635,1.00000000041697,0.507966475617957
8800.00000001448,60.838288289214,1.0000000004206,0.511538538936693
8900.00000001485,65.990152168344,1.00000000042803,0.514631022447346
9000.00000001521,71.3818805345911,1.00000000041182,0.517743256497127
9100.00000001557,76.9640896207512,1.00000000041938,0.52078454634136
9200.00000001594,82.7746461860112,1.00000000042297,0.523323916802115
9300.0000000163,88.783428542333,1.00000000041211,0.52614864551819
9400.00000001667,94.9773666937068,1.00000000044233,0.528490237550931
9500.00000001703,101.384411645324,1.00000000042301,0.530776835087571
9600.00000001739,107.946613273175,1.00000000043207,0.533200955707335
9700.00000001776,114.697589604786,1.00000000043249,0.535067385348015
9800.00000001812,121.614703105814,1.00000000043132,0.537072074190506
9900.00000001848,128.669281745665,1.00000000043936,0.539081470124444
10000.0000000188,135.897941612513,1.00000000042055,0.540667532107468
10100.0000000192,143.239967408305,1.00000000043738,0.542436009229683
10200.0000000196,150.718640659052,1.00000000042762,0.543924646414263
10300.0000000199,158.3263881699,1.00000000043194,0.545176516178632
10400.0000000203,166.017571155891,1.00000000042845,0.54682189911694
10500.0000000207,173.835732480578,1.00000000042329,0.547918189705172
10600.000000021,181.724555650146,1.00000000040868,0.54917597362111
10700.0000000214,189.693454851596,1.00000000041549,0.550330414859265
10800.0000000218,197.749852883201,1.00000000041554,0.551121813635243
10900.0000000221,205.837996779338,1.00000000040716,0.552158185125274
11000.0000000225,214.00177766993,1.00000000042336,0.552980275537501
11100.0000000229,222.195392251256,1.00000000039653,0.553646310973502
11200.0000000232,230.412798609696,1.00000000041219,0.554452329259745
11300.0000000236,238.676371471271,1.00000000040423,0.555222794558646
11400.0000000239,246.925673416405,1.00000000041208,0.55561276200357
11500.0000000243,255.197451300253,1.00000000038738,0.556504337660378
11600.0000000247,263.464282157896,1.00000000040878,0.556656099693828
11700.000000025,271.70304320852,1.0000000004089,0.556935057666489
11800.0000000254,279.94544285231,1.00000000039178,0.557745667536664
11900.0000000258,288.13705493398,1.00000000040403,0.557677694262493
12000.0000000261,296.301654751536,1.00000000039783,0.557680808910054
12100.0000000265,304.42822071563,1.0000000003843,0.558539735284496
12200.0000000269,312.485575523128,1.0000000003844,0.558442087606977
12300.0000000272,320.506791212222,1.00000000038566,0.558500768212148
12400.0000000276,328.447463083149,1.00000000037083,0.55891881403161
12500.0000000279,336.320499384306,1.00000000037587,0.558587029169074
12600.0000000283,344.126246522945,1.00000000037085,0.558958846124262
12700.0000000287,351.829868276647,1.00000000038215,0.558827870077958
12800.000000029,359.46421917807,1.0000000003721,0.558418933395009
12900.0000000294,366.992414744403,1.00000000037249,0.558863357085651
13000.0000000298,374.420886655714,1.00000000036451,0.558793507715603
13100.0000000301,381.758081944908,1.00000000035618,0.558426096957148
13200.0000000305,388.96855747713,1.00000000036391,0.558806146311042
13300.0000000309,396.082003359604,1.00000000034317,0.558243038272729
13400.0000000312,403.072221447323,1.00000000034934,0.558133242442823
13500.0000000316,409.936065801896,1.00000000035406,0.558418443113084
13600.0000000319,416.69211414296,1.00000000034122,0.557553202801805
13700.0000000323,423.302285017191,1.00000000034446,0.557652332671005
13800.0000000327,429.794385195736,1.0000000003414,0.557581128905869
13900.000000033,436.15365533205,1.00000000033341,0.556929958347406
14000.0000000334,442.367355541612,1.00000000033242,0.556921606033605
14100.0000000338,448.459753274318,1.00000000034124,0.556879095996424
14200.0000000341,454.398792016966,1.00000000032858,0.556344861363478
14300.0000000345,460.20253550663,1.00000000031774,0.555816814911546
14400.0000000349,465.866172142076,1.00000000030948,0.555946513929054
14500.0000000352,471.375919426957,1.00000000032261,0.555756023305309
14600.0000000356,476.753586117555,1.00000000031781,0.554908108536411
14700.0000000359,481.972943329085,1.00000000031414,0.554980252842449
14800.0000000363,487.048718762899,1.00000000030495,0.554706016047287
14900.0000000367,491.982225478916,1.00000000030437,0.554016902575708
15000.000000037,496.755692559182,1.0000000002988,0.554038797802974
15100.0000000374,501.390970331728,1.00000000030412,0.553688334508839
15200.0000000378,505.871452121412,1.00000000030219,0.553727000340999
15300.0000000381,510.20184856804,1.0000000002877,0.552917523679117
15400.0000000385,514.390361017989,1.00000000029453,0.552485196873193
15500.0000000389,518.419567334442,1.00000000029269,0.552453357320038
15600.0000000392,522.309458114561,1.00000000028893,0.551963505621127
15700.0000000396,526.048265641439,1.00000000028738,0.551971818093964
15800.0000000399,529.636256982703,1.00000000028545,0.552011917944381
15900.0000000403,533.089319628933,1.00000000027591,0.551629551044571
16000.0000000407,536.386005341459,1.00000000028214,0.550935883792453
16100.000000041,539.547739841363,1.00000000027891,0.549798915891649
16200.0000000414,542.562588461047,1.00000000028417,0.550117469582887
16300.0000000418,545.434528499086,1.00000000026879,0.550301594914919
16400.0000000418,548.17317581557,1.00000000027763,0.550944572164685
16500.0000000404,550.767415498248,1.00000000027127,0.550218650908609
16600.0000000389,553.228354042528,1.00000000026645,0.549195191589826
16700.0000000375,555.554023900479,1.00000000026299,0.547163383892121
16800.000000036,557.737803561073,1.00000000026118,0.547051881552077
16900.0000000346,559.794758428495,1.00000000025985,0.547964732050475
17000.0000000331,561.714913068008,1.00000000025797,0.550288048479677
17100.0000000317,563.511469152239,1.00000000026223,0.550624920373016
17200.0000000302,565.184943699071,1.00000000025639,0.549039771158251
17300.0000000287,566.728002489761,1.00000000024414,0.545613979080399
17400.0000000273,568.149664244896,1.00000000023956,0.543123120305527
17500.0000000258,569.44014258053,1.00000000024232,0.543366870902714
17600.0000000244,570.607816368193,1.00000000023588,0.547222678587492
17700.0000000229,571.663609699955,1.00000000024815,0.551182754729866
17800.0000000215,572.606781507835,1.00000000024702,0.552685986404949
17900.00000002,573.452044454108,1.00000000024932,0.54911376258261
18000.0000000186,574.185777884007,1.00000000023944,0.542524084738491
18100.0000000171,574.803677582101,1.0000000002266,0.537643911935003
18200.0000000156,575.305789358648,1.00000000021799,0.537534180216286
18300.0000000142,575.690725515249,1.00000000022777,0.544473836357356
18400.0000000127,575.981969819591,1.00000000024224,0.552172455396977
18500.0000000113,576.188428020528,1.00000000025724,0.556215233972012
18600.0000000098,576.317660641506,1.00000000024803,0.553224825799882
18700.0000000084,576.369153687534,1.00000000023507,0.543727148796919
18800.0000000069,576.322289633947,1.00000000020922,0.533697282028646
18900.0000000055,576.171752309822,1.00000000019675,0.528073961147073
19000.000000004,575.914084831429,1.00000000020139,0.533065734594679
19100.0000000026,575.564412342931,1.00000000022352,0.545094708963893
19200.0000000011,575.150069792837,1.00000000025461,0.556379987409723
19299.9999999996,574.68369871387,1.00000000026793,0.560302742529939
19399.9999999982,574.174846912728,1.00000000026176,0.554469863624363
19499.9999999967,573.610819163595,1.00000000023765,0.54025705864599
19599.9999999953,572.968569474209,1.00000000020008,0.524478452689255
19699.9999999938,572.23599425523,1.0000000001766,0.515894086976262
19799.9999999924,571.406389629577,1.00000000017939,0.521246205415986
19899.9999999909,570.502252428231,1.00000000021594,0.538399958228807
19999.9999999895,569.55040719639,1.0000000002552,0.555234605595705
20099.999999988,568.57279690084,1.00000000028514,0.563982335117256
20199.9999999865,567.584442441644,1.0000000002896,0.561048862258464
20299.9999999851,566.571696165698,1.00000000025897,0.546122908667021
20399.9999999836,565.515542463072,1.00000000021379,0.524391791583959
20499.9999999822,564.390337231582,1.00000000016426,0.504848493469057
20599.9999999807,563.180402843558,1.00000000015602,0.499674537937079
20699.9999999793,561.896868022863,1.0000000001793,0.513344532356243
20799.9999999778,560.560027565957,1.00000000022497,0.53774725700841
20899.9999999764,559.203105118958,1.00000000027799,0.558726732090154
20999.9999999749,557.850264726138,1.00000000032125,0.567875072830709
21099.9999999734,556.506398537484,1.00000000030276,0.563622208122827
21199.999999972,555.164390928174,1.00000000027802,0.546680861961171
21299.9999999705,553.79818152268,1.0000000002233,0.519964863922673
21399.9999999691,552.381904673613,1.00000000016771,0.493845007840207
21499.9999999676,550.898680164029,1.00000000014249,0.480865368977082
21599.9999999662,549.346748908663,1.00000000015668,0.490601259949083
21699.9999999647,547.749643269909,1.00000000020266,0.519537837736751
21799.9999999633,546.134285427048,1.00000000026601,0.549263764300565
21899.9999999618,544.528304607314,1.0000000003144,0.567298363822923
21999.9999999603,542.948066698712,1.00000000033219,0.571239912747766
22099.9999999589,541.390834119148,1.0000000003226,0.562862510677389
22199.9999999574,539.844887249691,1.00000000027554,0.541498140811656
22299.999999956,538.28434542451,1.00000000021428,0.510138686265793
22399.9999999545,536.684138847221,1.00000000016101,0.479542252894201
22499.9999999531,535.030105574105,1.00000000012982,0.464320109444319
22599.9999999516,533.319831109089,1.0000000001436,0.473330849502573
22699.9999999502,531.573605140741,1.00000000019956,0.504773888080087
22799.9999999487,529.815118208083,1.00000000026537,0.539332791247825
22899.9999999473,528.068122529994,1.00000000032244,0.56301164914643
22999.9999999458,526.351027703601,1.00000000034788,0.572348881482063
23099.9999999443,524.666056026284,1.0000000003455,0.569514418393836
23199.9999999429,523.008154277701,1.00000000031677,0.555872987327831
23299.9999999414,521.360797525254,1.00000000026687,0.529904859991168
23399.99999994,519.700521164405,1.00000000020458,0.495300864781375
23499.9999999385,518.010442138691,1.00000000014875,0.464288400674006
23599.9999999371,516.276909265415,1.00000000012703,0.450829402760834
23699.9999999356,514.504693203015,1.00000000013679,0.461254395466259
23799.9999999342,512.706083346809,1.00000000019189,0.49211184982398
23899.9999999327,510.900199202431,1.00000000025249,0.528562394299502
23999.9999999312,509.107811421175,1.00000000031421,0.55537504401275
24099.9999999298,507.34137023142,1.00000000034315,0.568335736024392
24199.9999999283,505.607442088238,1.00000000036364,0.569488589654553
24299.9999999269,503.905574925053,1.0000000003403,0.560521782362555
24399.9999999254,502.224275912951,1.00000000029877,0.542911400346577
24499.999999924,500.551632293068,1.00000000025191,0.515875086255746
24599.9999999225,498.86991003015,1.00000000019158,0.481896110787323
24699.9999999211,497.166873877803,1.00000000015486,0.454198591762266
24799.9999999196,495.43705616654,1.0000000001308,0.443121696147478
24899.9999999181,493.680749458076,1.00000000013743,0.451901642465295
24999.9999999167,491.909150776596,1.00000000018499,0.4780099250734
25099.9999999152,490.133462599514,1.00000000023191,0.51165444716622
25199.9999999138,488.367301882403,1.00000000029424,0.54112702404457
25299.9999999123,486.622088416474,1.0000000003262,0.557430153018475
25399.9999999109,484.902458395117,1.00000000034819,0.562834742627932
25499.9999999094,483.211122987845,1.00000000034735,0.559183863580562
25599.999999908,481.544588776476,1.00000000031871,0.547356004226784
25699.9999999065,479.894536257212,1.00000000029331,0.53098180662061
25799.9999999051,478.253391497955,1.00000000024453,0.507863186816997
25899.9999999036,476.609222584147,1.00000000020026,0.479864356809894
25999.9999999021,474.956084626522,1.00000000016901,0.45675700319587
26099.9999999007,473.289445670504,1.00000000015204,0.443704111768549
26199.9999998992,471.610056623082,1.00000000014905,0.445694380972864
26299.9999998978,469.922747706812,1.00000000017357,0.460882877705676
26399.9999998963,468.232597295009,1.00000000021227,0.485414206794814
26499.9999998949,466.548159489335,1.00000000025974,0.512688490745194
26599.9999998934,464.876155935365,1.0000000002873,0.534759350888053
26699.999999892,463.220884875621,1.00000000031181,0.546447277092875
26799.9999998905,461.586252735071,1.00000000035249,0.54989348117721
26899.999999889,459.972342755727,1.00000000031185,0.544998848796712
26999.9999998876,458.376679228293,1.00000000031505,0.536901818613716
27099.9999998861,456.796836337116,1.00000000029576,0.524211957800497
27199.9999998847,455.226362253185,1.00000000025497,0.508963531846873
27299.9999998832,453.661584640097,1.00000000023916,0.49329782643144
27399.9999998818,452.097654461236,1.0000000002036,0.47433420535024
27499.9999998803,450.532342303107,1.00000000017948,0.459792710292747
27599.9999998789,448.965178231455,1.00000000017023,0.451718108815024
27699.9999998774,447.396276637203,1.00000000016886,0.450861048486876
27799.9999998759,445.828715903788,1.00000000018574,0.4609121388662
27899.9999998745,444.263974022905,1.00000000021089,0.476295128615783
27999.999999873,442.705829696455,1.00000000024079,0.495702992262358
28099.9999998716,441.157100084853,1.00000000026109,0.51307775611949
28199.9999998701,439.619882640824,1.0000000002922,0.527059844188752
28299.9999998687,438.096206441872,1.00000000031053,0.531565561077872
28399.9999998672,436.58668294502,1.00000000031285,0.532183857366044
28499.9999998658,435.090642609328,1.00000000030352,0.528316681869628
28599.9999998643,433.60755239793,1.00000000028781,0.521822379661399
28699.9999998629,432.135261788634,1.00000000028025,0.51523450024868
28799.9999998614,430.672252753256,1.00000000024925,0.50643448754388
28899.9999998599,429.216787211858,1.00000000023828,0.49987168816994
