Time,AGPnorm,Energy,Entropy
0,0,1,-1.54565328809069e-17
99.9999999999986,6.99581231171815e-06,1.00000000000136,0.000365990527066797
199.999999999993,0.000612934366602887,1.00000000000184,0.000561631611534151
300,0.00157585082907186,0.999999999999766,0.00101313390673331
400.000000000022,0.00218156179870236,1.00000000000247,0.00174781610204162
500.000000000045,0.0026366951361153,1.00000000000037,0.00232501729348575
600.000000000068,0.00377706509245208,1.00000000000088,0.00331580768796938
700.000000000091,0.00466045954205385,1.00000000000219,0.00422369148734704
800.000000000113,0.00606348159660376,0.999999999999706,0.00523364373205708
900.000000000136,0.00760242471960498,1.00000000000222,0.00649586783583902
1000.00000000016,0.00886989894217526,1.0000000000008,0.00760161789970013
1100.0000000001,0.0107254510956992,1.00000000000046,0.00900963367768375
1200,0.0125182696962578,1.00000000000242,0.0103905996574456
1299.99999999991,0.0145097851587761,0.999999999999789,0.0118011782117625
1399.99999999982,0.0167019259493959,1.00000000000185,0.0134590262582428
1499.99999999973,0.0188327914842304,1.00000000000126,0.0149653538855739
1599.99999999964,0.0214940275833032,1.00000000000013,0.0167052473903611
1699.99999999955,0.0240601387923509,1.00000000000249,0.0184717109610606
1799.99999999946,0.0266213860396669,1,0.020212449435923
1899.99999999937,0.0294117538059114,1.00000000000142,0.0221985952918156
1999.99999999928,0.032299013837167,1.0000000000017,0.0240533611715508
2099.99999999919,0.0356493878401846,0.999999999999921,0.0260845136104484
2199.99999999909,0.0389180007847418,1.0000000000024,0.028191295403747
2299.999999999,0.0420937867864969,1.00000000000032,0.0302258703504561
2399.99999999891,0.0455110103284987,1.000000000001,0.0325060117247709
2499.99999999882,0.0490013782097717,1.00000000000206,0.0346886957800489
2599.99999999873,0.0528349444166361,0.999999999999837,0.0369969753303289
2699.99999999864,0.0566642312742134,1.00000000000215,0.0394202381142421
2799.99999999855,0.0604963670270675,1.00000000000071,0.0417422429458516
2899.99999999846,0.0645665924176174,1.00000000000063,0.0443027181706235
2999.99999999837,0.0685786965482887,1.00000000000229,0.046810650018346
3099.99999999828,0.0727335212827243,0.999999999999892,0.0493953285667748
3199.99999999819,0.0769659242490092,1.00000000000183,0.0521294461162321
3299.99999999809,0.0813660029307425,1.00000000000113,0.0547591944080851
3399.999999998,0.0860073188238922,1.00000000000032,0.0576051152534458
3499.99999999791,0.0905051866789102,1.00000000000234,0.0604540297361486
3599.99999999782,0.0949517237242195,1.00000000000008,0.063323528164795
3699.99999999773,0.0995241377226223,1.00000000000149,0.0663871892405453
3799.99999999764,0.104294962081801,1.00000000000156,0.069358923619163
3899.99999999755,0.109318160911872,1.00000000000008,0.0725201224316935
3999.99999999746,0.114191016149501,1.00000000000222,0.0757405554579002
4099.99999999738,0.119000666741839,1.00000000000034,0.0789343426815907
4199.99999999775,0.123913123467805,1.00000000000116,0.0823659848232567
4299.99999999811,0.128907624487145,1.00000000000193,0.0857307008286637
4399.99999999848,0.134086356196824,0.999999999999971,0.0892618719471314
4499.99999999884,0.139162864684314,1.00000000000203,0.0929040890380034
4599.9999999992,0.144332416492563,1.00000000000064,0.0965071976322105
4699.99999999957,0.149552635639386,1.00000000000084,0.100373052467288
4799.99999999993,0.154724051728716,1.00000000000214,0.104223141826711
4900.00000000029,0.159908334752839,1.00000000000006,0.108206332495361
5000.00000000066,0.165090540401861,1.00000000000181,0.112373209082505
5100.00000000102,0.170459762108165,1.00000000000101,0.116515879463954
5200.00000000139,0.175901549913457,1.00000000000054,0.120950323431543
5300.00000000175,0.181180543166851,1.00000000000216,0.125445350715742
5400.00000000211,0.186384324154142,1.0000000000003,0.130046529384416
5500.00000000248,0.191676675489514,1.00000000000161,0.134934822381357
5600.00000000284,0.197041909947013,1.00000000000153,0.139844228654997
5700.00000000321,0.202598853680501,1.0000000000004,0.145088918126902
5800.00000000357,0.207848115734804,1.00000000000228,0.150507632356011
5900.00000000393,0.21312732634185,1.00000000000087,0.156058289693512
6000.0000000043,0.218636610764154,1.00000000000197,0.162001643917967
6100.00000000466,0.223817264880492,1.00000000000284,0.168056274043898
6200.00000000502,0.229555527626818,1.00000000000164,0.174457377164782
6300.00000000539,0.234844877599893,1.00000000000419,0.181165089939908
6400.00000000575,0.240209020702891,1.00000000000377,0.188004693505909
6500.00000000612,0.246731739605274,1.00000000000547,0.195272933009732
6600.00000000648,0.251956074436755,1.00000000000797,0.202653560525471
6700.00000000684,0.2591394267042,1.00000000000834,0.210223048960422
6800.00000000721,0.266554967684951,1.00000000001214,0.218099053214181
6900.00000000757,0.273884391524105,1.00000000001404,0.225917848532065
7000.00000000793,0.286215943533043,1.00000000001728,0.234032519920861
7100.0000000083,0.296849318467498,1.00000000002189,0.242094729189632
7200.00000000866,0.313676690075495,1.00000000002405,0.250096957182297
7300.00000000903,0.335914928439994,1.00000000002933,0.258236161896856
7400.00000000939,0.359960312708053,1.00000000003537,0.266120398914337
7500.00000000975,0.399602986987939,1.00000000003808,0.274145176904332
7600.00000001012,0.4432603761689,1.00000000004449,0.282002590072049
7700.00000001048,0.503315322150409,1.00000000004768,0.289649993124711
7800.00000001084,0.584489754416936,1.00000000005701,0.297286198618288
7900.00000001121,0.676972378733182,1.00000000006102,0.304699680614921
8000.00000001157,0.806207550491721,1.00000000006486,0.312011905187391
8100.00000001194,0.958108766930455,1.00000000007063,0.319271636856759
8200.0000000123,1.14573600137487,1.00000000008082,0.326172756724322
8300.00000001266,1.38419533762503,1.00000000008497,0.333165742849561
8400.00000001303,1.65585143666212,1.00000000009066,0.339903119979761
8500.00000001339,1.99624702494966,1.00000000009413,0.346428803133028
8600.00000001376,2.39317945859236,1.0000000001001,0.352972729304177
8700.00000001412,2.85456597799604,1.00000000011082,0.359144385367275
8800.00000001448,3.40865992921612,1.00000000011272,0.365413018497036
8900.00000001485,4.03035015063192,1.00000000011613,0.37146589439841
9000.00000001521,4.75958865276649,1.0000000001299,0.377179570459553
9100.00000001557,5.59048941693879,1.00000000013239,0.383029048648782
9200.00000001594,6.52105497310102,1.00000000013928,0.388534169320806
9300.0000000163,7.59208946520229,1.00000000014076,0.393994704477975
9400.00000001667,8.77306796263129,1.00000000014132,0.399402997058791
9500.00000001703,10.1012369619012,1.00000000015324,0.404412681271697
9600.00000001739,11.5800572831642,1.00000000015567,0.409537480607019
9700.00000001776,13.1955998680135,1.00000000016675,0.414378470472028
9800.00000001812,14.9967407882217,1.00000000017086,0.419077062229693
9900.00000001848,16.951502515803,1.00000000017072,0.423832716775186
10000.0000000188,19.0882352488419,1.00000000017219,0.428224559616688
10100.0000000192,21.4212872344761,1.00000000018329,0.432605129551015
10200.0000000196,23.9247944059004,1.00000000018992,0.4368813759461
10300.0000000199,26.6494981767748,1.00000000018207,0.440950317011649
10400.0000000203,29.5665817550386,1.00000000019044,0.444984120403014
10500.0000000207,32.6911565137241,1.00000000019044,0.448863793040507
10600.000000021,36.0482825379321,1.00000000019635,0.452551235787077
10700.0000000214,39.602095542138,1.00000000021064,0.456245289201886
10800.0000000218,43.3995524314691,1.00000000020231,0.45970947212936
10900.0000000221,47.4184656248467,1.00000000019846,0.463244319062976
11000.0000000225,51.6589123110439,1.00000000020042,0.466639228715353
11100.0000000229,56.1551075898982,1.00000000020909,0.469617216569527
11200.0000000232,60.8639216417302,1.00000000021919,0.472832022073768
11300.0000000236,65.8249988562018,1.00000000022359,0.475749263977632
11400.0000000239,71.023856139774,1.00000000021087,0.478763440029166
11500.0000000243,76.4468752646271,1.00000000021336,0.481666460684401
11600.0000000247,82.1332899945879,1.00000000022169,0.484226403326808
11700.000000025,88.0372368634033,1.00000000021989,0.486937145873016
11800.0000000254,94.1880606266193,1.00000000023197,0.489456904369396
11900.0000000258,100.581492610117,1.000000000232,0.491758856861079
12000.0000000261,107.190459392966,1.00000000022264,0.494301213605872
12100.0000000265,114.055787261109,1.00000000021974,0.496589860152806
12200.0000000269,121.133392429161,1.00000000023404,0.498595116404559
12300.0000000272,128.440711573497,1.0000000002293,0.500887122889173
12400.0000000276,135.98318399142,1.0000000002233,0.502862713887345
12500.0000000279,143.723695410855,1.00000000023167,0.504725440330219
12600.0000000283,151.699877331143,1.00000000022815,0.506762104268548
12700.0000000287,159.876276816253,1.00000000022551,0.508435743717204
12800.000000029,168.255204228211,1.00000000022301,0.510250017810467
12900.0000000294,176.851527094338,1.00000000022415,0.511873940208411
13000.0000000298,185.622235883722,1.00000000023846,0.51332648809999
13100.0000000301,194.599016259748,1.00000000023947,0.51480490618744
13200.0000000305,203.754758987252,1.00000000022322,0.516477143436909
13300.0000000309,213.080066114099,1.00000000023519,0.517738086706711
13400.0000000312,222.596393080681,1.00000000023001,0.519122820192068
13500.0000000316,232.259232692255,1.00000000022276,0.520381985095405
13600.0000000319,242.092387575761,1.00000000022478,0.521558709850849
13700.0000000323,252.07809838516,1.00000000023448,0.52265650360529
13800.0000000327,262.197161165061,1.0000000002364,0.523690385440735
13900.000000033,272.474646405424,1.00000000024307,0.524690759037974
14000.0000000334,282.866476936737,1.00000000022614,0.52591532257805
14100.0000000338,293.389910565,1.00000000022819,0.526694932185375
14200.0000000341,304.03591983558,1.00000000022692,0.527661587126123
14300.0000000345,314.777583795492,1.0000000002331,0.528346594599676
14400.0000000349,325.640969356777,1.00000000021807,0.529285672815493
14500.0000000352,336.586023223632,1.00000000022934,0.530104643531329
14600.0000000356,347.623245606326,1.00000000022782,0.530630206652262
14700.0000000359,358.750017671352,1.0000000002296,0.531164912823924
14800.0000000363,369.935096661644,1.00000000022101,0.531963986830529
14900.0000000367,381.203922849556,1.00000000022401,0.532441040258593
15000.000000037,392.523859463341,1.00000000021419,0.533104952199765
15100.0000000374,403.89412587316,1.00000000022168,0.533666811313617
15200.0000000378,415.324476646735,1.00000000022805,0.533818092140126
15300.0000000381,426.776170196946,1.00000000022389,0.534270527982028
15400.0000000385,438.272474908071,1.00000000021357,0.534920305135576
15500.0000000389,449.790612446305,1.00000000020946,0.535381825570237
15600.0000000392,461.321929720981,1.00000000022217,0.535445684411235
15700.0000000396,472.878796696165,1.00000000022269,0.535642089154865
15800.0000000399,484.426911784979,1.00000000022438,0.535960209427757
15900.0000000403,495.984178868614,1.00000000021381,0.536252212820378
16000.0000000407,507.533817130431,1.00000000021252,0.53667951515328
16100.000000041,519.061319194868,1.00000000021194,0.536982534557491
16200.0000000414,530.585730063078,1.00000000021407,0.536949004364186
16300.0000000418,542.072050612029,1.00000000021201,0.536881812703943
16400.0000000418,553.532403379558,1.00000000021028,0.53701497840799
16500.0000000404,564.962445664951,1.00000000020871,0.537336726426741
16600.0000000389,576.338273544609,1.00000000020158,0.537541293531024
16700.0000000375,587.681067371836,1.00000000021388,0.537654432609366
16800.000000036,598.962798388298,1.000000000205,0.537476056504926
16900.0000000346,610.189691009638,1.00000000019772,0.537560645858499
17000.0000000331,621.361382003507,1.00000000021021,0.537090435863104
17100.0000000317,632.454457503489,1.00000000020134,0.537540932841568
17200.0000000302,643.488999237347,1.00000000019726,0.537449833042259
17300.0000000287,654.440452334458,1.00000000020011,0.537698385783601
17400.0000000273,665.311664529185,1.00000000020031,0.537387688071775
17500.0000000258,676.107490755022,1.00000000019953,0.537247009358875
17600.0000000244,686.804108780858,1.00000000019486,0.536987737019286
17700.0000000229,697.416585824386,1.0000000002009,0.536782983874376
17800.0000000215,707.931803703023,1.00000000019564,0.536727486070105
17900.00000002,718.341447402887,1.00000000018934,0.53676914218528
18000.0000000186,728.658613113525,1.00000000019627,0.536629096736173
18100.0000000171,738.858038188385,1.00000000019328,0.536550152106954
18200.0000000156,748.95408838287,1.00000000018752,0.536272140196547
18300.0000000142,758.936502180308,1.00000000019208,0.535833055334631
18400.0000000127,768.795718621579,1.00000000019014,0.535680882845388
18500.0000000113,778.546138117884,1.0000000001851,0.535426918556576
18600.0000000098,788.165980258326,1.00000000018329,0.535356710128939
18700.0000000084,797.664807309316,1.00000000018519,0.535064117395418
18800.0000000069,807.038523457911,1.00000000018413,0.535010971462126
18900.0000000055,816.275888930547,1.00000000018318,0.534902151873846
19000.000000004,825.390696343857,1.00000000018086,0.53456037241671
19100.0000000026,834.365462421577,1.00000000017602,0.53422890925474
19200.0000000011,843.204888094292,1.00000000018068,0.533729572690959
19299.9999999996,851.911272421029,1.0000000001819,0.53352325456681
19399.9999999982,860.470625364411,1.00000000017401,0.533191475268372
19499.9999999967,868.896803530394,1.00000000017446,0.533190348250839
19599.9999999953,877.176518136565,1.00000000018086,0.532868089239474
19699.9999999938,885.311296633794,1.00000000017184,0.532877201479804
19799.9999999924,893.307226943371,1.00000000017015,0.532486919296461
19899.9999999909,901.14919135447,1.00000000016635,0.532100508594683
19999.9999999895,908.849828531473,1.00000000017091,0.531679870637622
20099.999999988,916.399669015752,1.00000000017397,0.531128002645202
20199.9999999865,923.798209961499,1.000000000166,0.531121021062629
20299.9999999851,931.054468534116,1.0000000001614,0.530753950847872
20399.9999999836,938.153079803758,1.00000000016717,0.530681407653815
20499.9999999822,945.105292458831,1.00000000016389,0.530425139779548
20599.9999999807,951.904841337239,1.00000000016325,0.530176958867281
20699.9999999793,958.549891924141,1.00000000015712,0.529973621417125
20799.9999999778,965.04955651891,1.00000000015757,0.529314388852398
20899.9999999764,971.390618210411,1.00000000016413,0.529054619651894
20999.9999999749,977.582840622389,1.00000000015756,0.528686112121283
21099.9999999734,983.623809122888,1.00000000015592,0.528517395561126
21199.999999972,989.509089459096,1.0000000001573,0.528395329892976
21299.9999999705,995.24831280841,1.00000000015356,0.528159752420483
21399.9999999691,1000.83099087083,1.00000000015468,0.528069945692425
21499.9999999676,1006.26459569218,1.00000000014916,0.527523431608179
21599.9999999662,1011.54910330251,1.0000000001491,0.527054325437502
21699.9999999647,1016.67795750436,1.00000000014838,0.526605311446404
21799.9999999633,1021.6614864855,1.00000000014872,0.526072453811259
21899.9999999618,1026.49221218189,1.00000000014909,0.526159199796514
21999.9999999603,1031.17487877658,1.00000000015121,0.526124224971308
22099.9999999589,1035.71331626516,1.00000000015087,0.52643594392663
22199.9999999574,1040.10100882237,1.00000000014213,0.526688140085629
22299.999999956,1044.34712234921,1.00000000014991,0.526260726901263
22399.9999999545,1048.44712710623,1.00000000014773,0.525764970001142
22499.9999999531,1052.40194052625,1.00000000014242,0.524621050247312
22599.9999999516,1056.21671330859,1.00000000014495,0.523555765632881
22699.9999999502,1059.88364438452,1.0000000001376,0.522757839868264
22799.9999999487,1063.40956328375,1.00000000014257,0.522265899716736
22899.9999999473,1066.79358556634,1.00000000014116,0.522876057204362
22999.9999999458,1070.03599715662,1.00000000014278,0.523994614412315
23099.9999999443,1073.14537621166,1.00000000014137,0.525458263053073
23199.9999999429,1076.11712418075,1.0000000001409,0.526491690690174
23299.9999999414,1078.95928904856,1.00000000014109,0.526578029339431
23399.99999994,1081.67154142302,1.00000000014185,0.525551784125689
23499.9999999385,1084.25133075126,1.00000000014045,0.523355901244245
23599.9999999371,1086.70319870547,1.00000000013076,0.520776493820436
23699.9999999356,1089.01872934305,1.00000000013345,0.518280269930117
23799.9999999342,1091.20090175433,1.00000000013047,0.516673050575936
23899.9999999327,1093.24970682142,1.00000000012594,0.517146312558965
23999.9999999312,1095.16407619344,1.00000000012919,0.519431237686687
24099.9999999298,1096.95460470255,1.00000000012869,0.522906356905577
24199.9999999283,1098.62295239344,1.00000000012949,0.526481618048006
24299.9999999269,1100.17851527554,1.00000000013113,0.529140962733518
24399.9999999254,1101.62835425371,1.00000000013592,0.529800488198773
24499.999999924,1102.9702651174,1.00000000013454,0.528154403090247
24599.9999999225,1104.20778173588,1.00000000012776,0.524230401150011
24699.9999999211,1105.33309712081,1.00000000012991,0.518632183907111
24799.9999999196,1106.34074078611,1.00000000012132,0.512889876040224
24899.9999999181,1107.22740144114,1.00000000011462,0.5088930665269
24999.9999999167,1107.98517699385,1.00000000011275,0.508211508983491
25099.9999999152,1108.62053818596,1.0000000001114,0.511217018440996
25199.9999999138,1109.13831100987,1.0000000001202,0.517126465133203
25299.9999999123,1109.55036717588,1.00000000012402,0.524220583533673
25399.9999999109,1109.87334326737,1.00000000013094,0.530633365590138
25499.9999999094,1110.11411204502,1.00000000013605,0.534752888399879
25599.999999908,1110.28499290882,1.00000000013828,0.535646408489569
25699.9999999065,1110.38594468315,1.00000000013963,0.532506346878524
25799.9999999051,1110.4118503941,1.0000000001278,0.525761884043378
25899.9999999036,1110.35650980311,1.00000000012102,0.516186453394122
25999.9999999021,1110.20283242068,1.00000000011281,0.505902211445916
26099.9999999007,1109.94213651755,1.00000000010019,0.497720759116214
26199.9999998992,1109.56592579842,1.00000000009833,0.494568185034142
26299.9999998978,1109.07426128708,1.00000000009721,0.497752224951997
26399.9999998963,1108.47891815086,1.00000000010386,0.50633308309763
26499.9999998949,1107.79307372141,1.00000000011593,0.517539918151814
26599.9999998934,1107.03739286488,1.0000000001236,0.528589247651004
26699.999999892,1106.23081786369,1.00000000013679,0.536912678403959
26799.9999998905,1105.38466577793,1.0000000001507,0.541472130462188
26899.999999889,1104.50995432728,1.00000000014864,0.541596810416231
26999.9999998876,1103.60344410761,1.00000000014198,0.536274125125277
27099.9999998861,1102.65755923789,1.00000000013842,0.526403931141218
27199.9999998847,1101.65884134842,1.00000000012361,0.512178959138002
27299.9999998832,1100.58563911377,1.00000000010885,0.496667353388094
27399.9999998818,1099.42465195242,1.00000000009334,0.483326835758796
27499.9999998803,1098.16246496373,1.00000000008316,0.476261841188063
27599.9999998789,1096.79900643992,1.00000000008276,0.4782416087468
27699.9999998774,1095.34337755929,1.00000000009377,0.488915844462282
27799.9999998759,1093.8111877413,1.00000000010768,0.504712331196107
27899.9999998745,1092.22590775253,1.00000000012272,0.52061770050942
27999.999999873,1090.60899044855,1.00000000014088,0.534468395590952
28099.9999998716,1088.97851107938,1.00000000015128,0.543117611248761
28199.9999998701,1087.34959177468,1.00000000017003,0.547973549448285
28299.9999998687,1085.72412262172,1.00000000016276,0.546089032351344
28399.9999998672,1084.10093496126,1.00000000016411,0.54031891306322
28499.9999998658,1082.46924090362,1.00000000014914,0.527630923715071
28599.9999998643,1080.80969704059,1.00000000013041,0.510457638827296
28699.9999998629,1079.10457800612,1.00000000011048,0.490291463392993
28799.9999998614,1077.33061544317,1.00000000008768,0.470746681836027
