Time,AGPnorm,Energy,Entropy
0,0,1,-7.55093390184955e-17
99.9999999999986,0.000272247832543562,0.999999999999187,0.00111158210312541
199.999999999993,0.00189260609317705,1.00000000000247,0.00339309852017291
300,0.0038768520207477,1.00000000000435,0.00649911198451452
400.000000000022,0.00611461480882774,1.00000000000168,0.0103620725026073
500.000000000045,0.0088567447770656,0.999999999998858,0.0149697956766288
600.000000000068,0.0125517893418656,1.00000000000075,0.0202497958096723
700.000000000091,0.0163648439763149,1.00000000000404,0.0261585305059715
800.000000000113,0.0207351625377212,1.00000000000336,0.0325958606309918
900.000000000136,0.025638948985716,0.999999999999711,0.0394962535979746
1000.00000000016,0.0311147046258692,0.999999999999352,0.0468484808211258
1100.0000000001,0.0367653203718361,1.00000000000278,0.054852686921287
1200,0.0425997357574163,1.00000000000424,0.063446916799264
1299.99999999991,0.0489995301905349,1.00000000000137,0.0725589709162858
1399.99999999982,0.0556808636504086,0.999999999998925,0.0821013715525885
1499.99999999973,0.0627543345238681,1.00000000000112,0.0923258848814403
1599.99999999964,0.0694638736435835,1.00000000000406,0.103392989084464
1699.99999999955,0.076584270834066,1.00000000000313,0.115260949136755
1799.99999999946,0.0839144324553507,0.999999999999784,0.12787515974415
1899.99999999937,0.0915166068945636,1.00000000000014,0.141428905775604
1999.99999999928,0.0987434270986296,1.00000000000381,0.156371105272634
2099.99999999919,0.106356453504131,1.00000000000597,0.172828075053469
2199.99999999909,0.114342085542288,1.00000000000575,0.190858607412783
2299.999999999,0.122365428975197,1.00000000000886,0.210381889627796
2399.99999999891,0.131372996461048,1.00000000001999,0.231606576796953
2499.99999999882,0.145251437526648,1.00000000003661,0.254209051506911
2599.99999999873,0.16866980917384,1.00000000005517,0.277474393779618
2699.99999999864,0.20693877052534,1.00000000007523,0.300445661611152
2799.99999999855,0.272763855456165,1.00000000010056,0.322783569169898
2899.99999999846,0.389659301672218,1.00000000013545,0.344208462952393
2999.99999999837,0.587901034529081,1.00000000017247,0.36439060700862
3099.99999999828,0.900874438030612,1.0000000002051,0.382979326767539
3199.99999999819,1.36329792526344,1.00000000024507,0.399791759295032
3299.99999999809,2.01294875318886,1.00000000025401,0.415332155332956
3399.999999998,2.89972606720617,1.00000000028921,0.429567128058546
3499.99999999791,4.08029675331017,1.00000000028638,0.442621891219351
3599.99999999782,5.59758195845336,1.00000000033007,0.453931365292545
3699.99999999773,7.46924292874789,1.00000000035856,0.464180066230285
3799.99999999764,9.71952583716488,1.00000000036089,0.473703212514201
3899.99999999755,12.3980071640933,1.00000000040552,0.48222677443912
3999.99999999746,15.5446695039727,1.00000000039154,0.489791466164752
4099.99999999738,19.1471050422891,1.0000000003988,0.496223044467687
4199.99999999775,23.17849295377,1.0000000004278,0.502070685095847
4299.99999999811,27.6522770243577,1.00000000041908,0.507612468275578
4399.99999999848,32.5991903449722,1.00000000044056,0.512010393932179
4499.99999999884,37.9992292784832,1.00000000045343,0.515576489455912
4599.9999999992,43.7844629942836,1.00000000044488,0.519069747783634
4699.99999999957,49.9192527801674,1.0000000004244,0.522205531027067
4799.99999999993,56.4228401978706,1.00000000044706,0.52437369189615
4900.00000000029,63.2860949760017,1.0000000004344,0.52633078118328
5000.00000000066,70.4323650034166,1.00000000044359,0.527829250516363
5100.00000000102,77.7893377351614,1.0000000004246,0.529219720237851
5200.00000000139,85.3506644031202,1.00000000043435,0.530272543980594
5300.00000000175,93.121445973907,1.00000000042307,0.530859052993177
5400.00000000211,101.048960873024,1.00000000043448,0.530954318768464
5500.00000000248,109.048368528213,1.00000000041503,0.531103003720776
5600.00000000284,117.08454114818,1.00000000040941,0.532115744773231
5700.00000000321,125.16690486188,1.00000000039682,0.531494044634156
5800.00000000357,133.27397136464,1.00000000041999,0.530328240172825
5900.00000000393,141.335180843924,1.00000000040468,0.530192480312698
6000.0000000043,149.297376570163,1.00000000038743,0.53033669870058
6100.00000000466,157.156861692354,1.00000000039938,0.528464908656422
6200.00000000502,164.918243043561,1.00000000038307,0.526942480645903
6300.00000000539,172.541152387916,1.00000000037587,0.526605616317361
6400.00000000575,179.972043563186,1.0000000003693,0.526244593933594
6500.00000000612,187.190131574313,1.0000000003694,0.524552203982692
6600.00000000648,194.209279414056,1.00000000036398,0.522549420438052
6700.00000000684,201.019826908263,1.00000000035677,0.521495937725688
6800.00000000721,207.583366885239,1.0000000003476,0.520754652396325
6900.00000000757,213.87253864948,1.00000000032605,0.519808249385631
7000.00000000793,219.892129026629,1.00000000033568,0.517732426088506
7100.0000000083,225.654546893945,1.00000000032015,0.51638249834049
7200.00000000866,231.143682077246,1.00000000033647,0.51554458298536
7300.00000000903,236.336486667256,1.00000000032618,0.514642537996053
7400.00000000939,241.226881318761,1.0000000003067,0.512723370005409
7500.00000000975,245.829638048072,1.00000000030966,0.510360369045187
7600.00000001012,250.152453372544,1.00000000029969,0.509712428132591
7700.00000001048,254.183279220225,1.0000000003035,0.510764104940964
7800.00000001084,257.916051655185,1.00000000028048,0.510978616119152
7900.00000001121,261.35768831213,1.0000000002896,0.507810209935614
8000.00000001157,264.517081448426,1.00000000027844,0.502373011609398
8100.00000001194,267.390156874834,1.00000000027323,0.498836741529687
8200.0000000123,269.972376828676,1.00000000026649,0.501952271526492
8300.00000001266,272.280193613257,1.00000000027769,0.508853758398826
8400.00000001303,274.34237815801,1.00000000026935,0.512235841178269
8500.00000001339,276.172584959501,1.00000000026425,0.507826538505585
8600.00000001376,277.752993439677,1.00000000023229,0.495856126190846
8700.00000001412,279.059068073061,1.00000000022749,0.484468927226295
8800.00000001448,280.090168897311,1.00000000022154,0.485168275182016
8900.00000001485,280.882507649422,1.00000000023945,0.499072856750386
9000.00000001521,281.486450041092,1.00000000025515,0.51571500370532
9100.00000001557,281.93879181674,1.00000000028884,0.523487896459982
9200.00000001594,282.245916870376,1.0000000002693,0.515231930258237
9300.0000000163,282.383280244736,1.00000000024395,0.491947288988816
9400.00000001667,282.307977009482,1.00000000018727,0.465869242221927
9500.00000001703,281.993088508878,1.00000000017036,0.457789290840303
9600.00000001739,281.461589310946,1.0000000001895,0.47766269480045
9700.00000001776,280.783954826158,1.00000000023862,0.508149397948864
9800.00000001812,280.040012738423,1.00000000027952,0.530638347473814
9900.00000001848,279.276217156237,1.00000000030376,0.537438398792121
10000.0000000188,278.486309217023,1.0000000002794,0.524092642150021
10100.0000000192,277.618864561601,1.00000000023594,0.4892078863121
10200.0000000196,276.605885572481,1.0000000001648,0.445130856103027
10300.0000000199,275.404999221429,1.00000000012941,0.418753487668947
10400.0000000203,274.028780996929,1.00000000014111,0.433897436958647
10500.0000000207,272.538569337918,1.0000000002053,0.476694947360539
10600.000000021,271.01223571493,1.00000000028513,0.5159598870516
10700.0000000214,269.515355244919,1.00000000032531,0.539119221870153
10800.0000000218,268.079863744223,1.00000000034992,0.545976510182095
10900.0000000221,266.696893268818,1.00000000033921,0.534291877918
11000.0000000225,265.321054571327,1.00000000027988,0.498206651261184
11100.0000000229,263.885996943764,1.0000000001938,0.442302057684646
11200.0000000232,262.336135783264,1.00000000012227,0.387214728401559
11300.0000000236,260.654177259048,1.00000000009101,0.367447217806902
11400.0000000239,258.867912278482,1.00000000013378,0.39990124836584
11500.0000000243,257.031492888914,1.00000000020996,0.456440716782561
11600.0000000247,255.201795771073,1.00000000029536,0.503709474534659
11700.000000025,253.422865349018,1.00000000033795,0.531571382679683
11800.0000000254,251.719020864067,1.00000000038859,0.543911352086624
11900.0000000258,250.094249346765,1.00000000035233,0.544741600840333
12000.0000000261,248.53259022122,1.00000000033246,0.52936678771241
12100.0000000265,246.999705804858,1.00000000028758,0.491585462486968
12200.0000000269,245.450129449198,1.00000000020784,0.432960361746516
12300.0000000272,243.841984081166,1.00000000013581,0.368093894608925
12400.0000000276,242.156509723166,1.0000000000876,0.325474250397658
12500.0000000279,240.405440512844,1.00000000009767,0.32995797587571
12600.0000000283,238.620424362807,1.00000000014913,0.37683879978495
12700.0000000287,236.833446299086,1.00000000023041,0.437644797372979
12800.000000029,235.067842623114,1.00000000028852,0.486362605986141
12900.0000000294,233.34103848338,1.00000000035108,0.514494115668181
13000.0000000298,231.666829514881,1.00000000036526,0.527478000317038
13100.0000000301,230.05301933087,1.00000000036609,0.533514544100504
13200.0000000305,228.498446777089,1.0000000003546,0.534033096034988
13300.0000000309,226.992438996519,1.0000000003319,0.523870821217808
13400.0000000312,225.516620153004,1.00000000029788,0.496997036325678
13500.0000000316,224.048593739902,1.00000000024358,0.453006187427625
13600.0000000319,222.567494716277,1.00000000019076,0.398078916072104
13700.0000000323,221.061004837256,1.00000000013602,0.34571884861471
13800.0000000327,219.530281246077,1.00000000010649,0.31401975407666
13900.000000033,217.987993597261,1.00000000010736,0.31479608205702
14000.0000000334,216.450610574789,1.00000000013847,0.343887187701743
14100.0000000338,214.92934018967,1.00000000018098,0.393828816123345
14200.0000000341,213.427577499895,1.00000000024971,0.446656652265835
14300.0000000345,211.945074693822,1.00000000027577,0.484036581443538
14400.0000000349,210.482287391297,1.00000000032917,0.500945132665657
14500.0000000352,209.041361747879,1.00000000033368,0.504661254562756
14600.0000000356,207.625514110251,1.00000000034794,0.506722508057331
14700.0000000359,206.238055982674,1.00000000036042,0.514696872633412
14800.0000000363,204.88095038026,1.00000000033747,0.524706877574144
14900.0000000367,203.552741188231,1.0000000003298,0.526576889641569
15000.000000037,202.247488238291,1.00000000028537,0.513456812402134
15100.0000000374,200.95652860401,1.00000000023811,0.483544084442137
15200.0000000378,199.672265754467,1.00000000020289,0.441268520964797
15300.0000000381,198.391736806181,1.00000000016951,0.396980309938553
15400.0000000385,197.118323159354,1.00000000014588,0.359532715968229
15500.0000000389,195.860095672316,1.00000000014002,0.335115268530908
15600.0000000392,194.626395719815,1.00000000013816,0.328093186699946
15700.0000000396,193.424498290413,1.00000000015333,0.342925106377189
15800.0000000399,192.257024191775,1.00000000017077,0.368573934390168
15900.0000000403,191.121092705852,1.00000000020195,0.398642923834725
16000.0000000407,190.008190592118,1.00000000024221,0.43268617053922
16100.000000041,188.90836679363,1.00000000026701,0.468405378054058
16200.0000000414,187.814768654815,1.00000000029099,0.494138548897747
16300.0000000418,186.725784009007,1.00000000026879,0.502379724101761
16400.0000000418,185.642565583572,1.00000000025567,0.493886498420897
16500.0000000404,184.566290746945,1.00000000024781,0.479133544031577
16600.0000000389,183.496011920224,1.0000000002556,0.472993836777036
16700.0000000375,182.429869000431,1.00000000030957,0.482461455455706
16800.000000036,181.366820316154,1.00000000033286,0.502916017050747
16900.0000000346,180.308159112243,1.00000000035383,0.52401263745696
17000.0000000331,179.256840089195,1.00000000034558,0.53401647928855
17100.0000000317,178.215765952195,1.00000000032165,0.529282564673175
17200.0000000302,177.186610130881,1.00000000027823,0.508844377480771
17300.0000000287,176.170644495485,1.00000000021465,0.475698083595149
17400.0000000273,175.171595303181,1.00000000017331,0.433733373866464
17500.0000000258,174.196639347468,1.00000000012632,0.391586236596042
17600.0000000244,173.255769317192,1.00000000010794,0.358532316089555
17700.0000000229,172.357290295265,1.00000000012709,0.339026684587221
17800.0000000215,171.504934016142,1.00000000015845,0.335125675027674
17900.00000002,170.697051710359,1.00000000017826,0.342891676696041
18000.0000000186,169.929777265328,1.00000000020038,0.363248759715839
18100.0000000171,169.196927585187,1.00000000020722,0.389772310662152
18200.0000000156,168.491074416103,1.00000000022135,0.416958019306754
18300.0000000142,167.802620233,1.0000000002577,0.439175452937326
18400.0000000127,167.119601913533,1.00000000028208,0.458235024826641
18500.0000000113,166.432424310432,1.0000000003037,0.475664851426174
18600.0000000098,165.734550626766,1.00000000030447,0.490981786537543
18700.0000000084,165.027041044248,1.00000000028924,0.501937817912053
18800.0000000069,164.314875270754,1.00000000024582,0.502837803335409
18900.0000000055,163.606438674346,1.00000000021463,0.491922700616196
19000.000000004,162.907805516239,1.00000000019155,0.474140305138705
19100.0000000026,162.220936489885,1.00000000019627,0.458963751806184
19200.0000000011,161.541596397395,1.00000000022228,0.451582510618612
19299.9999999996,160.860816896819,1.00000000026364,0.455379674702188
19399.9999999982,160.168995105324,1.00000000030948,0.469100697376837
19499.9999999967,159.459751588929,1.0000000003384,0.48664429358217
19599.9999999953,158.732124215269,1.00000000036485,0.505330711517456
19699.9999999938,157.989976546242,1.000000000352,0.522166599304027
19799.9999999924,157.239499426491,1.00000000035734,0.531801760737669
19899.9999999909,156.48699063295,1.00000000030718,0.531424645727903
19999.9999999895,155.738196324053,1.00000000029326,0.52021416136746
20099.999999988,154.99823010594,1.00000000024033,0.498966006392415
20199.9999999865,154.273330222012,1.00000000021249,0.47003778934399
20299.9999999851,153.571115992175,1.00000000017964,0.43882665423176
20399.9999999836,152.900453965659,1.00000000015391,0.409397884218257
20499.9999999822,152.271717023888,1.00000000012559,0.383669836257779
20599.9999999807,151.694605747182,1.00000000012223,0.361610232613661
20699.9999999793,151.17566399767,1.00000000013228,0.346328874508616
20799.9999999778,150.715235999163,1.00000000014163,0.341235810449957
20899.9999999764,150.307051968697,1.00000000017257,0.34899843305734
20999.9999999749,149.940040465897,1.00000000021523,0.369266695002313
21099.9999999734,149.601619981605,1.00000000024464,0.39407182180482
21199.999999972,149.281487476377,1.00000000023275,0.416777498948601
21299.9999999705,148.972156394682,1.0000000002579,0.435240691283926
21399.9999999691,148.668590035505,1.00000000025265,0.450513718821687
21499.9999999676,148.368266483547,1.00000000025942,0.46233581445893
21599.9999999662,148.067959108395,1.00000000024965,0.470227778592259
21699.9999999647,147.763296601821,1.00000000025259,0.475894618688238
21799.9999999633,147.449644330416,1.00000000026043,0.481367066405409
21899.9999999618,147.121961806765,1.00000000028359,0.488595169373147
21999.9999999603,146.776669253074,1.0000000002768,0.497330562206906
22099.9999999589,146.412422020073,1.00000000028599,0.506348018189343
22199.9999999574,146.030325999367,1.00000000027959,0.514418255392009
22299.999999956,145.634346728953,1.00000000025554,0.518558952038356
22399.9999999545,145.231415641191,1.00000000024871,0.516002407717417
22499.9999999531,144.828944574094,1.00000000021453,0.507505258444311
22599.9999999516,144.432666552217,1.00000000020242,0.49705468680209
22699.9999999502,144.044608834124,1.00000000020092,0.489592142821894
22799.9999999487,143.662475650953,1.00000000020265,0.486202386391954
22899.9999999473,143.281447319211,1.00000000022422,0.483983629539917
22999.9999999458,142.895974802597,1.00000000024317,0.479971995778689
23099.9999999443,142.501896256365,1.00000000026589,0.476477621818465
23199.9999999429,142.096065422498,1.00000000026553,0.476902620124888
23299.9999999414,141.676095429128,1.00000000030221,0.480856238430279
23399.99999994,141.239276557924,1.00000000031855,0.490048894504759
23499.9999999385,140.783717418377,1.00000000032586,0.504127724977186
23599.9999999371,140.309444684094,1.00000000034483,0.519108111064589
23699.9999999356,139.818837390392,1.00000000032093,0.531268838358906
23799.9999999342,139.316301707704,1.000000000335,0.538088779789567
23899.9999999327,138.807395868902,1.00000000031036,0.538382381950413
23999.9999999312,138.298329930017,1.00000000028911,0.529941549400375
24099.9999999298,137.795333724118,1.00000000025424,0.513206354356913
24199.9999999283,137.305429656788,1.00000000022144,0.490950694588244
24299.9999999269,136.83705590211,1.00000000018592,0.465537351772421
24399.9999999254,136.399948139227,1.00000000015523,0.438925561850942
24499.999999924,136.003715544594,1.00000000012949,0.414973549916372
24599.9999999225,135.65631800972,1.00000000013214,0.396756484541723
24699.9999999211,135.36266724153,1.00000000012845,0.382670959694437
24799.9999999196,135.124519628228,1.00000000014533,0.372459390794652
24899.9999999181,134.940929119293,1.00000000016255,0.366654816782412
24999.9999999167,134.809454774544,1.0000000001698,0.364831254632772
25099.9999999152,134.726627348136,1.00000000017388,0.368199664862683
25199.9999999138,134.686849667086,1.00000000019764,0.375330382516882
25299.9999999123,134.680577417279,1.00000000021422,0.387472778538897
25399.9999999109,134.695350472327,1.00000000023157,0.403814812205248
25499.9999999094,134.717499795925,1.00000000025264,0.42193832665465
25599.999999908,134.735296665059,1.00000000028713,0.439163442951808
25699.9999999065,134.741489638873,1.00000000029354,0.453617147447768
25799.9999999051,134.732963403008,1.00000000027931,0.465616750927679
25899.9999999036,134.70997657526,1.00000000027488,0.476754451353691
25999.9999999021,134.675478974779,1.00000000026284,0.486598465630437
26099.9999999007,134.634089559658,1.00000000024967,0.493351172056464
26199.9999998992,134.590789367995,1.00000000023046,0.496664947078582
26299.9999998978,134.549740027266,1.00000000022078,0.497322544920417
26399.9999998963,134.513361937797,1.0000000002046,0.496782068698832
26499.9999998949,134.481197082177,1.00000000021175,0.496765565480468
26599.9999998934,134.450028195234,1.00000000022919,0.497621373617352
26699.999999892,134.413764788969,1.00000000023571,0.49978435708665
26799.9999998905,134.364816651974,1.00000000025577,0.503717607081184
26899.999999889,134.296322761275,1.00000000028025,0.510385760585508
26999.9999998876,134.203804662521,1.0000000002972,0.515444471134703
27099.9999998861,134.085596005521,1.00000000028517,0.516809151393133
27199.9999998847,133.942027437566,1.00000000028565,0.514275969862089
27299.9999998832,133.774447793143,1.00000000028562,0.510317971332005
27399.9999998818,133.584753485533,1.00000000027454,0.50925108402617
27499.9999998803,133.375745941713,1.00000000026986,0.51443720032909
27599.9999998789,133.151378734696,1.00000000026414,0.522129683182866
27699.9999998774,132.916555536584,1.00000000026309,0.524604605752452
27799.9999998759,132.67665378628,1.00000000024034,0.520019263931344
27899.9999998745,132.437243482007,1.000000000227,0.512063707822736
27999.999999873,132.203122489782,1.00000000021159,0.504543860217164
28099.9999998716,131.976999079233,1.00000000020026,0.500287741429341
28199.9999998701,131.759436577605,1.00000000020175,0.499940814175109
28299.9999998687,131.54940803743,1.00000000020082,0.501757050503798
28399.9999998672,131.344773929565,1.00000000020385,0.50425489671458
28499.9999998658,131.142342520713,1.00000000021769,0.506092132642997
28599.9999998643,130.938479144409,1.00000000021835,0.507455652586902
28699.9999998629,130.729560084421,1.0000000002336,0.509615746399017
28799.9999998614,130.512117531574,1.00000000024317,0.512973594363943
28899.9999998599,130.283545630013,1.00000000026216,0.513937426959626
28999.9999998585,130.041782552196,1.00000000026938,0.511347330192623
