Time,AGPnorm,Energy,Entropy
0,0,1,-7.4548311067351e-17
99.9999999999986,0.000329765886909808,1.00000000000102,0.00127865516961423
199.999999999993,0.00215183097449881,1.00000000000036,0.00392095884099659
300,0.00462149196142811,0.999999999999208,0.00730415366556124
400.000000000022,0.00706903556895725,0.999999999999484,0.0115185009530947
500.000000000045,0.0101862894138772,1.00000000000064,0.0166974563201264
600.000000000068,0.0140715165870021,1.00000000000073,0.0227121306449821
700.000000000091,0.0187569070987665,0.999999999999714,0.029231434073034
800.000000000113,0.0237242967806829,0.999999999999244,0.0361956451742192
900.000000000136,0.029090531805881,1.00000000000017,0.0438476110956901
1000.00000000016,0.0349447468335418,1.00000000000074,0.0522343342525444
1100.0000000001,0.0413845210791592,1.00000000000017,0.0612061433192589
1200,0.0482285078364385,0.999999999999461,0.0706617860036691
1299.99999999991,0.0549057146386571,0.999999999999682,0.0807400471193532
1399.99999999982,0.0624863018700416,1.00000000000063,0.0916754094433602
1499.99999999973,0.0696606846469596,1.00000000000032,0.103427667613193
1599.99999999964,0.0777070288108001,1.00000000000004,0.115986983401769
1699.99999999955,0.0851754568006046,0.999999999999543,0.129485170986518
1799.99999999946,0.0932424182202522,1.0000000000008,0.144223344571763
1899.99999999937,0.100706558726655,1.00000000000154,0.160575396205967
1999.99999999928,0.108966938569749,1.00000000000292,0.178477806534703
2099.99999999919,0.118112162939097,1.00000000000656,0.198334537140937
2199.99999999909,0.127107934999167,1.00000000001463,0.219967902742224
2299.999999999,0.136338574435316,1.00000000002808,0.243591003034184
2399.99999999891,0.151105707799905,1.00000000004804,0.268156121176693
2499.99999999882,0.185107905255542,1.00000000007653,0.292974134330693
2599.99999999873,0.242843053564229,1.00000000011402,0.317121079595665
2699.99999999864,0.335772988211958,1.00000000014283,0.340392794995677
2799.99999999855,0.496638199523372,1.00000000018382,0.362273361973507
2899.99999999846,0.777293864841696,1.00000000022567,0.382226593688295
2999.99999999837,1.21228045085414,1.0000000002749,0.400518383842972
3099.99999999828,1.82706909903354,1.00000000029003,0.417123159988473
3199.99999999819,2.67260028590577,1.00000000033027,0.432386475696716
3299.99999999809,3.81867095304705,1.00000000037176,0.445782911032061
3399.999999998,5.31123057944039,1.00000000036966,0.458048151327627
3499.99999999791,7.16826255155719,1.00000000040728,0.468933846626575
3599.99999999782,9.41421160088622,1.00000000041747,0.478980927549046
3699.99999999773,12.0952138474257,1.00000000044705,0.487611961476482
3799.99999999764,15.2358284639591,1.00000000045968,0.495192479839351
3899.99999999755,18.8351919320894,1.00000000045801,0.502083652613671
3999.99999999746,22.8751612394123,1.00000000046036,0.508466555079725
4099.99999999738,27.3623074697101,1.00000000050479,0.513364598815688
4199.99999999775,32.2930037800163,1.00000000050602,0.517655336276299
4299.99999999811,37.6391051402055,1.00000000050252,0.52197960727576
4399.99999999848,43.3647425824769,1.00000000051017,0.525232060910141
4499.99999999884,49.4413409717435,1.00000000048413,0.527787670414113
4599.9999999992,55.8443037451075,1.00000000048673,0.530133373438109
4699.99999999957,62.5300834537649,1.00000000048764,0.531997203853098
4799.99999999993,69.4635184239476,1.00000000051387,0.533130602491987
4900.00000000029,76.5980661687228,1.00000000046282,0.534678966603335
5000.00000000066,83.8990546514771,1.00000000047156,0.534986448490954
5100.00000000102,91.3249680396473,1.00000000046764,0.535737778184424
5200.00000000139,98.8355762522456,1.00000000047558,0.536045888188335
5300.00000000175,106.394678127681,1.00000000046216,0.535660989546864
5400.00000000211,113.963258633287,1.00000000045092,0.535654089596093
5500.00000000248,121.508725630997,1.00000000043076,0.535688833224758
5600.00000000284,128.994847099893,1.00000000043477,0.534247876546906
5700.00000000321,136.39587142085,1.00000000043437,0.533539780952681
5800.00000000357,143.681197717975,1.00000000042165,0.533595626985925
5900.00000000393,150.823722633106,1.00000000041133,0.532049350673935
6000.0000000043,157.795815321342,1.00000000041789,0.53027371665736
6100.00000000466,164.57517005148,1.000000000424,0.529492653605817
6200.00000000502,171.148669892402,1.00000000040401,0.52911926505023
6300.00000000539,177.494898378968,1.00000000041145,0.527061264540346
6400.00000000575,183.596912987866,1.00000000039102,0.52518896828624
6500.00000000612,189.439849573132,1.00000000038252,0.524159296424118
6600.00000000648,195.018941186703,1.00000000037508,0.523643677436678
6700.00000000684,200.324206984181,1.00000000038229,0.521980554358458
6800.00000000721,205.345552232756,1.00000000035975,0.519721707232078
6900.00000000757,210.078201859353,1.00000000033997,0.518746341242961
7000.00000000793,214.520662946265,1.00000000035907,0.518167392824413
7100.0000000083,218.674564752496,1.00000000033864,0.517553493686284
7200.00000000866,222.536582382667,1.00000000032455,0.51444822067235
7300.00000000903,226.103859599766,1.00000000032139,0.511105533187737
7400.00000000939,229.376126126477,1.00000000031059,0.511417854547036
7500.00000000975,232.367455782334,1.00000000030359,0.514647804361999
7600.00000001012,235.089545495612,1.00000000031548,0.515840850184825
7700.00000001048,237.539081244248,1.00000000030747,0.510784371882602
7800.00000001084,239.709932417792,1.00000000029745,0.502094563137855
7900.00000001121,241.596713828873,1.00000000026876,0.498776745757084
8000.00000001157,243.217137280746,1.00000000027169,0.505995259280529
8100.00000001194,244.603231649099,1.00000000031015,0.517205837341797
8200.0000000123,245.782326192463,1.00000000031155,0.520999607451146
8300.00000001266,246.75537340646,1.00000000028559,0.510624251899694
8400.00000001303,247.496856072437,1.00000000025719,0.491332516458811
8500.00000001339,247.982416512824,1.00000000023561,0.479553530183231
8600.00000001376,248.221759710686,1.00000000023158,0.490689027493064
8700.00000001412,248.271689013896,1.00000000025981,0.515124626616719
8800.00000001448,248.198980873676,1.00000000031572,0.532445937959986
8900.00000001485,248.038274689198,1.00000000031842,0.531127720890173
9000.00000001521,247.768560441049,1.00000000028407,0.507978753714249
9100.00000001557,247.329421623732,1.00000000021157,0.471559781864392
9200.00000001594,246.672735815372,1.00000000017143,0.450764071121037
9300.0000000163,245.811886250882,1.00000000019648,0.468511601116484
9400.00000001667,244.822879097111,1.00000000026321,0.506010261150567
9500.00000001703,243.791475488951,1.00000000032983,0.53581839663103
9600.00000001739,242.771489882456,1.000000000369,0.546634505523362
9700.00000001776,241.762440995008,1.00000000035671,0.533456637499481
9800.00000001812,240.712903807312,1.00000000028013,0.494596692745491
9900.00000001848,239.54784698156,1.00000000018509,0.441129541199536
10000.0000000188,238.217078796544,1.00000000012612,0.408557929514638
10100.0000000192,236.735943541665,1.00000000015584,0.429855254603964
10200.0000000196,235.170897346312,1.00000000024382,0.481923174775057
10300.0000000199,233.601397095237,1.00000000033131,0.524397603743694
10400.0000000203,232.083371237694,1.00000000039148,0.546461201928532
10500.0000000207,230.638005003274,1.00000000039559,0.550827534371989
10600.000000021,229.248527138027,1.00000000035865,0.532488578783209
10700.0000000214,227.863980029502,1.00000000029145,0.486009553835158
10800.0000000218,226.420382795756,1.00000000019333,0.420121053029188
10900.0000000221,224.871427353654,1.00000000011727,0.366252748691508
11000.0000000225,223.217694069458,1.0000000001146,0.366209252494369
11100.0000000229,221.499146587332,1.00000000019992,0.419229362664363
11200.0000000232,219.769738101054,1.00000000028727,0.480912391643414
11300.0000000236,218.07405111435,1.00000000036256,0.521983104702157
11400.0000000239,216.440632049279,1.00000000042124,0.541280757520697
11500.0000000243,214.882196127614,1.00000000043199,0.547062347293221
11600.0000000247,213.393009136641,1.00000000039014,0.539607114243551
11700.000000025,211.948155296145,1.00000000035168,0.511568324346427
11800.0000000254,210.508072338024,1.00000000026561,0.458314799803054
11900.0000000258,209.033184212279,1.00000000018251,0.389373454215585
12000.0000000261,207.501097277652,1.00000000012161,0.335082259659045
12100.0000000265,205.917073749928,1.00000000009968,0.325762303826138
12200.0000000269,204.306832840216,1.00000000016028,0.364802630187441
12300.0000000272,202.69690534137,1.00000000023628,0.427618074155928
12400.0000000276,201.105725555982,1.00000000032967,0.482089917363543
12500.0000000279,199.546515878995,1.00000000039987,0.513191313092298
12600.0000000283,198.030290979737,1.00000000042304,0.526494833184854
12700.0000000287,196.56380545061,1.00000000039816,0.53252797908183
12800.000000029,195.147212436988,1.00000000038474,0.533851184653756
12900.0000000294,193.77247349259,1.00000000036123,0.524545222622055
13000.0000000298,192.424008362425,1.00000000031576,0.497828093308093
13100.0000000301,191.083344406835,1.00000000026819,0.454178606350849
13200.0000000305,189.735088950723,1.0000000002174,0.401291969116882
13300.0000000309,188.373534481444,1.00000000016104,0.352960121342988
13400.0000000312,187.003777355486,1.00000000013165,0.326854878761225
13500.0000000316,185.638033472874,1.00000000014843,0.333983712885548
13600.0000000319,184.288396651481,1.00000000017708,0.365025408716625
13700.0000000323,182.95986293651,1.00000000023353,0.413083881924257
13800.0000000327,181.650621743454,1.00000000028892,0.462951899593916
13900.000000033,180.357573738074,1.00000000032423,0.495062308252364
14000.0000000334,179.079719809794,1.00000000034169,0.505115677839895
14100.0000000338,177.8179814848,1.00000000036317,0.503236650231188
14200.0000000341,176.574376485038,1.00000000037302,0.504957616909554
14300.0000000345,175.351617655238,1.00000000036993,0.516971854662727
14400.0000000349,174.151629395872,1.00000000036576,0.529045002836819
14500.0000000352,172.97341355461,1.00000000035032,0.527752687645511
14600.0000000356,171.812578361407,1.00000000031122,0.506552246685169
14700.0000000359,170.663791423131,1.00000000024174,0.468553058300794
14800.0000000363,169.524418588166,1.00000000020275,0.423035629636137
14900.0000000367,168.3975252431,1.00000000017057,0.382894479989359
15000.000000037,167.290809934792,1.00000000016387,0.355381471500429
15100.0000000374,166.212426998492,1.00000000017242,0.344646794698294
15200.0000000378,165.168021209961,1.00000000018634,0.354566796418617
15300.0000000381,164.159078765892,1.0000000001987,0.380314960114449
15400.0000000385,163.181823267956,1.00000000024156,0.407899230969329
15500.0000000389,162.227554087106,1.00000000025923,0.435806139680047
15600.0000000392,161.285499245653,1.00000000030656,0.466640808194572
15700.0000000396,160.348415928079,1.00000000031151,0.49376795534469
15800.0000000399,159.414862328455,1.00000000028706,0.503929859294867
15900.0000000403,158.487223182881,1.00000000027574,0.495447920373927
16000.0000000407,157.567550798114,1.00000000026834,0.47875475015396
16100.000000041,156.653619389613,1.00000000029856,0.471089591528716
16200.0000000414,155.740983808766,1.0000000003557,0.481532073728211
16300.0000000418,154.826373765958,1.00000000038912,0.502814863936705
16400.0000000418,153.909954463025,1.00000000039957,0.524852436593318
16500.0000000404,152.995159603315,1.00000000040459,0.535144071729583
16600.0000000389,152.086383256172,1.00000000037579,0.53033247750384
16700.0000000375,151.187603879171,1.00000000030975,0.509528704463401
16800.000000036,150.302803753831,1.00000000026472,0.474598147086806
16900.0000000346,149.438597241783,1.00000000018336,0.432268927250588
17000.0000000331,148.60476132254,1.00000000014468,0.392217174068992
17100.0000000317,147.811879567109,1.00000000013964,0.362887661835366
17200.0000000302,147.065803552661,1.00000000015415,0.349215982002241
17300.0000000287,146.365743492525,1.00000000018107,0.3519713281505
17400.0000000273,145.705794506227,1.00000000022081,0.365392735204212
17500.0000000258,145.079140401261,1.00000000026608,0.388927141309223
17600.0000000244,144.478490562828,1.00000000027334,0.4150950111545
17700.0000000229,143.894967268578,1.00000000029694,0.440136205392788
17800.0000000215,143.319423611566,1.00000000029551,0.458722327920164
17900.00000002,142.742050009344,1.000000000323,0.473940645446215
18000.0000000186,142.157237288777,1.0000000003334,0.487821189366149
18100.0000000171,141.562961192477,1.00000000031938,0.49862231480153
18200.0000000156,140.963154191234,1.00000000029128,0.503962928758608
18300.0000000142,140.364764631218,1.00000000025911,0.499275579220211
18400.0000000127,139.775149090594,1.00000000022879,0.487226947025555
18500.0000000113,139.197849858079,1.00000000022784,0.473129839106813
18600.0000000098,138.630034988776,1.00000000023541,0.464614851643111
18700.0000000084,138.06283395487,1.0000000002902,0.46296006867635
18800.0000000069,137.48571058426,1.00000000033496,0.470802585183077
18900.0000000055,136.891073576414,1.00000000038225,0.484427018265953
19000.000000004,136.27677498161,1.00000000041015,0.500516143401271
19100.0000000026,135.645343229887,1.00000000039503,0.517050118548628
19200.0000000011,135.002207938368,1.00000000037752,0.529693186062154
19299.9999999996,134.353974447005,1.00000000034909,0.533220568920297
19399.9999999982,133.707611029672,1.00000000033294,0.525004943080553
19499.9999999967,133.069976795896,1.00000000026993,0.505211089415546
19599.9999999953,132.448370993919,1.00000000023787,0.47633415299932
19699.9999999938,131.85146389206,1.00000000020712,0.444142391943226
19799.9999999924,131.288436048717,1.00000000017589,0.416701389412622
19899.9999999909,130.768527070442,1.0000000001677,0.395060574937046
19999.9999999895,130.299251021939,1.00000000015877,0.376905438960509
20099.999999988,129.884814395629,1.00000000015439,0.365019289748327
20199.9999999865,129.524458529178,1.00000000019285,0.361483107883156
20299.9999999851,129.210526174024,1.00000000022218,0.369975985864044
20399.9999999836,128.929989127631,1.00000000025939,0.391396685413057
20499.9999999822,128.668320482209,1.00000000027925,0.415938674743138
20599.9999999807,128.415579701754,1.00000000030533,0.437933396480006
20699.9999999793,128.166791323998,1.00000000029469,0.453682720753107
20799.9999999778,127.920741545803,1.00000000030462,0.464573612741149
20899.9999999764,127.677802109501,1.00000000027896,0.471576782423918
20999.9999999749,127.43746772585,1.00000000025859,0.47535778744834
21099.9999999734,127.197316583986,1.00000000026649,0.47899688500373
21199.999999972,126.952574006695,1.00000000029555,0.485545584416772
21299.9999999705,126.696865278575,1.00000000030416,0.494826354059229
21399.9999999691,126.423711347786,1.00000000031923,0.504619624871325
21499.9999999676,126.12988114868,1.00000000031371,0.514644694081605
21599.9999999662,125.81655244839,1.00000000032449,0.523092321766402
21699.9999999647,125.488817896681,1.00000000032318,0.526233498641972
21799.9999999633,125.154048185701,1.00000000028618,0.521822794018058
21899.9999999618,124.819374215508,1.00000000023567,0.513374810799788
21999.9999999603,124.489279700792,1.00000000023368,0.504929001492626
22099.9999999589,124.165214223138,1.00000000023572,0.498640033398023
22199.9999999574,123.844790443443,1.00000000024842,0.49426222385761
22299.999999956,123.524117100892,1.00000000025486,0.488949560197077
22399.9999999545,123.199420448532,1.00000000026651,0.48282007981212
22499.9999999531,122.86726414535,1.00000000029995,0.479788932399514
22599.9999999516,122.524490533215,1.00000000032781,0.482359958678905
22699.9999999502,122.166870886361,1.00000000032872,0.490371041658743
22799.9999999487,121.790828221916,1.00000000036325,0.503857798859625
22899.9999999473,121.394536518453,1.00000000038632,0.519200185971063
22999.9999999458,120.979969240133,1.00000000039059,0.532225422655933
23099.9999999443,120.552088131402,1.00000000038471,0.539564406750369
23199.9999999429,120.117176326028,1.00000000035348,0.539304369509603
23299.9999999414,119.681835539527,1.00000000032906,0.531140894640279
23399.99999994,119.253079180724,1.00000000028894,0.514532743010064
23499.9999999385,118.838857600552,1.0000000002433,0.492062470499018
23599.9999999371,118.44803541896,1.00000000019777,0.467888129522386
23699.9999999356,118.09015222011,1.00000000017521,0.442965971954329
23799.9999999342,117.774392235959,1.00000000016756,0.421105230778765
23899.9999999327,117.507758648284,1.00000000015477,0.405317898837033
23999.9999999312,117.29333481495,1.00000000015921,0.393020862904619
24099.9999999298,117.13042729988,1.00000000018738,0.384480125985638
24199.9999999283,117.015028562626,1.00000000020678,0.381996692642818
24299.9999999269,116.942655178984,1.00000000020944,0.383759917901581
24399.9999999254,116.907964949623,1.00000000024023,0.38880585721189
24499.999999924,116.903665113772,1.00000000025264,0.396461801333329
24599.9999999225,116.920350500251,1.00000000026192,0.408329547118177
24699.9999999211,116.947582480294,1.00000000027972,0.423235327023787
24799.9999999196,116.975251223993,1.00000000030771,0.440410398077491
24899.9999999181,116.995604318867,1.00000000029869,0.455883300466518
24999.9999999167,117.004577027883,1.00000000032221,0.467134364574432
25099.9999999152,117.001398331991,1.00000000031528,0.476700938706684
25199.9999999138,116.987935278265,1.00000000030065,0.486276279806654
25299.9999999123,116.967479378467,1.00000000028294,0.495377274406607
25399.9999999109,116.94403568704,1.00000000027109,0.502060927398117
25499.9999999094,116.921516797113,1.00000000025892,0.504799692787075
25599.999999908,116.902422203649,1.00000000024846,0.505100871936091
25699.9999999065,116.887576767614,1.00000000023698,0.505926143282979
25799.9999999051,116.874680455151,1.00000000025104,0.506995817903242
25899.9999999036,116.858703271483,1.0000000002619,0.508900724432482
25999.9999999021,116.832988243439,1.00000000029867,0.512441536658785
26099.9999999007,116.790854856102,1.00000000030348,0.516704757482779
26199.9999998992,116.727804180444,1.00000000032646,0.520838602772878
26299.9999998978,116.642277888376,1.0000000003257,0.52166951629461
26399.9999998963,116.534727718281,1.00000000032362,0.518686943353766
26499.9999998949,116.406088502827,1.00000000030968,0.513638742827344
26599.9999998934,116.257130430927,1.00000000030499,0.509819878093805
26699.999999892,116.088796977494,1.00000000030829,0.513689992364141
26799.9999998905,115.903800637458,1.00000000030829,0.523934403992292
26899.999999889,115.706582557314,1.00000000030368,0.52948982931911
26999.9999998876,115.502568565902,1.00000000028471,0.526913922184921
27099.9999998861,115.297682312881,1.0000000002699,0.519770858807285
27199.9999998847,115.09658704559,1.00000000024613,0.512609465951787
27299.9999998832,114.901959024187,1.00000000023509,0.509065638240356
27399.9999998818,114.714508773387,1.00000000023615,0.509224714604589
27499.9999998803,114.533853660708,1.00000000023678,0.511190270010646
27599.9999998789,114.358235619402,1.00000000023847,0.513532371025786
27699.9999998774,114.184413667438,1.00000000025167,0.515434878334559
27799.9999998759,114.008881628396,1.00000000026518,0.516856808388958
27899.9999998745,113.828272601244,1.00000000028068,0.518241360966106
27999.999999873,113.639953665278,1.00000000028217,0.519964292002
28099.9999998716,113.44207628552,1.00000000030331,0.518580404987653
28199.9999998701,113.233170311804,1.00000000030547,0.514762563124629
28299.9999998687,113.01210694336,1.00000000031611,0.511219582092353
28399.9999998672,112.777741424499,1.00000000033889,0.509999731532526
28499.9999998658,112.528858050504,1.00000000036162,0.511635764392062
28599.9999998643,112.264514010349,1.0000000003755,0.517827316450628
28699.9999998629,111.985102696677,1.00000000039372,0.525941083787257
28799.9999998614,111.6926394206,1.00000000039288,0.53298989061633
28899.9999998599,111.390483070663,1.00000000037015,0.53767184988388
