Time,AGPnorm,Energy,Entropy
0,0,1,2.6695220865122e-19
99.9999999999986,0.00373088527413073,1.00000000000167,0.0122953411454214
199.999999999993,0.0108986965002076,0.999999999999856,0.0354120069567269
300,0.0225742694171652,1.0000000000019,0.0692648919849191
400.000000000022,0.0353350149994191,1.00000000000062,0.111715336582864
500.000000000045,0.049360361764187,1.00000000000626,0.16715983743086
600.000000000068,0.0667100326477348,1.00000000005516,0.240850761886687
700.000000000091,0.0898857049920801,1.00000000026435,0.331410791206947
800.000000000113,0.25608549050392,1.00000000071186,0.416432878471678
900.000000000136,0.751060591815908,1.00000000112286,0.479682381690184
1000.00000000016,1.92237174109119,1.00000000124873,0.520918700859989
1100.0000000001,3.8938420037453,1.00000000147037,0.544945583005852
1200,6.6858463270337,1.00000000151437,0.557232473601103
1299.99999999991,10.1459273936536,1.00000000153772,0.562471950500513
1399.99999999982,14.020721669548,1.00000000160284,0.561294744576972
1499.99999999973,18.0642677566348,1.00000000143292,0.557029319704083
1599.99999999964,22.025179542519,1.00000000146323,0.54909605567536
1699.99999999955,25.7224026272481,1.00000000122347,0.544621406217114
1799.99999999946,29.019211670327,1.00000000128415,0.534693376941239
1899.99999999937,31.820835566315,1.00000000112535,0.531979941704141
1999.99999999928,34.0871430454972,1.00000000102421,0.513542692866554
2099.99999999919,35.8077412633243,1.00000000108429,0.528733077924008
2199.99999999909,37.0248782399642,1.00000000091828,0.497086950570981
2299.999999999,37.7078802823349,1.00000000091901,0.509621472750017
2399.99999999891,38.0766438958201,1.00000000105062,0.535562145819988
2499.99999999882,38.0605210588778,1.00000000058838,0.442848850703729
2599.99999999873,37.6789636522553,1.00000000091049,0.515718217604244
2699.99999999864,37.2639958090707,1.00000000114497,0.561062312746745
2799.99999999855,36.7133647587355,1.00000000057816,0.418302398686791
2899.99999999846,35.8866203380686,1.00000000059463,0.420614089142096
2999.99999999837,35.0399367107408,1.00000000119996,0.556579431831522
3099.99999999828,34.3268846584258,1.00000000120306,0.554867144451632
3199.99999999819,33.5898373564775,1.00000000057612,0.389054472814221
3299.99999999809,32.712349014601,1.00000000043146,0.332743950180706
3399.999999998,31.8121369967562,1.00000000108547,0.490193459057629
3499.99999999791,30.984726262721,1.00000000125853,0.549135722866182
3599.99999999782,30.2709386136619,1.00000000127655,0.55623184652207
3699.99999999773,29.5829489822465,1.00000000068226,0.433037367339138
3799.99999999764,28.8634849213273,1.00000000039406,0.299528121390581
3899.99999999755,28.1691202163422,1.00000000063389,0.368693480652746
3999.99999999746,27.4943160305655,1.00000000098281,0.502913413742189
4099.99999999738,26.832487298601,1.0000000011057,0.513784896351381
4199.99999999775,26.2005464482295,1.00000000119564,0.517461835873808
4299.99999999811,25.6131448844666,1.00000000122884,0.570141783444556
4399.99999999848,25.0609446953602,1.00000000086967,0.497394566157885
4499.99999999884,24.5353849200972,1.00000000039094,0.345343307583803
4599.9999999992,24.0977778139881,1.00000000047813,0.300392847663285
4699.99999999957,23.7519690537291,1.00000000072575,0.391677320679089
4799.99999999993,23.4133870277318,1.00000000104104,0.489957731527605
4900.00000000029,23.0282937915591,1.00000000115076,0.545004453110357
5000.00000000066,22.6328573457995,1.00000000078473,0.512881049547735
5100.00000000102,22.257565033259,1.0000000007458,0.466633510190427
5200.00000000139,21.8705274177917,1.00000000117829,0.500539245887668
5300.00000000175,21.4655993705043,1.00000000136804,0.552055125031078
5400.00000000211,21.0720438504535,1.00000000117149,0.570503363067387
5500.00000000248,20.6981321897022,1.00000000075262,0.50220651213194
5600.00000000284,20.3712236327432,1.00000000044651,0.379189432399305
5700.00000000321,20.1635538429494,1.00000000036825,0.308294077948155
5800.00000000357,20.1105561633717,1.00000000054739,0.32338756029562
5900.00000000393,20.1379617329131,1.00000000089257,0.413072469123872
6000.0000000043,20.1423557466825,1.00000000099278,0.49784437818307
6100.00000000466,20.0927779779978,1.00000000095251,0.524433792099534
6200.00000000502,19.9947560395976,1.00000000088932,0.518240887443751
6300.00000000539,19.8460345674046,1.00000000101719,0.539582334072262
6400.00000000575,19.6580787004841,1.00000000099815,0.54229712323592
6500.00000000612,19.4672055336334,1.00000000078929,0.517367038541461
6600.00000000648,19.2917344093665,1.00000000075883,0.506031788869269
6700.00000000684,19.1188586012643,1.00000000085684,0.519791173018471
6800.00000000721,18.9333178461416,1.00000000088936,0.517708566221026
6900.00000000757,18.7253730405975,1.00000000105872,0.525565417409291
7000.00000000793,18.4908330826321,1.00000000123397,0.536148518447464
7100.0000000083,18.2404340200188,1.00000000134019,0.565528733289683
7200.00000000866,17.9920175877902,1.00000000113169,0.576560612489357
7300.00000000903,17.750649745735,1.00000000087519,0.535383566428485
7400.00000000939,17.5329559087745,1.00000000053794,0.452991715430433
7500.00000000975,17.3930046928215,1.00000000039583,0.366052868031541
7600.00000001012,17.3964701382676,1.00000000038427,0.325479819742112
7700.00000001048,17.5752448497221,1.00000000046131,0.325073849114897
7800.00000001084,17.8825246899267,1.00000000075254,0.377473701046071
7900.00000001121,18.224888282257,1.00000000090417,0.442948230223409
8000.00000001157,18.5246002567234,1.00000000111292,0.495598128137283
8100.00000001194,18.7480615928124,1.00000000107594,0.532287453474605
8200.0000000123,18.9112994302502,1.00000000092473,0.537415399449572
8300.00000001266,19.0237066349792,1.00000000094731,0.55289935561713
8400.00000001303,19.0797213623923,1.00000000099523,0.575028895227294
8500.00000001339,19.0851753204791,1.00000000091653,0.567673846897985
8600.00000001376,19.0605404496414,1.0000000008914,0.551935361316486
8700.00000001412,19.0101708501151,1.00000000093441,0.547419857361396
8800.00000001448,18.9368354843915,1.00000000098878,0.547361008881674
8900.00000001485,18.8391115640556,1.00000000095748,0.546928700089214
9000.00000001521,18.7388626582853,1.0000000008168,0.538309167087087
9100.00000001557,18.6563825102092,1.00000000071253,0.524759920290826
9200.00000001594,18.5840557965894,1.00000000084651,0.524784421819014
9300.0000000163,18.5050101842398,1.00000000091415,0.531461561292376
9400.00000001667,18.4214304055395,1.00000000085915,0.538771018584248
9500.00000001703,18.3385214382278,1.00000000091299,0.53851179707759
9600.00000001739,18.2525903550134,1.00000000089972,0.544663373498589
9700.00000001776,18.1545023569886,1.00000000097187,0.551941068239898
9800.00000001812,18.041707023454,1.00000000091561,0.56460951150484
9900.00000001848,17.922675986461,1.00000000087731,0.575656234800322
10000.0000000188,17.8034274285852,1.00000000072442,0.566934136834254
10100.0000000192,17.6849488574669,1.00000000082927,0.567468387759958
10200.0000000196,17.557736153273,1.0000000009107,0.575381956183394
10300.0000000199,17.4179635499446,1.00000000094991,0.57419513061721
10400.0000000203,17.2680326259024,1.00000000113757,0.584648151332546
10500.0000000207,17.1140845428341,1.0000000012048,0.590339870151489
10600.000000021,16.9652051444301,1.00000000132292,0.593222873070774
10700.0000000214,16.8278052832575,1.0000000012639,0.596387359458431
10800.0000000218,16.6994182979928,1.00000000118937,0.592979218243553
10900.0000000221,16.5683667423968,1.00000000099101,0.570710263888681
11000.0000000225,16.4263597008516,1.00000000073557,0.525170066522539
11100.0000000229,16.2846808193132,1.00000000055711,0.46791750924165
11200.0000000232,16.1784023232687,1.00000000040307,0.406655241957716
11300.0000000236,16.1565821006969,1.00000000038814,0.361321169832758
11400.0000000239,16.2667617543258,1.0000000003373,0.333508098234043
11500.0000000243,16.5395403376103,1.00000000044389,0.339881034947399
11600.0000000247,16.960961454745,1.00000000062247,0.356591303942353
11700.000000025,17.4969667741237,1.00000000072041,0.3858776113187
11800.0000000254,18.0714199303553,1.00000000103856,0.428213486496599
11900.0000000258,18.6320139061665,1.00000000094475,0.461938402473258
12000.0000000261,19.1473139561566,1.00000000108689,0.493456609583337
12100.0000000265,19.5945838872295,1.00000000112375,0.52199511763584
12200.0000000269,19.9785655792452,1.00000000095281,0.537666665664909
12300.0000000272,20.3113200786899,1.00000000107592,0.540165748647687
12400.0000000276,20.5892433394415,1.0000000009639,0.560874298443872
12500.0000000279,20.8145090237119,1.0000000009996,0.578835089410047
12600.0000000283,20.9956726719007,1.00000000091914,0.576598046983855
12700.0000000287,21.1341773181188,1.00000000101644,0.578361304727442
12800.000000029,21.235437524938,1.0000000009614,0.582206839878585
12900.0000000294,21.3049722222691,1.00000000102544,0.593242728598275
13000.0000000298,21.3387082070418,1.00000000101205,0.599478338430278
13100.0000000301,21.3456387172475,1.00000000093334,0.580054136066109
13200.0000000305,21.3399907787051,1.00000000087778,0.565855764651414
13300.0000000309,21.3150461641532,1.00000000099373,0.560087638478935
13400.0000000312,21.2776484202437,1.00000000088942,0.558459599648517
13500.0000000316,21.2379701517781,1.00000000087287,0.559901710837416
13600.0000000319,21.18736191538,1.00000000095535,0.568640609156147
13700.0000000323,21.1234518223057,1.0000000009238,0.571210691116443
13800.0000000327,21.0496048856396,1.00000000099968,0.582426750374775
13900.000000033,20.967664583668,1.00000000100967,0.572032638227761
14000.0000000334,20.8784754608161,1.00000000097028,0.576108776986267
14100.0000000338,20.7833586978877,1.00000000091189,0.581287856691291
14200.0000000341,20.6856444162676,1.00000000090832,0.576912122158986
14300.0000000345,20.5909824426496,1.00000000076529,0.55976086623643
14400.0000000349,20.5040508122765,1.00000000076186,0.543675817710606
14500.0000000352,20.4208413610203,1.00000000097513,0.547268424677608
14600.0000000356,20.3347258427981,1.00000000102414,0.55439810246334
14700.0000000359,20.2477715520029,1.00000000095784,0.560999422395315
14800.0000000363,20.1568375060117,1.0000000010086,0.564680493584308
14900.0000000367,20.0617499582709,1.0000000008853,0.56594044891235
15000.000000037,19.9714948350379,1.00000000084934,0.566579373131046
15100.0000000374,19.8932235567752,1.00000000080776,0.561581988754365
15200.0000000378,19.8253289340087,1.00000000087977,0.550006956808156
15300.0000000381,19.7620435859832,1.00000000096268,0.555289098261321
15400.0000000385,19.7064510340162,1.00000000079427,0.548212072422383
15500.0000000389,19.6608679551811,1.00000000085727,0.532295129441395
15600.0000000392,19.6152797506914,1.00000000096447,0.528399330980482
15700.0000000396,19.5670142210885,1.00000000097334,0.53484016109263
15800.0000000399,19.5241651210938,1.00000000080042,0.541528366114558
15900.0000000403,19.4878995008836,1.00000000089976,0.557751366194398
16000.0000000407,19.4502029701993,1.00000000093311,0.579864256957575
16100.000000041,19.4086550082521,1.00000000092504,0.587821741316032
16200.0000000414,19.361854799311,1.00000000097611,0.582965353520566
16300.0000000418,19.3074579326058,1.00000000107117,0.566879353889537
16400.0000000418,19.2495151918434,1.00000000086725,0.563562999245151
16500.0000000404,19.1974822897476,1.00000000079435,0.566293890746148
16600.0000000389,19.1486343611644,1.00000000095531,0.582569556270995
16700.0000000375,19.0948826493121,1.00000000098737,0.589417551122037
16800.000000036,19.0387925153583,1.00000000086089,0.595120054931298
16900.0000000346,18.982938679977,1.00000000098173,0.597379107648494
17000.0000000331,18.9201127426183,1.00000000100189,0.606144026280877
17100.0000000317,18.8510880725901,1.00000000091718,0.603203219104578
17200.0000000302,18.7807200164162,1.0000000009532,0.59855867751465
17300.0000000287,18.706561356208,1.00000000093592,0.603772013800731
17400.0000000273,18.6288721725801,1.00000000096553,0.609996400227318
17500.0000000258,18.5536322092833,1.00000000083383,0.59981263791131
17600.0000000244,18.4833555269473,1.00000000087872,0.593534451301463
17700.0000000229,18.4117915781283,1.0000000009556,0.594252813970125
17800.0000000215,18.3376384639244,1.00000000099454,0.583374797788407
17900.00000002,18.2633553237824,1.00000000086814,0.591984821743364
18000.0000000186,18.1911374550421,1.00000000089571,0.604451272805305
18100.0000000171,18.118980395205,1.00000000095326,0.606087636125096
18200.0000000156,18.0455746214993,1.00000000096045,0.597301048371927
18300.0000000142,17.9744440077082,1.00000000089424,0.595748769193395
18400.0000000127,17.9048279871255,1.00000000095336,0.596272068726733
18500.0000000113,17.8318954579562,1.00000000099012,0.589294205878413
18600.0000000098,17.7560354494485,1.00000000095142,0.594147484834331
18700.0000000084,17.6789927091629,1.00000000094723,0.59300976801416
18800.0000000069,17.6004758609803,1.00000000094002,0.598164576093611
18900.0000000055,17.5197268044608,1.00000000100986,0.602038534356081
19000.000000004,17.4365360217355,1.00000000100537,0.618058066802292
19100.0000000026,17.3504280985349,1.00000000101996,0.620543657239055
19200.0000000011,17.2639876772699,1.00000000094745,0.615443718123444
19299.9999999996,17.1792867594145,1.00000000080176,0.599428878843504
19399.9999999982,17.0953975883103,1.00000000101904,0.619089430484389
19499.9999999967,17.0094065360388,1.00000000107411,0.623791274764834
19599.9999999953,16.9232680248567,1.00000000097274,0.620771749678645
19699.9999999938,16.8382336300591,1.00000000086679,0.596981960170704
19799.9999999924,16.7537405296812,1.00000000086115,0.594465681140358
19899.9999999909,16.6699740187898,1.00000000089756,0.609782465498979
19999.9999999895,16.5871935168273,1.00000000087436,0.616795762116905
20099.999999988,16.5052911949856,1.0000000007831,0.605455985583371
20199.9999999865,16.4245506607077,1.00000000085046,0.602090191999173
20299.9999999851,16.3458992731218,1.00000000091321,0.61241499369674
20399.9999999836,16.2702441141368,1.00000000102202,0.616577528570924
20499.9999999822,16.1998608512313,1.00000000098711,0.602954579125517
20599.9999999807,16.1371523491115,1.00000000105541,0.616571421274967
20699.9999999793,16.0849425232436,1.00000000108278,0.622895122487287
20799.9999999778,16.0500903150182,1.00000000114934,0.623397822442646
20899.9999999764,16.0319327836366,1.00000000125169,0.633268986483928
20999.9999999749,16.042920552188,1.00000000127281,0.63536987120654
21099.9999999734,16.0758497786492,1.00000000123423,0.634241275810386
21199.999999972,16.1498466089561,1.00000000131152,0.637935151859895
21299.9999999705,16.2453681981116,1.00000000123547,0.625729184793874
21399.9999999691,16.3824199213959,1.00000000134725,0.615345014249668
21499.9999999676,16.5336877027895,1.00000000132667,0.605590840865831
21599.9999999662,16.7099351600609,1.00000000125928,0.595054330949921
21699.9999999647,16.8759334601552,1.00000000115809,0.585566076473155
21799.9999999633,17.0255019225868,1.00000000100695,0.578191857703605
21899.9999999618,17.1357099143532,1.0000000009074,0.557405900495339
21999.9999999603,17.198870891171,1.00000000078499,0.530023475170778
22099.9999999589,17.2126055832712,1.00000000068944,0.501121909623255
22199.9999999574,17.1840907438284,1.00000000059516,0.470670360776464
22299.999999956,17.1255773202763,1.00000000051966,0.439974593736256
22399.9999999545,17.0632603277341,1.00000000047361,0.412612150500076
22499.9999999531,17.0172495559343,1.00000000042166,0.388148042247892
22599.9999999516,17.02298043516,1.0000000003919,0.366287947494035
22699.9999999502,17.1079867976461,1.00000000038107,0.349366897956512
22799.9999999487,17.2943276314773,1.00000000039991,0.340346248641141
22899.9999999473,17.6161891552545,1.00000000041285,0.340866611780431
22999.9999999458,18.0607741975913,1.00000000047376,0.346304705881639
23099.9999999443,18.658087732338,1.00000000053756,0.35417025867607
23199.9999999429,19.3692302237089,1.00000000063324,0.368494148334225
23299.9999999414,20.192821192976,1.00000000070034,0.381603529583959
23399.99999994,21.0961712549425,1.00000000087225,0.397723491017625
23499.9999999385,22.0352317196188,1.0000000008754,0.413929766498819
23599.9999999371,23.0100690084308,1.00000000103621,0.432413422038668
23699.9999999356,23.9611481796588,1.00000000111284,0.445573973401579
23799.9999999342,24.9140598379643,1.00000000110347,0.468467512795059
23899.9999999327,25.8180341704823,1.00000000113773,0.4810237689412
23999.9999999312,26.6966860273211,1.00000000119507,0.484623181698093
24099.9999999298,27.5134833549561,1.00000000110775,0.503455503010364
24199.9999999283,28.2898169656088,1.00000000103745,0.512278127084824
24299.9999999269,29.0166742690499,1.0000000010649,0.524014452491823
24399.9999999254,29.6822248023662,1.00000000109962,0.533392031986882
24499.999999924,30.3121347321075,1.00000000106637,0.54492701566062
24599.9999999225,30.8935844983833,1.00000000104614,0.552688629646917
24699.9999999211,31.4457976182594,1.0000000010881,0.567521946134152
24799.9999999196,31.9514049301198,1.00000000104622,0.572233563371589
24899.9999999181,32.4202829876538,1.00000000100666,0.573730934034916
24999.9999999167,32.85188086666,1.00000000103948,0.5979422630712
25099.9999999152,33.2422136977381,1.00000000103507,0.603392772073903
25199.9999999138,33.6110183719051,1.00000000098966,0.596483950092075
25299.9999999123,33.9397456967805,1.00000000106867,0.597073899254036
25399.9999999109,34.2335358962926,1.00000000113765,0.620438511953117
25499.9999999094,34.4766372343999,1.00000000115312,0.633004436715551
25599.999999908,34.6982653461214,1.00000000108438,0.622776443797564
25699.9999999065,34.8981331797506,1.00000000101213,0.613687250608363
25799.9999999051,35.0746348978177,1.00000000101353,0.61028784809537
25899.9999999036,35.2236131587419,1.00000000122311,0.62701907132182
25999.9999999021,35.3332491276744,1.00000000119082,0.635326816146592
26099.9999999007,35.4196788369431,1.00000000104557,0.63587417674856
26199.9999998992,35.4896909395711,1.00000000096014,0.619981820898715
26299.9999998978,35.5583319880767,1.00000000088444,0.607454386080833
26399.9999998963,35.6135302444763,1.00000000109821,0.605995694487421
26499.9999998949,35.6512932522627,1.00000000111851,0.621190480878298
26599.9999998934,35.6663769537786,1.00000000108863,0.628412656026702
26699.999999892,35.662080208164,1.00000000108496,0.628974165679784
26799.9999998905,35.6498831499544,1.00000000094939,0.620718274452048
26899.999999889,35.6335397964865,1.00000000091773,0.608813101082677
26999.9999998876,35.61740806741,1.00000000097876,0.611649500485151
27099.9999998861,35.591481692657,1.0000000011228,0.597505017527931
27199.9999998847,35.5594871192721,1.00000000103832,0.583260044243597
27299.9999998832,35.5189551828637,1.00000000108891,0.5981687213356
27399.9999998818,35.4716321568354,1.00000000110587,0.619216114867463
27499.9999998803,35.4162772302442,1.00000000112001,0.633635517294434
27599.9999998789,35.3572403552465,1.00000000098004,0.614688251321289
27699.9999998774,35.3040224083451,1.00000000090024,0.587686906778367
27799.9999998759,35.2543818408217,1.00000000095855,0.594552943696507
27899.9999998745,35.198774670477,1.00000000119755,0.597452163040951
27999.999999873,35.129382032819,1.00000000115002,0.59187980383146
28099.9999998716,35.0544642668086,1.00000000102681,0.584274813590103
28199.9999998701,34.9800718350058,1.000000000946,0.569756489048585
28299.9999998687,34.906475077467,1.00000000101555,0.584623897654929
28399.9999998672,34.8303089190105,1.00000000113327,0.603164337772634
28499.9999998658,34.7471099570838,1.00000000109286,0.613718431428945
28599.9999998643,34.6583041645571,1.00000000113134,0.622113676038286
28699.9999998629,34.5691664579292,1.00000000092974,0.60150881420411
28799.9999998614,34.4853726818383,1.00000000095432,0.590598869713691
28899.9999998599,34.404373335466,1.00000000105227,0.602612938057324
28999.9999998585,34.322421885433,1.00000000120638,0.602388487013875
29099.999999857,34.2378157213149,1.00000000100521,0.595716102322544
