Time,AGPnorm,Energy,Entropy
0,0,1,1.14789449720032e-18
99.9999999999986,0.0125026802518656,0.999999999999319,0.0327311443298432
199.999999999993,0.0318834943601133,1.00000000000041,0.0953632999388259
300,0.0599827164931825,1.00000000003121,0.200605121953514
400.000000000022,0.103415206023589,1.00000000114616,0.364142175684569
500.000000000045,0.364972659979414,1.00000000315488,0.49774400970479
600.000000000068,1.33373634983155,1.00000000463211,0.565358170234732
700.000000000091,3.07469786541901,1.00000000476568,0.59228923738365
800.000000000113,5.22359505900115,1.00000000452096,0.600220016372392
900.000000000136,7.41792642199156,1.00000000414551,0.59494233579664
1000.00000000016,9.27658228394442,1.00000000377341,0.584895102834349
1100.0000000001,10.6842402113939,1.00000000332971,0.570595839320053
1200,11.5600287207803,1.00000000281831,0.561408467400924
1299.99999999991,11.9624664652129,1.00000000250388,0.545549320766684
1399.99999999982,12.0144793342866,1.00000000237944,0.533520037175285
1499.99999999973,11.8284135294485,1.00000000291038,0.565002684806068
1599.99999999964,11.4668231432354,1.00000000302992,0.555415862751822
1699.99999999955,11.0722854722215,1.00000000199821,0.461083799631979
1799.99999999946,10.6254273213539,1.00000000395531,0.57464367193804
1899.99999999937,10.1946911068819,1.00000000183607,0.432888133188748
1999.99999999928,9.7443529392908,1.00000000368091,0.553765944311894
2099.99999999919,9.34289577413531,1.00000000201844,0.454235174416813
2199.99999999909,8.94871657463234,1.0000000027216,0.498008337136724
2299.999999999,8.57120894811249,1.00000000361034,0.551363779092326
2399.99999999891,8.23648100868583,1.0000000020091,0.459216208809834
2499.99999999882,7.94157198313908,1.00000000302602,0.495383526096038
2599.99999999873,7.65475454683226,1.00000000276436,0.520019343265784
2699.99999999864,7.37960047520162,1.00000000373996,0.557322800883469
2799.99999999855,7.14231615797577,1.00000000214527,0.466042354677359
2899.99999999846,6.9718308235231,1.00000000257697,0.480482683984749
2999.99999999837,6.78609356329172,1.00000000309309,0.545797173805934
3099.99999999828,6.61438418118714,1.00000000281982,0.550091734258186
3199.99999999819,6.43774861233436,1.00000000332688,0.559271384069353
3299.99999999809,6.26549702068433,1.00000000316028,0.549295989429084
3399.999999998,6.16377682033679,1.00000000194221,0.462117018070274
3499.99999999791,6.10483733402391,1.00000000306067,0.522123262050944
3599.99999999782,6.02916363102168,1.00000000310009,0.55573142664863
3699.99999999773,5.96069509730849,1.00000000301951,0.572262639705119
3799.99999999764,5.8775387511472,1.00000000321051,0.587840033950898
3899.99999999755,5.77899104722069,1.00000000287183,0.593170038862408
3999.99999999746,5.67841708554696,1.00000000349384,0.594146520230147
4099.99999999738,5.57427349044491,1.00000000342748,0.580978927778188
4199.99999999775,5.5091727189699,1.00000000233509,0.51495348700914
4299.99999999811,5.52636744897267,1.00000000248427,0.506414576420902
4399.99999999848,5.55290076319445,1.00000000342658,0.552470849456808
4499.99999999884,5.5649235103831,1.00000000309065,0.56030369880425
4599.9999999992,5.56734886529545,1.00000000325163,0.598198648663012
4699.99999999957,5.54949548568181,1.00000000341185,0.612374582289835
4799.99999999993,5.53747845979007,1.00000000289179,0.607008049817014
4900.00000000029,5.51434126599415,1.00000000339601,0.627999100021306
5000.00000000066,5.47811087071874,1.00000000339292,0.606536460810139
5100.00000000102,5.42671992745488,1.00000000328073,0.62780545707372
5200.00000000139,5.36983104105524,1.00000000285718,0.628583037127756
5300.00000000175,5.30881363646963,1.00000000342302,0.632298792490467
5400.00000000211,5.24826885674109,1.00000000360536,0.626080275374945
5500.00000000248,5.18701194611752,1.00000000336065,0.586389516879295
5600.00000000284,5.16395465845434,1.00000000263703,0.542540236146444
5700.00000000321,5.22174482961783,1.00000000263562,0.527757472079692
5800.00000000357,5.31580400400954,1.00000000345096,0.556791383293337
5900.00000000393,5.39783245331781,1.00000000373165,0.584664015551918
6000.0000000043,5.46927494069202,1.00000000326309,0.589073563117596
6100.00000000466,5.52991700974587,1.00000000359263,0.610166551698689
6200.00000000502,5.57980316581699,1.00000000349933,0.632892101649237
6300.00000000539,5.61104256319353,1.00000000355252,0.637581211242111
6400.00000000575,5.63195674941703,1.00000000369151,0.640451681749661
6500.00000000612,5.64775828504885,1.00000000369963,0.640139223379225
6600.00000000648,5.65173961617294,1.00000000357901,0.647220486953679
6700.00000000684,5.66211652296618,1.00000000334713,0.636285987814592
6800.00000000721,5.68002149380456,1.00000000340954,0.652046014439178
6900.00000000757,5.68649644421406,1.00000000401016,0.633804960436241
7000.00000000793,5.68279459910783,1.00000000340891,0.639968722746671
7100.0000000083,5.68414684563894,1.00000000353341,0.642775801455282
7200.00000000866,5.67969436878605,1.00000000381245,0.661956626156786
7300.00000000903,5.66489300276118,1.00000000356765,0.666135272850348
7400.00000000939,5.65189957127505,1.0000000034465,0.633078468887172
7500.00000000975,5.63708527423698,1.00000000372731,0.656103526277388
7600.00000001012,5.60980488581801,1.00000000367195,0.666138628747983
7700.00000001048,5.57202718285528,1.00000000373747,0.668323939965401
7800.00000001084,5.5282211892569,1.00000000373982,0.665845875015246
7900.00000001121,5.48579785510504,1.00000000393791,0.674797216547627
8000.00000001157,5.44580119649527,1.00000000409484,0.676294234082957
8100.00000001194,5.41022180131003,1.00000000407242,0.685640433981582
8200.0000000123,5.37586695879213,1.00000000383694,0.650548741713321
8300.00000001266,5.34394860387465,1.00000000368033,0.60955439149784
8400.00000001303,5.34609572676583,1.00000000307653,0.57363660010859
8500.00000001339,5.41664314193766,1.00000000300279,0.558133049453259
8600.00000001376,5.54877080434126,1.00000000371996,0.562562997269806
8700.00000001412,5.70694779814217,1.00000000396402,0.577575547146222
8800.00000001448,5.86533165340645,1.00000000397126,0.594434864997274
8900.00000001485,6.01044196694124,1.00000000371917,0.603029050667584
9000.00000001521,6.14721373759994,1.00000000410411,0.606681639598689
9100.00000001557,6.27910062456934,1.00000000397554,0.619448182749769
9200.00000001594,6.39048819958648,1.00000000420172,0.644568730313264
9300.0000000163,6.49256271807492,1.00000000400808,0.650508364853607
9400.00000001667,6.5770936140524,1.00000000410871,0.664082877214223
9500.00000001703,6.65631695084889,1.00000000406526,0.659816813646438
9600.00000001739,6.72930785934491,1.0000000040953,0.640787913012405
9700.00000001776,6.78483567614407,1.00000000440383,0.667405225976998
9800.00000001812,6.82841408411046,1.00000000446277,0.685032463066501
9900.00000001848,6.87982520702141,1.00000000411771,0.665616963178712
10000.0000000188,6.93077041163898,1.0000000041154,0.660486864351872
10100.0000000192,6.97360955239332,1.00000000469651,0.688718131112245
10200.0000000196,7.00868744982709,1.00000000413346,0.692308982019242
10300.0000000199,7.05073890102034,1.00000000422291,0.693076316169817
10400.0000000203,7.08109127572907,1.00000000449922,0.696131574427452
10500.0000000207,7.1077851528124,1.00000000434032,0.687596680050134
10600.000000021,7.12658960721925,1.00000000444988,0.69285919490666
10700.0000000214,7.14655440787351,1.00000000431921,0.691659418799982
10800.0000000218,7.162489402774,1.00000000417741,0.668694016826633
10900.0000000221,7.1768287772795,1.00000000499616,0.675671932287522
11000.0000000225,7.1969058902847,1.0000000041499,0.671175120155707
11100.0000000229,7.22134481868829,1.00000000398944,0.669137462808271
11200.0000000232,7.26164551570317,1.00000000462134,0.661821061674641
11300.0000000236,7.31621623659822,1.00000000437833,0.65946814659909
11400.0000000239,7.37468664451082,1.00000000473264,0.676190835686056
11500.0000000243,7.42738471873977,1.00000000443813,0.655588157101905
11600.0000000247,7.47871159685997,1.00000000488093,0.656310164268444
11700.000000025,7.52523841227121,1.0000000048972,0.676269822433633
11800.0000000254,7.57535055272922,1.00000000470128,0.690314072665921
11900.0000000258,7.61508000920396,1.00000000441945,0.665312631432576
12000.0000000261,7.6576438832393,1.0000000044144,0.693529168842142
12100.0000000265,7.69686465313468,1.00000000506402,0.707776367477118
12200.0000000269,7.73064959231897,1.00000000524807,0.692686948236179
12300.0000000272,7.75419547821319,1.00000000490398,0.693491091556753
12400.0000000276,7.79638961846357,1.00000000426521,0.667746563274732
12500.0000000279,7.84461570397727,1.00000000476913,0.670363370946157
12600.0000000283,7.89381796477388,1.00000000461276,0.687092932583357
12700.0000000287,7.93592829441498,1.0000000048849,0.699866031539275
12800.000000029,7.96975141250002,1.00000000493724,0.688635397424102
12900.0000000294,8.01082140698551,1.00000000424878,0.677763138952803
13000.0000000298,8.062978545933,1.0000000043292,0.677041962450519
13100.0000000301,8.10946513601522,1.00000000457288,0.666769067784037
13200.0000000305,8.1576564529422,1.00000000453815,0.670665830277038
13300.0000000309,8.199622647034,1.00000000487415,0.702684597529308
13400.0000000312,8.24349015331323,1.00000000439263,0.687662828259946
13500.0000000316,8.28580111742969,1.00000000538334,0.703450656821744
13600.0000000319,8.32437770682623,1.00000000423808,0.691406336392358
13700.0000000323,8.3615320592863,1.00000000504957,0.707002662481272
13800.0000000327,8.39418280868443,1.00000000465389,0.686008730805393
13900.000000033,8.41346976001887,1.00000000510443,0.691458990550848
14000.0000000334,8.43250130575785,1.00000000473626,0.690913028646775
14100.0000000338,8.45899198388153,1.00000000441965,0.680571570242947
14200.0000000341,8.48460625132278,1.00000000460104,0.696584044606266
14300.0000000345,8.51364505035143,1.00000000463722,0.687763631289544
14400.0000000349,8.53601416159495,1.00000000484091,0.695953387683045
14500.0000000352,8.5531246003297,1.00000000496895,0.682793016825539
14600.0000000356,8.57011723384137,1.00000000470676,0.702393090426834
14700.0000000359,8.58828607341955,1.00000000491569,0.701542201046556
14800.0000000363,8.60270410059917,1.00000000507948,0.703445957701635
14900.0000000367,8.60932165659984,1.0000000055824,0.687969221947676
15000.000000037,8.60639379656226,1.00000000488143,0.711531474157738
15100.0000000374,8.59715928548285,1.00000000496264,0.723809011278856
15200.0000000378,8.58881995182076,1.0000000050868,0.705401526439317
15300.0000000381,8.57355033935177,1.00000000537377,0.699733728819263
15400.0000000385,8.55313874763833,1.00000000539726,0.716377533490523
15500.0000000389,8.52780879692125,1.00000000492047,0.709829440022487
15600.0000000392,8.49926758958074,1.00000000502464,0.678087029516377
15700.0000000396,8.47077970852726,1.00000000466224,0.693315117645507
15800.0000000399,8.44451154125739,1.00000000520327,0.69658709678183
15900.0000000403,8.42315620322339,1.00000000518842,0.67671441032305
16000.0000000407,8.40405904605172,1.00000000519352,0.688629209011941
16100.000000041,8.39030472019861,1.0000000056549,0.686081318325878
16200.0000000414,8.37780349642036,1.00000000568372,0.693241247906309
16300.0000000418,8.37629522146324,1.00000000535409,0.696220102472786
16400.0000000418,8.37078540560069,1.00000000537193,0.694799669226639
16500.0000000404,8.37267381034758,1.00000000502464,0.681429159589041
16600.0000000389,8.37484090293665,1.00000000527763,0.669775254819396
16700.0000000375,8.39194567947235,1.00000000548764,0.648090348755184
16800.000000036,8.43715281195664,1.00000000440917,0.627493057104915
16900.0000000346,8.53681592464112,1.00000000484538,0.615572875274526
17000.0000000331,8.69862908618002,1.00000000454221,0.610249596112616
17100.0000000317,8.9369117625993,1.00000000484539,0.618843170659563
17200.0000000302,9.22127270245617,1.00000000493606,0.613741230074848
17300.0000000287,9.56336644089111,1.00000000454057,0.621241314905794
17400.0000000273,9.90512495093563,1.00000000539049,0.614080139501853
17500.0000000258,10.278014819851,1.00000000534007,0.620381913273176
17600.0000000244,10.6305995823825,1.00000000514764,0.619688838224788
17700.0000000229,10.9947370810995,1.0000000057069,0.631782466638724
17800.0000000215,11.3459616548339,1.00000000542885,0.627520314798485
17900.00000002,11.6929612757957,1.00000000474165,0.640507418459952
18000.0000000186,12.0448397171942,1.00000000529001,0.637720372829588
18100.0000000171,12.3971392653062,1.00000000531728,0.6428748968406
18200.0000000156,12.7595568699826,1.00000000484907,0.646290739456523
18300.0000000142,13.1155901367978,1.00000000537645,0.647557872743107
18400.0000000127,13.4671457200632,1.00000000628903,0.668107724386387
18500.0000000113,13.8100490263484,1.00000000556515,0.679066912333489
18600.0000000098,14.1461804453852,1.00000000613128,0.673598698784666
18700.0000000084,14.4868266994174,1.00000000536377,0.672084800573085
18800.0000000069,14.8065336229436,1.00000000595807,0.693583524204823
18900.0000000055,15.1253928871728,1.00000000605059,0.698273050603707
19000.000000004,15.417493087616,1.00000000605947,0.696739300763117
19100.0000000026,15.7210791516977,1.00000000511503,0.703528429081754
19200.0000000011,16.0246992553025,1.00000000565481,0.702143286451841
19299.9999999996,16.3186144991487,1.00000000594441,0.687229129517199
19399.9999999982,16.6130059365312,1.00000000574633,0.706863373608703
19499.9999999967,16.90460580551,1.00000000568181,0.691486457060531
19599.9999999953,17.1965062240786,1.00000000597511,0.695002704129207
19699.9999999938,17.4690601210026,1.00000000530269,0.704844105122206
19799.9999999924,17.7523547713815,1.00000000547461,0.688100702470037
19899.9999999909,18.0315948893994,1.00000000588658,0.687163081990023
19999.9999999895,18.2970001122718,1.00000000591652,0.707520674882128
20099.999999988,18.5564159046077,1.00000000500776,0.714779497529999
20199.9999999865,18.816555500586,1.0000000064192,0.71176362714311
20299.9999999851,19.0853367389462,1.0000000060221,0.716572108321887
20399.9999999836,19.3582244205961,1.00000000525965,0.719887058469739
20499.9999999822,19.64772681191,1.0000000057353,0.737648785660725
20599.9999999807,19.9419405949017,1.00000000589873,0.728819346498524
20699.9999999793,20.2349067747275,1.00000000599878,0.728693091959673
20799.9999999778,20.5165262845308,1.00000000606156,0.725096525913042
20899.9999999764,20.7786611747227,1.00000000605109,0.7203443537409
20999.9999999749,21.0306366761152,1.00000000605,0.719762200492415
21099.9999999734,21.2822183190012,1.00000000538394,0.727920383655855
21199.999999972,21.5630057586209,1.00000000590143,0.712731903091175
21299.9999999705,21.8452732230892,1.00000000623104,0.725846842398759
21399.9999999691,22.1170017366152,1.0000000054707,0.71060776039332
21499.9999999676,22.3809002435778,1.00000000577373,0.717523206931949
21599.9999999662,22.6530454400949,1.00000000545813,0.726410824750833
21699.9999999647,22.9287121177659,1.00000000641844,0.704825915907288
21799.9999999633,23.1948679105126,1.00000000610805,0.700494968504502
21899.9999999618,23.4661944246908,1.00000000581393,0.72295834507182
21999.9999999603,23.7274368102273,1.00000000572777,0.699313065567539
22099.9999999589,23.9957594514447,1.00000000648203,0.71288816119657
22199.9999999574,24.2830693064795,1.00000000530223,0.71339745990974
22299.999999956,24.5651852221877,1.0000000064756,0.718533174961581
22399.9999999545,24.8384838263444,1.00000000591132,0.717294559399493
22499.9999999531,25.1136915185417,1.00000000616275,0.712454048765131
22599.9999999516,25.3922963760854,1.00000000584115,0.713987766271283
22699.9999999502,25.6890173392847,1.00000000619634,0.7109997017833
22799.9999999487,25.9932311310669,1.00000000599106,0.707081166737483
22899.9999999473,26.2956528246494,1.00000000658644,0.715677875079999
22999.9999999458,26.5831487039561,1.00000000677965,0.724313737365788
23099.9999999443,26.8511117463722,1.00000000633052,0.705699378805279
23199.9999999429,27.1327313445346,1.00000000577612,0.692620266074785
23299.9999999414,27.414627791734,1.00000000592755,0.695479464533212
23399.99999994,27.7009830344418,1.00000000653955,0.710020867009936
23499.9999999385,27.9910050609507,1.00000000640676,0.705329773960054
23599.9999999371,28.2758823906043,1.00000000607223,0.711046718224751
23699.9999999356,28.5603207210756,1.00000000638907,0.709792951854224
23799.9999999342,28.8456845534965,1.00000000609468,0.711406477180106
23899.9999999327,29.1328873969291,1.0000000061396,0.729598022035704
23999.9999999312,29.4121083917318,1.00000000604873,0.732025456348423
24099.9999999298,29.6950665436198,1.0000000062174,0.719284867624807
24199.9999999283,29.9748602016818,1.00000000656159,0.730282950135442
24299.9999999269,30.2584670787568,1.00000000636855,0.719992687164355
24399.9999999254,30.5381502688058,1.00000000651832,0.729755468316234
24499.999999924,30.8119839806348,1.000000006573,0.722206957478252
24599.9999999225,31.0899118917775,1.00000000624093,0.717977539113284
24699.9999999211,31.3836973741285,1.00000000622629,0.723207185487446
24799.9999999196,31.700462335912,1.00000000645216,0.723687569793551
24899.9999999181,32.0408187536615,1.0000000063991,0.721746836817593
24999.9999999167,32.4095432875726,1.00000000607859,0.715644688753119
25099.9999999152,32.8078345585834,1.00000000622656,0.718936357708314
25199.9999999138,33.2087759823481,1.00000000646964,0.732110874657854
25299.9999999123,33.6217390588925,1.00000000691844,0.728018515910454
25399.9999999109,34.0417201288659,1.00000000757933,0.739592112908008
25499.9999999094,34.4417682298763,1.00000000676248,0.73377559642231
25599.999999908,34.8242011858667,1.0000000070465,0.730515662442658
25699.9999999065,35.1831727798425,1.00000000684878,0.72793321687956
25799.9999999051,35.5509522510615,1.00000000672614,0.717671204472024
25899.9999999036,35.9233552529494,1.00000000673836,0.727943570388416
25999.9999999021,36.2996850841608,1.00000000677787,0.722731249510047
26099.9999999007,36.682370489182,1.00000000665041,0.712176950986995
26199.9999998992,37.0831213387879,1.00000000614884,0.697375866851266
26299.9999998978,37.4965172241461,1.00000000633321,0.71593597710794
26399.9999998963,37.9021975082891,1.00000000696995,0.720103540781121
26499.9999998949,38.3086801855038,1.00000000647904,0.723280122218878
26599.9999998934,38.719851232564,1.00000000648723,0.725495011755013
26699.999999892,39.1297829064485,1.00000000746749,0.732181658533723
26799.9999998905,39.5292208555657,1.00000000656315,0.727845783609463
26899.999999889,39.9338141186422,1.00000000689918,0.736076818442963
26999.9999998876,40.3436829205779,1.00000000686854,0.735637762197589
27099.9999998861,40.7661651821613,1.00000000740999,0.722581319664113
27199.9999998847,41.1795629396194,1.00000000754592,0.728934929922514
27299.9999998832,41.5693391559954,1.00000000753846,0.727266822604258
27399.9999998818,41.9512122366791,1.00000000691072,0.710987530026972
27499.9999998803,42.3619669132654,1.00000000671492,0.702093801304876
27599.9999998789,42.7993652485168,1.00000000689752,0.712495447287101
27699.9999998774,43.2407056196298,1.00000000750465,0.724275758902872
27799.9999998759,43.6923335378039,1.00000000732858,0.726291506857014
27899.9999998745,44.1316080332525,1.00000000734912,0.718552529673651
27999.999999873,44.5578843032716,1.00000000710057,0.717098634037295
28099.9999998716,44.9847309388314,1.0000000072067,0.731447329863831
28199.9999998701,45.4003838661867,1.00000000765416,0.73704784043587
28299.9999998687,45.8185708659527,1.00000000735019,0.727835443171879
28399.9999998672,46.2599648842926,1.00000000700558,0.720358645761157
28499.9999998658,46.7213609529657,1.00000000690907,0.72702170246946
28599.9999998643,47.1943886756053,1.00000000694666,0.73071660408556
28699.9999998629,47.6618927775769,1.00000000790187,0.739181488634097
28799.9999998614,48.1065314817818,1.00000000724914,0.733703202274087
28899.9999998599,48.5333649754572,1.00000000730974,0.728908991034465
28999.9999998585,48.9737100841232,1.00000000698688,0.722011980345993
29099.999999857,49.4170784002436,1.00000000693077,0.722084148367482
