Time,AGPnorm,Energy,Entropy
0,0,1,-2.64282686564733e-18
99.9999999999986,0.0059198132092885,0.999999999997852,0.0173438198813847
199.999999999993,0.01566808305597,1.00000000000081,0.0511091390905069
300,0.032592511251407,0.99999999999749,0.100457689612723
400.000000000022,0.0493745125784872,1.00000000000719,0.167758771713666
500.000000000045,0.0660460619500685,1.00000000013271,0.265231195749747
600.000000000068,0.131228544889782,1.00000000071858,0.381210057257457
700.000000000091,0.430380672154093,1.00000000142889,0.472922244134431
800.000000000113,1.33782963888811,1.00000000201771,0.528558076233159
900.000000000136,3.07533343386118,1.00000000240877,0.55902773759032
1000.00000000016,5.55118445373811,1.00000000239931,0.572516958456189
1100.0000000001,8.58967967454498,1.00000000226349,0.57571937041051
1200,11.8099514916882,1.00000000220423,0.572335236357804
1299.99999999991,14.9616670417282,1.00000000201669,0.567665284466045
1399.99999999982,17.7943738785263,1.00000000204746,0.560597088186576
1499.99999999973,20.1579088607258,1.00000000171622,0.548839322415511
1599.99999999964,22.006983977873,1.00000000169076,0.54278869683986
1699.99999999955,23.297314534846,1.00000000156121,0.539904446705268
1799.99999999946,24.1253717156747,1.00000000138265,0.518712701095253
1899.99999999937,24.4742396023638,1.00000000147834,0.552074603578489
1999.99999999928,24.5324705981747,1.00000000107809,0.490801485817329
2099.99999999919,24.2357686557794,1.00000000152936,0.547008448768341
2199.99999999909,23.8888340384587,1.00000000142106,0.520352214779998
2299.999999999,23.2972396432909,1.00000000091843,0.43897466280069
2399.99999999891,22.6824683611313,1.00000000201763,0.583824177730114
2499.99999999882,22.1202268457797,1.00000000107513,0.456316895175333
2599.99999999873,21.4232468789181,1.00000000085724,0.400425429264397
2699.99999999864,20.7322952415271,1.00000000201169,0.560811769937585
2799.99999999855,20.144977796226,1.00000000158595,0.544099875513384
2899.99999999846,19.5525094798206,1.00000000074328,0.36130738784841
2999.99999999837,18.9420622456974,1.00000000111965,0.420213883893584
3099.99999999828,18.3430499322733,1.00000000172418,0.533486592949368
3199.99999999819,17.7949987096772,1.00000000179753,0.560568410117139
3299.99999999809,17.2958599919778,1.00000000134873,0.501493003426723
3399.999999998,16.8253733967337,1.00000000074031,0.352014422587587
3499.99999999791,16.405127186882,1.0000000012389,0.4261895467664
3599.99999999782,15.9888795334634,1.00000000164087,0.526834321517568
3699.99999999773,15.5818455404771,1.00000000126444,0.510255866271273
3799.99999999764,15.1827013628417,1.00000000187962,0.537097062857546
3899.99999999755,14.796391997966,1.00000000173981,0.57211280923011
3999.99999999746,14.4465719157178,1.00000000089053,0.440619106538912
4099.99999999738,14.1841738666983,1.000000000746,0.350027326545775
4199.99999999775,13.9996480362526,1.00000000136019,0.42958479532284
4299.99999999811,13.8098350551255,1.00000000149255,0.511215644519417
4399.99999999848,13.5875647455828,1.00000000151236,0.547311256215861
4499.99999999884,13.3572080896168,1.00000000132419,0.535029026775154
4599.9999999992,13.1379248893336,1.00000000132168,0.528506985596588
4699.99999999957,12.9039387209873,1.00000000168724,0.529724997768405
4799.99999999993,12.6523778884977,1.00000000184185,0.570154980429122
4900.00000000029,12.4021615385013,1.00000000146676,0.567844262189283
5000.00000000066,12.1904969647621,1.00000000085138,0.453983649391869
5100.00000000102,12.0837107664268,1.00000000072315,0.37411309990949
5200.00000000139,12.0911577007515,1.00000000110596,0.394679568305086
5300.00000000175,12.1295445211458,1.00000000144672,0.472500739228935
5400.00000000211,12.1233834419537,1.00000000168067,0.535152890865662
5500.00000000248,12.0911109361282,1.00000000132641,0.54306081375613
5600.00000000284,12.0451784766881,1.0000000014023,0.554823695382686
5700.00000000321,11.9689019803906,1.00000000153994,0.561884400807455
5800.00000000357,11.8672369337136,1.00000000139992,0.539874515270003
5900.00000000393,11.7564899299583,1.00000000139392,0.563368996220372
6000.0000000043,11.6435126629094,1.00000000128794,0.556742993567934
6100.00000000466,11.5368539893149,1.00000000130559,0.561369963472413
6200.00000000502,11.4168453530665,1.00000000156985,0.569204721612636
6300.00000000539,11.2773431776674,1.00000000179,0.568396921314796
6400.00000000575,11.1221746593193,1.00000000190907,0.580743858435537
6500.00000000612,10.9597288444961,1.00000000174209,0.585044781276669
6600.00000000648,10.808541108539,1.00000000114671,0.526511057760432
6700.00000000684,10.7097810880106,1.00000000079433,0.441883456210961
6800.00000000721,10.7223023642394,1.00000000076449,0.389353899949176
6900.00000000757,10.8552298948967,1.00000000104402,0.403360968366115
7000.00000000793,11.0529742844209,1.0000000013476,0.440282906256824
7100.0000000083,11.2346405762634,1.00000000164284,0.490606323685382
7200.00000000866,11.3856635177573,1.00000000157668,0.52469821999817
7300.00000000903,11.5027155658152,1.0000000015851,0.554959348023142
7400.00000000939,11.5883939240807,1.0000000016209,0.560068528575686
7500.00000000975,11.6467290601052,1.00000000153272,0.579030530547066
7600.00000001012,11.6679739758243,1.00000000161714,0.59046350794842
7700.00000001048,11.6567706313558,1.00000000149169,0.588760954055802
7800.00000001084,11.6325513320566,1.00000000140781,0.560069328386836
7900.00000001121,11.6011923951799,1.00000000156245,0.557859953961224
8000.00000001157,11.5634346800146,1.00000000155233,0.548869087696876
8100.00000001194,11.5164758674596,1.00000000149809,0.543415583230824
8200.0000000123,11.4676855480214,1.00000000146681,0.564674196789956
8300.00000001266,11.4204920651834,1.00000000137716,0.560239687741259
8400.00000001303,11.3745407290307,1.0000000015097,0.561413518996991
8500.00000001339,11.3297127083849,1.00000000142479,0.565560491312721
8600.00000001376,11.2820763896535,1.00000000155889,0.567889204516039
8700.00000001412,11.2261185916462,1.00000000153105,0.564490698623363
8800.00000001448,11.1615914315253,1.00000000144431,0.565590963908325
8900.00000001485,11.0854686673523,1.00000000160703,0.591357239859479
9000.00000001521,11.0025355850499,1.00000000148708,0.609326489117547
9100.00000001557,10.9210350348119,1.00000000128426,0.592724404286899
9200.00000001594,10.838816598342,1.00000000143764,0.597562856764711
9300.0000000163,10.7512560997763,1.00000000158112,0.594031054961197
9400.00000001667,10.6571672446085,1.00000000170597,0.589165313813204
9500.00000001703,10.560423159724,1.00000000189827,0.587386667928153
9600.00000001739,10.4653975472328,1.00000000198912,0.579366093080272
9700.00000001776,10.3708541502564,1.00000000197569,0.574916792787419
9800.00000001812,10.2722290802637,1.00000000174439,0.570541595697808
9900.00000001848,10.1708628476086,1.00000000132297,0.532345941047538
10000.0000000188,10.0882938952496,1.00000000089842,0.472960468485447
10100.0000000192,10.0639212982896,1.00000000088356,0.432226036789599
10200.0000000196,10.1366546998744,1.00000000078598,0.398956187662739
10300.0000000199,10.3196159013671,1.00000000109881,0.407504346889778
10400.0000000203,10.5976477014627,1.00000000124504,0.422726742063042
10500.0000000207,10.9101428062238,1.00000000151694,0.450888700774192
10600.000000021,11.2289091376507,1.00000000163407,0.480605619842099
10700.0000000214,11.5213800319429,1.00000000171054,0.509555263363633
10800.0000000218,11.7866995019904,1.00000000159335,0.526459523938349
10900.0000000221,12.0246199653752,1.00000000154898,0.550518123546324
11000.0000000225,12.234152308899,1.00000000163217,0.570737481224568
11100.0000000229,12.4161881260944,1.00000000158469,0.583559660407042
11200.0000000232,12.5658432727823,1.00000000167195,0.591875644316931
11300.0000000236,12.692601241399,1.00000000156451,0.607708566580683
11400.0000000239,12.7898796234283,1.00000000161844,0.621937282748911
11500.0000000243,12.8558849274956,1.00000000165453,0.62204818881933
11600.0000000247,12.8946274784908,1.00000000163936,0.622529151211427
11700.000000025,12.9176670225972,1.00000000163693,0.622081585364876
11800.0000000254,12.9278069618331,1.00000000158377,0.620692176454904
11900.0000000258,12.9302411242212,1.00000000156001,0.612095692783808
12000.0000000261,12.9235437367378,1.00000000161304,0.614120802717656
12100.0000000265,12.9013844617881,1.00000000161668,0.607230345880013
12200.0000000269,12.8765415468438,1.00000000143376,0.594701592801634
12300.0000000272,12.8435213779085,1.00000000161145,0.609576430567459
12400.0000000276,12.7998669662175,1.00000000156777,0.604803054309683
12500.0000000279,12.7505677462793,1.00000000161696,0.620083907826853
12600.0000000283,12.6956784928281,1.0000000015947,0.6249684881093
12700.0000000287,12.6353012919698,1.00000000167038,0.633298710048258
12800.000000029,12.5729176381429,1.00000000156748,0.627684113828094
12900.0000000294,12.5158479547807,1.00000000152184,0.61172005469295
13000.0000000298,12.4674526927661,1.0000000014566,0.596174275973333
13100.0000000301,12.4264419441524,1.00000000156715,0.596009417657334
13200.0000000305,12.3887377933449,1.00000000172651,0.596923682940532
13300.0000000309,12.3532355340368,1.00000000163608,0.604076526165888
13400.0000000312,12.3181298805758,1.00000000162898,0.598808808801847
13500.0000000316,12.2814820741294,1.00000000170019,0.606030921054424
13600.0000000319,12.2461821067268,1.00000000163775,0.61097318935206
13700.0000000323,12.2133943893089,1.00000000168213,0.60409996843971
13800.0000000327,12.1759666025853,1.00000000163236,0.594055271605257
13900.000000033,12.1409460893951,1.00000000145541,0.601844932094734
14000.0000000334,12.113062019744,1.00000000159836,0.587239188210695
14100.0000000338,12.0888334052477,1.0000000015596,0.570150223343414
14200.0000000341,12.0628348917905,1.00000000187379,0.568592219776741
14300.0000000345,12.0367451484082,1.00000000161398,0.571914133814501
14400.0000000349,12.0141647755982,1.00000000163035,0.583292230139928
14500.0000000352,11.9898644464257,1.00000000177112,0.614950875818741
14600.0000000356,11.9656442401959,1.00000000153609,0.619062987089249
14700.0000000359,11.9440145435223,1.00000000171141,0.606424077784764
14800.0000000363,11.9202897834725,1.0000000017302,0.597189535694624
14900.0000000367,11.895506237308,1.00000000167914,0.613171498678894
15000.000000037,11.8743871704217,1.00000000169735,0.614418746236274
15100.0000000374,11.8514829460378,1.00000000165712,0.620093929248666
15200.0000000378,11.8217454383682,1.00000000171673,0.627386745411631
15300.0000000381,11.791715357883,1.00000000169354,0.618306857502581
15400.0000000385,11.7623014346914,1.00000000170493,0.629775175942245
15500.0000000389,11.72606799439,1.00000000175993,0.631239080626726
15600.0000000392,11.6866789676484,1.00000000169478,0.610573148473737
15700.0000000396,11.6443342752433,1.00000000168681,0.612862279925469
15800.0000000399,11.6037623326321,1.00000000156699,0.624382087607187
15900.0000000403,11.5686265223041,1.0000000015361,0.626842963070412
16000.0000000407,11.5358707315494,1.00000000169155,0.63067049381615
16100.000000041,11.4980460992205,1.00000000188329,0.630031941364889
16200.0000000414,11.4548090057269,1.00000000175699,0.627777242304806
16300.0000000418,11.4148382044641,1.00000000150897,0.620480977426739
16400.0000000418,11.3754586825243,1.00000000175198,0.636815387031536
16500.0000000404,11.3322170679546,1.00000000155124,0.629965441649417
16600.0000000389,11.2902057991444,1.0000000015776,0.620323872168261
16700.0000000375,11.2494343623083,1.00000000170356,0.628624687710939
16800.000000036,11.2074552604933,1.00000000168802,0.623287084370653
16900.0000000346,11.1645715589523,1.00000000151842,0.641604379812188
17000.0000000331,11.1198291750375,1.00000000162242,0.6410090739412
17100.0000000317,11.0717882292962,1.00000000178823,0.639537966154016
17200.0000000302,11.0208618080998,1.00000000167014,0.630199988612326
17300.0000000287,10.968135907168,1.00000000182514,0.640471854848488
17400.0000000273,10.913965449844,1.00000000175129,0.637774603734685
17500.0000000258,10.8594322642319,1.0000000015097,0.636575313639412
17600.0000000244,10.8037759857843,1.00000000183913,0.651420375265926
17700.0000000229,10.7459514075849,1.00000000176479,0.644706978184854
17800.0000000215,10.6875908872316,1.00000000161487,0.651089398883937
17900.00000002,10.6294903616929,1.00000000161864,0.633998426022811
18000.0000000186,10.5715176613045,1.00000000158982,0.648093116250299
18100.0000000171,10.5140664183886,1.00000000160198,0.654057051339554
18200.0000000156,10.4572525510631,1.00000000142419,0.631535881553667
18300.0000000142,10.4007197199429,1.00000000175523,0.641717051448182
18400.0000000127,10.3450472982321,1.0000000015811,0.637495504001597
18500.0000000113,10.2910754103231,1.00000000161668,0.645421490678204
18600.0000000098,10.2399405902018,1.00000000170474,0.640716995015213
18700.0000000084,10.1932385360725,1.00000000178505,0.652182014161024
18800.0000000069,10.1541616883703,1.00000000186675,0.650531258725946
18900.0000000055,10.1224905150708,1.00000000201369,0.651748425684372
19000.000000004,10.1070216699357,1.00000000206214,0.651383521786154
19100.0000000026,10.100438429811,1.00000000225769,0.650454671548357
19200.0000000011,10.116462306129,1.00000000228146,0.653430194923121
19299.9999999996,10.1369055604807,1.00000000213663,0.643290886225652
19399.9999999982,10.1761133351551,1.00000000221302,0.635915357110765
19499.9999999967,10.2085118215384,1.00000000205984,0.622476421477084
19599.9999999953,10.2384641323983,1.00000000190766,0.6141246337795
19699.9999999938,10.2467168605877,1.00000000164786,0.598766799034318
19799.9999999924,10.232203770054,1.00000000150807,0.574646000157963
19899.9999999909,10.1995011454457,1.00000000117616,0.540011771989264
19999.9999999895,10.1569697646933,1.00000000124973,0.514872760654169
20099.999999988,10.1269069842304,1.00000000107578,0.483991620078308
20199.9999999865,10.1298601082444,1.00000000112906,0.461483770448354
20299.9999999851,10.1896816080105,1.00000000105477,0.43991031117729
20399.9999999836,10.3248412682499,1.00000000107879,0.428452485363813
20499.9999999822,10.5575747514027,1.00000000112203,0.427217882837868
20599.9999999807,10.8723722176156,1.0000000011743,0.430337698516462
20699.9999999793,11.2930717285905,1.00000000148807,0.440530542561435
20799.9999999778,11.7565896601686,1.00000000151939,0.44875220848096
20899.9999999764,12.2881655039298,1.00000000173761,0.460943892535769
20999.9999999749,12.8191424681567,1.00000000182097,0.46927188652355
21099.9999999734,13.3704271163378,1.00000000170688,0.478665947214193
21199.999999972,13.9075727206193,1.00000000191987,0.4943803015307
21299.9999999705,14.4274834329106,1.00000000199718,0.501107007644045
21399.9999999691,14.9392962228861,1.00000000183934,0.516556952944661
21499.9999999676,15.4173420989512,1.00000000189973,0.525678594409519
21599.9999999662,15.8920434272967,1.00000000193847,0.537884275213442
21699.9999999647,16.3390644444946,1.00000000190304,0.544023591823893
21799.9999999633,16.7775090260665,1.00000000181737,0.548849529604981
21899.9999999618,17.1920757548338,1.00000000174981,0.564968924486718
21999.9999999603,17.5943114838593,1.00000000183083,0.574128402171339
22099.9999999589,17.9845845955022,1.0000000018008,0.588017554259972
22199.9999999574,18.3365249336654,1.00000000191873,0.593399634094508
22299.999999956,18.6788243234744,1.00000000190752,0.610156188271286
22399.9999999545,18.9885964632258,1.00000000190014,0.618323642700041
22499.9999999531,19.2830082389484,1.00000000188704,0.61646859899097
22599.9999999516,19.5432994670215,1.00000000192564,0.627822437643657
22699.9999999502,19.7788809603949,1.00000000205718,0.638882055486877
22799.9999999487,19.9936882206054,1.00000000183791,0.639184600733223
22899.9999999473,20.1824861142504,1.0000000019257,0.633196770137245
22999.9999999458,20.3544950924224,1.00000000188674,0.647591968384577
23099.9999999443,20.4984775160141,1.00000000203239,0.64852467409589
23199.9999999429,20.6292648682159,1.00000000177815,0.649143719141066
23299.9999999414,20.738240462605,1.00000000184045,0.63940754183563
23399.99999994,20.8338270484158,1.00000000201233,0.650551132149751
23499.9999999385,20.9131078341924,1.00000000200034,0.650911162099002
23599.9999999371,20.9807098065738,1.00000000216006,0.654302654067162
23699.9999999356,21.0430571699613,1.00000000186934,0.649696864603926
23799.9999999342,21.097450067695,1.0000000018784,0.642574392568913
23899.9999999327,21.1495046288107,1.00000000172824,0.644684019364829
23999.9999999312,21.1841572930062,1.00000000198944,0.646519525165789
24099.9999999298,21.2031655208614,1.00000000216499,0.658301652932084
24199.9999999283,21.2088784352653,1.00000000193851,0.653813600961446
24299.9999999269,21.2178224177989,1.00000000155574,0.62836768454073
24399.9999999254,21.2321796691192,1.00000000169073,0.628766559652002
24499.999999924,21.2431837713916,1.00000000182022,0.63032375480811
24599.9999999225,21.2485253720053,1.00000000189937,0.633583935948029
24699.9999999211,21.2451136438698,1.00000000178867,0.626832531450083
24799.9999999196,21.2361844168557,1.00000000210057,0.63579906455412
24899.9999999181,21.2231628848701,1.00000000180124,0.64107003472968
24999.9999999167,21.2089165590961,1.00000000164525,0.63779738524294
25099.9999999152,21.1975239628372,1.00000000177241,0.60575307954307
25199.9999999138,21.186823470341,1.00000000177509,0.605105906278914
25299.9999999123,21.1715508135582,1.00000000199381,0.617408354739925
25399.9999999109,21.1456289620262,1.00000000220209,0.617352590506972
25499.9999999094,21.114561788758,1.00000000193489,0.615333828111164
25599.999999908,21.084972626744,1.00000000180145,0.617661986106239
25699.9999999065,21.059623329973,1.0000000015303,0.636899056377857
25799.9999999051,21.0316425217763,1.00000000193363,0.655408998186598
25899.9999999036,20.9966672847042,1.00000000203976,0.650805131698859
25999.9999999021,20.9585269495905,1.00000000184588,0.644339556783938
26099.9999999007,20.9192247886107,1.00000000190345,0.630051836228088
26199.9999998992,20.8853386689416,1.00000000179931,0.620527811616556
26299.9999998978,20.8565546489531,1.00000000188807,0.631680379714768
26399.9999998963,20.8338195981329,1.00000000168109,0.62960813583451
26499.9999998949,20.8180126120385,1.00000000165095,0.61163846179367
26599.9999998934,20.8072315985302,1.00000000179312,0.621532887054113
26699.999999892,20.7933593079057,1.00000000211687,0.650921471192674
26799.9999998905,20.7703449513016,1.00000000211567,0.648336374683757
26899.999999889,20.7429119790764,1.00000000206823,0.644651320668007
26999.9999998876,20.7167449675231,1.00000000168191,0.640268491610675
27099.9999998861,20.6908894138464,1.00000000188089,0.660420506363761
27199.9999998847,20.660838149,1.00000000183939,0.654597140941349
27299.9999998832,20.627231009489,1.00000000198335,0.643332810596613
27399.9999998818,20.5953061704172,1.0000000016939,0.6323575071682
27499.9999998803,20.5662461405007,1.00000000193969,0.638228012193361
27599.9999998789,20.5380803539344,1.00000000188497,0.622429718678073
27699.9999998774,20.5090175690551,1.00000000169882,0.635962294705498
27799.9999998759,20.4766884255059,1.00000000199834,0.641691254831218
27899.9999998745,20.4429628465573,1.00000000189317,0.62653839810656
27999.999999873,20.4085343559487,1.00000000198841,0.625567299022224
28099.9999998716,20.3728102885223,1.00000000203373,0.620996095797238
28199.9999998701,20.335880914599,1.00000000199515,0.622411062078812
28299.9999998687,20.2975480461265,1.00000000180879,0.624418481356536
28399.9999998672,20.2602136285884,1.00000000182209,0.625334403118006
28499.9999998658,20.2241829962997,1.0000000019129,0.634887884379897
28599.9999998643,20.1868435045033,1.00000000205317,0.628504421999854
28699.9999998629,20.1483280634248,1.0000000018401,0.605720339482991
28799.9999998614,20.1102491427744,1.0000000018478,0.606860511712039
28899.9999998599,20.0696305148414,1.00000000186876,0.631471904473913
28999.9999998585,20.0278680727198,1.00000000198751,0.635056863508971
29099.999999857,19.9857781546579,1.00000000180759,0.627452493138314
