Time,AGPnorm,Energy,Entropy
0,0,1,2.56274120305191e-18
99.9999999999986,0.00708112533649766,1.00000000000179,0.0201894354393866
199.999999999993,0.0193365982078639,1.00000000000048,0.0586248341363048
300,0.0388950484709424,1.00000000000195,0.116026401751325
400.000000000022,0.0585674923604651,1.00000000002261,0.197177442283645
500.000000000045,0.0766011809350857,1.00000000036941,0.31557837262371
600.000000000068,0.223256335941431,1.0000000012683,0.433722223611186
700.000000000091,0.773271235005251,1.0000000020417,0.511366016371139
800.000000000113,2.09920970057989,1.00000000250517,0.554370312699244
900.000000000136,4.23259911015421,1.0000000026675,0.57421446560343
1000.00000000016,6.92793679070411,1.00000000280923,0.580643651425938
1100.0000000001,9.91300663006436,1.00000000260756,0.578915932245486
1200,12.8029115479494,1.00000000237546,0.571146943675179
1299.99999999991,15.4066404364454,1.00000000233914,0.565006710235042
1399.99999999982,17.5362198673201,1.00000000217795,0.558118330866695
1499.99999999973,19.1346088340523,1.00000000186206,0.549679068180609
1599.99999999964,20.2014600179834,1.00000000161077,0.529347281223687
1699.99999999955,20.8029167809564,1.00000000168868,0.551201948081521
1799.99999999946,20.9678842360018,1.00000000140022,0.521823101391893
1899.99999999937,20.9031540339656,1.00000000158134,0.532411783833239
1999.99999999928,20.525275724772,1.00000000146569,0.506291080714431
2099.99999999919,20.1168353942392,1.0000000019344,0.555113873416608
2199.99999999909,19.5472713239766,1.00000000093545,0.415821346895951
2299.999999999,18.9394260620292,1.00000000223568,0.581213850332898
2399.99999999891,18.3994782406835,1.00000000143376,0.467523001382123
2499.99999999882,17.7756290268393,1.00000000107676,0.404182948006598
2599.99999999873,17.1552629577629,1.00000000228005,0.560142722740029
2699.99999999864,16.6216188255989,1.0000000017584,0.534451972222632
2799.99999999855,16.094762063335,1.00000000090706,0.365784283352466
2899.99999999846,15.5708589023801,1.00000000143982,0.45962965060715
2999.99999999837,15.0589050672531,1.00000000182843,0.534399968669737
3099.99999999828,14.5859520266025,1.00000000214254,0.569396093734046
3199.99999999819,14.1543662083839,1.00000000121429,0.459149975315597
3299.99999999809,13.7814093159394,1.00000000102566,0.371031586860161
3399.999999998,13.4384659545129,1.00000000182097,0.489099911021716
3499.99999999791,13.0905484925424,1.00000000155701,0.532904727976362
3599.99999999782,12.7583047040121,1.00000000174942,0.514126142944551
3699.99999999773,12.4191256756287,1.00000000228953,0.564471400993674
3799.99999999764,12.1003861715961,1.00000000156657,0.526508882884688
3899.99999999755,11.8494901606533,1.00000000088988,0.391960800792452
3999.99999999746,11.6970133766246,1.00000000126541,0.401205233337497
4099.99999999738,11.5529965714506,1.00000000184591,0.505540040798634
4199.99999999775,11.3873607601853,1.00000000176238,0.538312233975322
4299.99999999811,11.2051710860619,1.00000000163646,0.543269195898499
4399.99999999848,11.0245700930957,1.00000000156671,0.543510708913957
4499.99999999884,10.8372921592133,1.00000000183798,0.533614184055815
4599.9999999992,10.6319895860504,1.00000000219372,0.557728047031076
4699.99999999957,10.4175615103749,1.00000000202484,0.580303804607688
4799.99999999993,10.2370346022291,1.00000000104472,0.480070807997749
4900.00000000029,10.1584840640333,1.00000000092842,0.39823365840768
5000.00000000066,10.1844714249831,1.00000000146623,0.422461605629541
5100.00000000102,10.2275522870529,1.0000000017421,0.485230361623566
5200.00000000139,10.2294985655589,1.0000000019145,0.543931232617601
5300.00000000175,10.2092389547469,1.00000000157289,0.552644685966013
5400.00000000211,10.1746112950739,1.0000000016575,0.571318759559673
5500.00000000248,10.1178534006226,1.00000000180012,0.568827470542996
5600.00000000284,10.0430086624737,1.00000000168705,0.552176723001078
5700.00000000321,9.95197784351256,1.00000000184337,0.582449336419075
5800.00000000357,9.85698551445868,1.0000000014461,0.569547385815266
5900.00000000393,9.76425883713638,1.00000000152056,0.584135602860463
6000.0000000043,9.65699904511303,1.00000000180415,0.58510717621654
6100.00000000466,9.53343961587662,1.00000000213379,0.588466828121863
6200.00000000502,9.39833894295782,1.00000000218112,0.593877258896747
6300.00000000539,9.26084058172594,1.00000000180382,0.576136235327165
6400.00000000575,9.1530781808348,1.00000000121585,0.502432476155018
6500.00000000612,9.13080963429413,1.00000000098067,0.433002530468899
6600.00000000648,9.22509967423624,1.00000000122666,0.424206158975336
6700.00000000684,9.39056597889569,1.00000000156808,0.458894779408558
6800.00000000721,9.55298473773929,1.00000000199096,0.502034399470123
6900.00000000757,9.68306347703196,1.00000000180066,0.530175116156886
7000.00000000793,9.78828678519413,1.00000000179179,0.565277244342459
7100.0000000083,9.86674179830565,1.0000000017983,0.576893193021704
7200.00000000866,9.92163423866158,1.00000000188871,0.59494660212291
7300.00000000903,9.94774738106526,1.00000000193122,0.603510115196335
7400.00000000939,9.9413377379921,1.00000000189381,0.604802412740555
7500.00000000975,9.91832057033823,1.00000000157923,0.588795519333707
7600.00000001012,9.89259534517965,1.00000000186582,0.587669818755128
7700.00000001048,9.86942216039219,1.00000000162693,0.572078586465457
7800.00000001084,9.84016202462097,1.00000000183189,0.560310449517345
7900.00000001121,9.80218806386296,1.00000000191414,0.58286283029668
8000.00000001157,9.76194794219038,1.00000000168238,0.58217797989053
8100.00000001194,9.72639319045511,1.00000000181691,0.58682799934773
8200.0000000123,9.68758278964269,1.00000000167484,0.594580722879197
8300.00000001266,9.64686412481233,1.00000000179894,0.586076095821389
8400.00000001303,9.60112317918007,1.00000000180914,0.579805565586074
8500.00000001339,9.54888763944417,1.00000000196664,0.583799677514792
8600.00000001376,9.4831526269163,1.00000000187324,0.615721576269036
8700.00000001412,9.40897992141362,1.00000000173962,0.616326038924591
8800.00000001448,9.33551151015213,1.00000000153597,0.606973479352098
8900.00000001485,9.26037723777107,1.00000000174445,0.615143295770747
9000.00000001521,9.1816676774611,1.00000000199503,0.611018148219404
9100.00000001557,9.09927204384753,1.00000000223892,0.621221433538644
9200.00000001594,9.01705366002275,1.00000000230209,0.617278356340254
9300.0000000163,8.93603732706339,1.00000000232322,0.602914398727171
9400.00000001667,8.84968507910427,1.00000000221922,0.594930152103882
9500.00000001703,8.75945037881278,1.00000000170308,0.562024261027739
9600.00000001739,8.68338025773394,1.00000000129626,0.51437152879549
9700.00000001776,8.65974530174586,1.00000000100244,0.463467540609589
9800.00000001812,8.72389692583674,1.00000000113949,0.441389903478832
9900.00000001848,8.88921426722377,1.00000000131381,0.442418166345933
10000.0000000188,9.12326868571055,1.00000000154303,0.461704736501437
10100.0000000192,9.3879326782232,1.00000000198356,0.480628079290935
10200.0000000196,9.63842076197717,1.00000000189022,0.510203168038221
10300.0000000199,9.87172495296031,1.00000000209914,0.536120824619891
10400.0000000203,10.0773381661708,1.00000000182865,0.545376624188959
10500.0000000207,10.2673114034446,1.00000000191377,0.565259216833943
10600.000000021,10.4361059893076,1.0000000018622,0.58664523403353
10700.0000000214,10.5850114937397,1.00000000200225,0.605016051431112
10800.0000000218,10.7064102045263,1.00000000202109,0.602958530414287
10900.0000000221,10.8029637327287,1.00000000190451,0.616343178970362
11000.0000000225,10.8729777179698,1.00000000218871,0.639729388384437
11100.0000000229,10.9244621515278,1.00000000184967,0.637695484454692
11200.0000000232,10.9601620021865,1.00000000185898,0.638073967703385
11300.0000000236,10.9865765743141,1.00000000187056,0.63274479520878
11400.0000000239,11.001716716668,1.00000000201862,0.640638972563969
11500.0000000243,11.0073307571577,1.00000000185199,0.632289939372813
11600.0000000247,11.0078771882422,1.00000000191096,0.627775910110349
11700.000000025,10.9942372031616,1.00000000193607,0.626508660637444
11800.0000000254,10.9783839999514,1.00000000169429,0.619876235834139
11900.0000000258,10.9561657372822,1.00000000203011,0.633140306556492
12000.0000000261,10.9249353212191,1.00000000186902,0.627122487068403
12100.0000000265,10.889845867029,1.00000000184208,0.636540227107809
12200.0000000269,10.8484997312583,1.00000000209244,0.646748337051154
12300.0000000272,10.801038876227,1.00000000198183,0.649202437761263
12400.0000000276,10.7520334485435,1.00000000191869,0.64280226438218
12500.0000000279,10.7092813214188,1.00000000196312,0.626399768962651
12600.0000000283,10.6763962064017,1.00000000186519,0.608233390437909
12700.0000000287,10.6523527489384,1.00000000194601,0.610345657439354
12800.000000029,10.6333784127323,1.00000000189275,0.610174030387049
12900.0000000294,10.617280182531,1.00000000195135,0.614334468182542
13000.0000000298,10.6036914885544,1.00000000197769,0.604272295604568
13100.0000000301,10.5859243881707,1.00000000205602,0.620066205966574
13200.0000000305,10.5645759739432,1.0000000019907,0.620953164024942
13300.0000000309,10.5427144315303,1.00000000199372,0.612273386564662
13400.0000000312,10.5218943204955,1.0000000018938,0.613678620305241
13500.0000000316,10.5057626670605,1.0000000017989,0.610287335412948
13600.0000000319,10.4911648583673,1.00000000183628,0.605349432405931
13700.0000000323,10.4758880107956,1.00000000206916,0.601739618102391
13800.0000000327,10.4538162847376,1.00000000203956,0.610998845554735
13900.000000033,10.4336952629659,1.00000000192599,0.610331271470929
14000.0000000334,10.415872617844,1.00000000205558,0.629111174297357
14100.0000000338,10.3960022002717,1.00000000186154,0.631767539451639
14200.0000000341,10.3797976374096,1.00000000197502,0.618609245992089
14300.0000000345,10.3625103758702,1.00000000200103,0.611159442310219
14400.0000000349,10.3422368918018,1.00000000199703,0.634971898537717
14500.0000000352,10.3248221204076,1.00000000191932,0.626484708160967
14600.0000000356,10.3071644330076,1.0000000019937,0.643096923699658
14700.0000000359,10.2833105608843,1.00000000199206,0.639860483134052
14800.0000000363,10.2623364682583,1.00000000170904,0.618227415400611
14900.0000000367,10.2462936350144,1.00000000203685,0.642222337508296
15000.000000037,10.2222470790884,1.00000000209813,0.64482376042641
15100.0000000374,10.1947448332382,1.00000000195392,0.633915278866749
15200.0000000378,10.1630492458426,1.00000000199872,0.636406248566226
15300.0000000381,10.1311672989074,1.00000000186401,0.649820687197504
15400.0000000385,10.103302758013,1.00000000186321,0.657610323029299
15500.0000000389,10.0763243923146,1.00000000203587,0.64506191561033
15600.0000000392,10.043790456087,1.00000000220275,0.647362071343252
15700.0000000396,10.0102249525455,1.0000000019801,0.636675674002992
15800.0000000399,9.98097574958693,1.00000000196982,0.63873098495515
15900.0000000403,9.94671711361954,1.00000000215373,0.646964740158817
16000.0000000407,9.9102645786858,1.00000000196187,0.635710283152202
16100.000000041,9.87612786635135,1.00000000208215,0.637088160685497
16200.0000000414,9.84268606683469,1.00000000192391,0.634987693893313
16300.0000000418,9.80873044333875,1.00000000191483,0.643843613971926
16400.0000000418,9.77284276119823,1.00000000213801,0.658154564332699
16500.0000000404,9.73341220243135,1.00000000198578,0.664448441191361
16600.0000000389,9.69242669792492,1.00000000194487,0.639750411443854
16700.0000000375,9.65054402916309,1.0000000020583,0.651605673614815
16800.000000036,9.6047880306473,1.00000000220822,0.64857849981698
16900.0000000346,9.557712316293,1.00000000226598,0.654762438703718
17000.0000000331,9.51093260252528,1.00000000193924,0.650711821327644
17100.0000000317,9.46138049302795,1.000000002363,0.664279396110181
17200.0000000302,9.4089305691297,1.00000000206471,0.656544711020173
17300.0000000287,9.35627378003142,1.00000000195359,0.635360910690984
17400.0000000273,9.30369077705972,1.00000000196632,0.64521446151435
17500.0000000258,9.25127325447859,1.00000000200924,0.659671455070327
17600.0000000244,9.19957928409209,1.00000000183454,0.648385995007787
17700.0000000229,9.14918875979059,1.00000000188782,0.647819119650522
17800.0000000215,9.10032480279735,1.0000000019394,0.649814094036775
17900.00000002,9.05469252593222,1.00000000217807,0.652264653502787
18000.0000000186,9.01354112702364,1.00000000233829,0.655519565656763
18100.0000000171,8.97812535472804,1.0000000022511,0.668832436228127
18200.0000000156,8.95269945920383,1.0000000022079,0.672070063093541
18300.0000000142,8.93371138044124,1.00000000228947,0.678182209089879
18400.0000000127,8.93094011254023,1.00000000222598,0.674341050075855
18500.0000000113,8.92945709726593,1.00000000261754,0.67363893358413
18600.0000000098,8.94437432040024,1.00000000245654,0.663294154378076
18700.0000000084,8.95003325191304,1.00000000256096,0.638358093504839
18800.0000000069,8.95947921833754,1.00000000245865,0.615172166706556
18900.0000000055,8.94932745836584,1.00000000224117,0.597865677179081
19000.000000004,8.9271942482375,1.00000000207054,0.592744884698251
19100.0000000026,8.88910005654061,1.00000000184395,0.566290668493311
19200.0000000011,8.84536877394738,1.00000000177287,0.539706064188867
19299.9999999996,8.81497812088321,1.00000000179189,0.510171934157526
19399.9999999982,8.8167295185453,1.00000000151038,0.493196328980575
19499.9999999967,8.87527012952408,1.0000000014986,0.477444913439564
19599.9999999953,9.00532389320537,1.00000000156636,0.469140310969652
19699.9999999938,9.22755680751672,1.00000000157232,0.470218663738434
19799.9999999924,9.52520161475599,1.00000000157834,0.466631584767683
19899.9999999909,9.91619955576444,1.00000000180379,0.481093491498564
19999.9999999895,10.341679521798,1.00000000190815,0.488363320018917
20099.999999988,10.8223857026585,1.00000000204495,0.500340884472429
20199.9999999865,11.2882473952705,1.00000000246468,0.506580030547794
20299.9999999851,11.7735075304924,1.00000000229776,0.522058792417478
20399.9999999836,12.2368273356005,1.00000000233412,0.526312314693763
20499.9999999822,12.6987185735893,1.00000000206868,0.536229902218524
20599.9999999807,13.1501597062011,1.00000000239553,0.542785384792969
20699.9999999793,13.5769798977571,1.0000000023602,0.551983422154052
20799.9999999778,14.0006982125787,1.00000000248664,0.565759230765962
20899.9999999764,14.3891660698693,1.00000000233166,0.572009901399881
20999.9999999749,14.788927132408,1.00000000230158,0.577946489916632
21099.9999999734,15.1754905589831,1.0000000023438,0.596253349964162
21199.999999972,15.5605050147329,1.00000000192612,0.587524254028229
21299.9999999705,15.9487918186491,1.00000000248731,0.605331371057001
21399.9999999691,16.3004657576748,1.00000000256582,0.618220343737041
21499.9999999676,16.6449124214752,1.00000000238612,0.625100783923884
21599.9999999662,16.9697578445175,1.00000000235492,0.637550994839541
21699.9999999647,17.2883496938015,1.00000000253459,0.640279902482008
21799.9999999633,17.5838149790109,1.00000000257247,0.646556170048354
21899.9999999618,17.8704870494827,1.00000000259486,0.66530010889268
21999.9999999603,18.1337075036561,1.00000000269189,0.668821030700824
22099.9999999589,18.3748202336442,1.00000000238428,0.664799454547236
22199.9999999574,18.6091826747631,1.0000000024073,0.66437024325196
22299.999999956,18.836143537986,1.0000000023638,0.670003944453353
22399.9999999545,19.0714159021853,1.00000000224026,0.670605637143286
22499.9999999531,19.2838108947177,1.00000000248485,0.667980544681086
22599.9999999516,19.4862485902477,1.00000000256988,0.665268042348024
22699.9999999502,19.6760683278586,1.00000000228601,0.669469189799119
22799.9999999487,19.8644472008567,1.00000000241939,0.669642332873629
22899.9999999473,20.0470834494817,1.00000000246455,0.67478625738884
22999.9999999458,20.2176036932087,1.00000000238989,0.672211371899809
23099.9999999443,20.3934864227442,1.0000000025339,0.66416383242107
23199.9999999429,20.5611062412457,1.00000000256809,0.663624755461809
23299.9999999414,20.7215506724338,1.00000000316394,0.645043049059857
23399.99999994,20.8643031989942,1.00000000281568,0.665433115343751
23499.9999999385,21.0031559139836,1.00000000222502,0.666592587138081
23599.9999999371,21.1494750368683,1.00000000255836,0.680766252462964
23699.9999999356,21.2932992738867,1.00000000262475,0.662845459551922
23799.9999999342,21.442119688741,1.00000000239789,0.671764991273142
23899.9999999327,21.5803234960768,1.00000000250266,0.674799306314334
23999.9999999312,21.7110294989206,1.0000000025156,0.675746349541666
24099.9999999298,21.8285168505349,1.00000000245232,0.682610075806193
24199.9999999283,21.9458148438325,1.00000000257995,0.678579772384311
24299.9999999269,22.0632304643342,1.00000000233291,0.669341924143164
24399.9999999254,22.1853329745557,1.00000000287497,0.646635943034679
24499.999999924,22.3122844512975,1.00000000256367,0.651675395107066
24599.9999999225,22.4313108498062,1.00000000289909,0.659020742323169
24699.9999999211,22.5362854620121,1.00000000269021,0.664201183486581
24799.9999999196,22.6414083926008,1.00000000255602,0.651408434455797
24899.9999999181,22.7600547906676,1.0000000021426,0.653816466798238
24999.9999999167,22.8859522697092,1.00000000260238,0.676204169937669
25099.9999999152,23.0026301434713,1.00000000259427,0.665300290955006
25199.9999999138,23.1101497398258,1.00000000268487,0.667667251176636
25299.9999999123,23.2210612390464,1.00000000230925,0.671248773039187
25399.9999999109,23.3453912920491,1.0000000025775,0.677827304473325
25499.9999999094,23.4728313585499,1.00000000276542,0.683778326896754
25599.999999908,23.5988628741315,1.00000000290253,0.682064936810527
25699.9999999065,23.7338953582126,1.0000000026175,0.654686218858224
25799.9999999051,23.8814890459058,1.00000000269531,0.644975530585848
25899.9999999036,24.0204251491857,1.00000000285508,0.651507348509014
25999.9999999021,24.1395351391125,1.00000000249762,0.634112971445
26099.9999999007,24.2520990564202,1.00000000288083,0.652089510133217
26199.9999998992,24.3704115307302,1.00000000240997,0.636600761547206
26299.9999998978,24.4976740029833,1.0000000026427,0.667636891567727
26399.9999998963,24.6194545950238,1.0000000027797,0.672803301846479
26499.9999998949,24.7324025950859,1.00000000281383,0.676129454529312
26599.9999998934,24.8427095885094,1.00000000260614,0.662601713351647
26699.999999892,24.9706341597603,1.00000000267604,0.63716823855475
26799.9999998905,25.1087039340039,1.00000000290097,0.655528579240916
26899.999999889,25.2399851235825,1.00000000282974,0.658760922129356
26999.9999998876,25.3646034446018,1.00000000316131,0.662643308329167
27099.9999998861,25.4929566510086,1.00000000268288,0.658988987182338
27199.9999998847,25.6216059421257,1.0000000029628,0.6674329473097
27299.9999998832,25.7432491687861,1.00000000280979,0.668057400507229
27399.9999998818,25.8656415868113,1.00000000272775,0.659871120879937
27499.9999998803,25.9892873006316,1.00000000289311,0.668286408087459
27599.9999998789,26.0993771519242,1.00000000285896,0.664814240609577
27699.9999998774,26.1995077581909,1.00000000309237,0.683948042238045
27799.9999998759,26.2949305499082,1.00000000262552,0.677442630065756
27899.9999998745,26.3942893608299,1.00000000298064,0.675536295734968
27999.999999873,26.5094711798935,1.00000000290232,0.67473293728064
28099.9999998716,26.6336358799488,1.00000000307727,0.68170168651764
28199.9999998701,26.7644960381152,1.00000000243543,0.680616224287833
28299.9999998687,26.9094152524819,1.00000000307976,0.659907889957741
28399.9999998672,27.0705883315901,1.0000000027203,0.662191330631859
28499.9999998658,27.2439362540601,1.00000000313248,0.668007475814827
28599.9999998643,27.4170279053816,1.00000000266968,0.655480855139295
28699.9999998629,27.5922971440291,1.00000000346606,0.652613406207267
28799.9999998614,27.7600843866906,1.0000000028388,0.657275501157887
28899.9999998599,27.9303333291573,1.00000000277907,0.668435585911764
28999.9999998585,28.1007812115488,1.00000000325553,0.674658954664307
29099.999999857,28.2769827670771,1.00000000358774,0.667842211058471
