Time,AGPnorm,Energy,Entropy
0,0,1,4.53818754707085e-19
99.9999999999986,0.00311282187240443,0.999999999998723,0.0104311676712295
199.999999999993,0.00906340693873737,1.00000000000022,0.0304620055975629
300,0.0190506964270876,0.999999999998772,0.0595192595031216
400.000000000022,0.0300229414277616,1.00000000000064,0.0955681563602901
500.000000000045,0.0429222987520973,1.0000000000001,0.141230706639464
600.000000000068,0.0565987635589724,1.00000000001516,0.199552556424436
700.000000000091,0.070203333571377,1.00000000010696,0.274819865358278
800.000000000113,0.135143244040695,1.00000000033932,0.357769199018445
900.000000000136,0.353703544111953,1.0000000006114,0.430945621420252
1000.00000000016,1.01665328494789,1.00000000092057,0.484031947801353
1100.0000000001,2.33423611836459,1.00000000117722,0.519544287594297
1200,4.49455116106883,1.00000000129755,0.540100569484007
1299.99999999991,7.46596108335794,1.00000000122994,0.552636218719801
1399.99999999982,11.1444264405941,1.0000000013297,0.555802420131389
1499.99999999973,15.2876835749519,1.00000000123232,0.556258522661272
1599.99999999964,19.6913912328817,1.0000000012234,0.553362636089319
1699.99999999955,24.0907017296067,1.00000000112129,0.547611123357434
1799.99999999946,28.3318140066994,1.00000000113262,0.539176143709739
1899.99999999937,32.2157069497525,1.00000000096099,0.534053599700019
1999.99999999928,35.6760872290446,1.00000000095352,0.524210378227113
2099.99999999919,38.5994942880885,1.00000000087931,0.516379259825296
2199.99999999909,41.000491053229,1.00000000087887,0.519911649192077
2299.999999999,42.8396761485569,1.00000000081814,0.491235372191913
2399.99999999891,44.1341469965392,1.00000000081777,0.508659445886166
2499.99999999882,45.0219388977246,1.00000000081915,0.520577447132712
2599.99999999873,45.4366973513306,1.00000000058717,0.452482175971687
2699.99999999864,45.4059831519389,1.0000000007115,0.499399527973232
2799.99999999855,45.2239650685829,1.00000000093267,0.551507557490681
2899.99999999846,44.8738941594563,1.00000000063382,0.453023284142141
2999.99999999837,44.1576711630445,1.00000000040838,0.398311574735733
3099.99999999828,43.298584795144,1.00000000090185,0.52452023403095
3199.99999999819,42.5418691681111,1.00000000112738,0.568729214139877
3299.99999999809,41.8182407387658,1.00000000069388,0.464538387125557
3399.999999998,40.9150548379545,1.00000000029091,0.316609334100534
3499.99999999791,39.8863671951524,1.00000000063882,0.414412177291705
3599.99999999782,38.8920067921079,1.00000000113434,0.529555123621506
3699.99999999773,38.0246035085566,1.00000000120485,0.562271884650494
3799.99999999764,37.258651758524,1.0000000008372,0.518947188904782
3899.99999999755,36.4643572151833,1.00000000050507,0.366281530721488
3999.99999999746,35.6166978521669,1.00000000032416,0.284645553391801
4099.99999999738,34.7865256556452,1.0000000005818,0.392711153726373
4199.99999999775,33.976627237695,1.00000000092284,0.510956718656758
4299.99999999811,33.1935097436569,1.0000000008877,0.507490867667622
4399.99999999848,32.4603679908867,1.00000000100003,0.531029184067688
4499.99999999884,31.7902884009549,1.00000000098765,0.561962303059268
4599.9999999992,31.150512241763,1.00000000065378,0.478710526911901
4699.99999999957,30.5199780104504,1.0000000003361,0.333757930562095
4799.99999999993,29.960260358815,1.00000000035122,0.282178420836441
4900.00000000029,29.5018340595744,1.00000000053934,0.361742556335207
5000.00000000066,29.07705142782,1.0000000008801,0.465902447322383
5100.00000000102,28.6121974890012,1.00000000103469,0.538059248144983
5200.00000000139,28.1260611076116,1.00000000074008,0.52265933457814
5300.00000000175,27.6566313232081,1.00000000061574,0.456471425381746
5400.00000000211,27.1872840649549,1.00000000095585,0.478196154172726
5500.00000000248,26.702147053593,1.00000000114574,0.540567520916589
5600.00000000284,26.2289514491923,1.00000000113944,0.570509488850694
5700.00000000321,25.7782251676104,1.00000000082323,0.532235618125578
5800.00000000357,25.3516722518343,1.00000000052631,0.422485068985848
5900.00000000393,25.0021959859799,1.00000000029923,0.317380830938151
6000.0000000043,24.8038589911403,1.00000000031452,0.279793917223773
6100.00000000466,24.7553447945973,1.00000000054206,0.335032827905395
6200.00000000502,24.7685777239001,1.0000000007724,0.428393514251679
6300.00000000539,24.7541614717528,1.00000000082853,0.500154064132949
6400.00000000575,24.6731825833196,1.00000000091927,0.518828729985767
6500.00000000612,24.5221449987275,1.00000000088231,0.51767031790002
6600.00000000648,24.3091353656219,1.00000000093588,0.53994704376746
6700.00000000684,24.0659328937555,1.00000000081417,0.536080194146252
6800.00000000721,23.8343118668509,1.00000000060237,0.499125747546172
6900.00000000757,23.6275045282189,1.00000000057636,0.485791061248114
7000.00000000793,23.4192001906697,1.00000000078136,0.509698408969708
7100.0000000083,23.1882533482933,1.00000000076437,0.511094236096227
7200.00000000866,22.9321547186185,1.00000000090557,0.512633095072906
7300.00000000903,22.6481978214708,1.00000000108679,0.531526259181621
7400.00000000939,22.3502204512569,1.00000000112489,0.562539830777057
7500.00000000975,22.0568697167955,1.00000000100809,0.573442151671866
7600.00000001012,21.7716437819951,1.00000000080311,0.539930234776012
7700.00000001048,21.5017598853864,1.00000000054241,0.462701686317392
7800.00000001084,21.290634160245,1.00000000034895,0.374775077882332
7900.00000001121,21.2074957953055,1.00000000026932,0.314527052769583
8000.00000001157,21.3087263917539,1.00000000032227,0.291532173957274
8100.00000001194,21.5897103613273,1.00000000048163,0.323716214227047
8200.0000000123,21.9789530098303,1.00000000068488,0.386455682923718
8300.00000001266,22.3837977709724,1.00000000081596,0.445408875433618
8400.00000001303,22.7215961710274,1.00000000089149,0.498887904074033
8500.00000001339,22.9740518713514,1.00000000083512,0.522617783637317
8600.00000001376,23.154785234064,1.00000000082833,0.532630900463682
8700.00000001412,23.2638189760985,1.0000000008504,0.553995584184295
8800.00000001448,23.305193194617,1.00000000081712,0.565544720159069
8900.00000001485,23.3025061233085,1.00000000070069,0.545438907822275
9000.00000001521,23.272397087171,1.00000000077953,0.528205655825085
9100.00000001557,23.2113129769121,1.00000000079748,0.524096642938996
9200.00000001594,23.1126539080743,1.00000000094906,0.53521535382059
9300.0000000163,22.9850277833491,1.00000000079044,0.539279838096054
9400.00000001667,22.8592014904962,1.00000000060597,0.52603160643126
9500.00000001703,22.7567374656882,1.0000000006212,0.506701032748833
9600.00000001739,22.6658410462351,1.00000000074497,0.503797364942528
9700.00000001776,22.571582283764,1.00000000077414,0.507544106431915
9800.00000001812,22.474069912117,1.00000000079756,0.514445913873847
9900.00000001848,22.375922128724,1.00000000078113,0.51890643793565
10000.0000000188,22.274236307776,1.00000000074676,0.527342303618202
10100.0000000192,22.1600220385017,1.00000000085398,0.540139681262722
10200.0000000196,22.0305644312474,1.0000000007424,0.552583228830803
10300.0000000199,21.8951443803224,1.0000000007316,0.557737940838814
10400.0000000203,21.7605149330035,1.00000000066723,0.552565956392327
10500.0000000207,21.6261555235065,1.00000000066986,0.548179668366707
10600.000000021,21.4823130955263,1.00000000080334,0.55429929104765
10700.0000000214,21.3231392354071,1.00000000080059,0.555532284339206
10800.0000000218,21.1496935305667,1.00000000088037,0.558978493953466
10900.0000000221,20.967577710171,1.0000000009958,0.563278661785904
11000.0000000225,20.7866037980911,1.00000000111087,0.567062728865775
11100.0000000229,20.6171713152493,1.00000000111502,0.572908531071475
11200.0000000232,20.46370715323,1.00000000106159,0.580679466954624
11300.0000000236,20.3185334025626,1.00000000088876,0.574210270114339
11400.0000000239,20.1674525129164,1.00000000075146,0.548596662058158
11500.0000000243,20.0026551117454,1.00000000060429,0.501543234908834
11600.0000000247,19.8379042587361,1.00000000041558,0.441344822678843
11700.000000025,19.7107098082295,1.00000000035016,0.387851121700045
11800.0000000254,19.6719133118162,1.00000000027716,0.337944483485629
11900.0000000258,19.7766413200369,1.00000000025449,0.311367586578278
12000.0000000261,20.058236322349,1.00000000035434,0.310685195242689
12100.0000000265,20.524345543298,1.00000000038557,0.318760850769496
12200.0000000269,21.147653286366,1.00000000060727,0.348578747771714
12300.0000000272,21.8514453609647,1.00000000071528,0.391654051283761
12400.0000000276,22.5804108496353,1.00000000077505,0.429425769265466
12500.0000000279,23.2764357708609,1.00000000089021,0.466565348912104
12600.0000000283,23.8991635709442,1.00000000091119,0.499707053490689
12700.0000000287,24.4446770738302,1.0000000008505,0.519648693555933
12800.000000029,24.9161673796839,1.00000000087436,0.530108608824049
12900.0000000294,25.3167666520794,1.00000000080053,0.549942773165258
13000.0000000298,25.6502262291353,1.00000000088114,0.571081807041112
13100.0000000301,25.9233097550351,1.00000000081448,0.573131680200049
13200.0000000305,26.1403603077529,1.00000000084471,0.568777954403654
13300.0000000309,26.3094366823093,1.00000000082008,0.569052820134182
13400.0000000312,26.436181660588,1.00000000077564,0.580518420272575
13500.0000000316,26.5150864193481,1.00000000087547,0.593900965072348
13600.0000000319,26.5534712109082,1.0000000008121,0.583942392916204
13700.0000000323,26.5656806199772,1.00000000076479,0.570873439266056
13800.0000000327,26.5529334616882,1.00000000083771,0.558420036436559
13900.000000033,26.5208608985062,1.00000000075463,0.549742217467357
14000.0000000334,26.4828874985809,1.00000000074553,0.541783183674192
14100.0000000338,26.4348835383669,1.0000000008328,0.556867010862559
14200.0000000341,26.3694132514409,1.00000000079313,0.555314915838045
14300.0000000345,26.2914166916434,1.00000000078013,0.567031726048894
14400.0000000349,26.2030464926287,1.00000000077957,0.574854056878603
14500.0000000352,26.1031104412022,1.00000000082451,0.57217576274494
14600.0000000356,25.9949715306395,1.00000000076696,0.570482408582689
14700.0000000359,25.8824550576933,1.00000000076035,0.571845172077749
14800.0000000363,25.7694828363236,1.00000000072236,0.561561268706776
14900.0000000367,25.6623971686932,1.00000000066591,0.552095792712711
15000.000000037,25.5629704704174,1.00000000065675,0.545160150999141
15100.0000000374,25.4641149133608,1.00000000081912,0.545198409663057
15200.0000000378,25.3605164887279,1.00000000082105,0.551532385019778
15300.0000000381,25.2531724520373,1.00000000086984,0.556464534834493
15400.0000000385,25.1379314307301,1.00000000086502,0.565387884494659
15500.0000000389,25.01599066085,1.00000000081435,0.568049982392279
15600.0000000392,24.8954574898296,1.00000000073564,0.56423068523198
15700.0000000396,24.7835053999108,1.00000000067222,0.558414331445987
15800.0000000399,24.6839977511992,1.00000000063092,0.548582684488316
15900.0000000403,24.5972725849122,1.00000000069553,0.542417088250226
16000.0000000407,24.5234253425965,1.00000000068161,0.535096590464378
16100.000000041,24.4635847996439,1.00000000075316,0.51948048771002
16200.0000000414,24.4075642169547,1.0000000008092,0.509472315475179
16300.0000000418,24.3489190161054,1.00000000082753,0.514702796304533
16400.0000000418,24.2945607980123,1.00000000068163,0.514533517952304
16500.0000000404,24.2496979736148,1.00000000068427,0.52341509205521
16600.0000000389,24.2089654127047,1.00000000076443,0.547672169996666
16700.0000000375,24.166894492382,1.0000000007026,0.567166482483596
16800.000000036,24.1205652949046,1.00000000082607,0.57469064390243
16900.0000000346,24.063517960394,1.00000000083058,0.565638032919209
17000.0000000331,23.9975688480684,1.00000000088214,0.556809144029453
17100.0000000317,23.9316828856873,1.000000000688,0.552433038774929
17200.0000000302,23.8717297931827,1.00000000071795,0.560893197950433
17300.0000000287,23.8106074836916,1.00000000084252,0.570310330652619
17400.0000000273,23.7432433284238,1.00000000079142,0.582976125256075
17500.0000000258,23.6763556079875,1.00000000072592,0.583661216218499
17600.0000000244,23.6089215790359,1.00000000080411,0.590372229397566
17700.0000000229,23.5326714528604,1.0000000008456,0.594505017819091
17800.0000000215,23.4492566023235,1.00000000079462,0.590061644486464
17900.00000002,23.3608884879093,1.00000000085412,0.588560939519085
18000.0000000186,23.2669874715804,1.00000000083109,0.598496505512216
18100.0000000171,23.1707353366864,1.00000000075441,0.599116958504176
18200.0000000156,23.0792321410134,1.0000000006351,0.585185150670223
18300.0000000142,22.9920482812751,1.00000000071247,0.580415424059332
18400.0000000127,22.9031164090027,1.0000000008332,0.581042426111068
18500.0000000113,22.8123975302655,1.00000000076143,0.569138528407044
18600.0000000098,22.7233217904341,1.0000000006832,0.571557487333746
18700.0000000084,22.6375327166605,1.00000000070436,0.582421173765515
18800.0000000069,22.5514989860247,1.0000000007764,0.586510044195513
18900.0000000055,22.4650718754319,1.00000000073043,0.584351959235233
19000.000000004,22.3796726845318,1.00000000071238,0.584153829586918
19100.0000000026,22.2957354569276,1.0000000007321,0.584958456295506
19200.0000000011,22.2104154550593,1.00000000081752,0.572176319194304
19299.9999999996,22.1203778039965,1.00000000081677,0.587425318397568
19399.9999999982,22.0265015425375,1.00000000083904,0.584155400238215
19499.9999999967,21.9300744891149,1.00000000076692,0.579124213189982
19599.9999999953,21.8321265714613,1.00000000084054,0.581181055860091
19699.9999999938,21.7320636732349,1.00000000080433,0.591978084521288
19799.9999999924,21.629877586578,1.00000000085863,0.610065678833925
19899.9999999909,21.5261926554835,1.00000000078925,0.610415111811767
19999.9999999895,21.4229914781132,1.00000000071983,0.599608982346308
20099.999999988,21.3217327238422,1.0000000006742,0.591076278222812
20199.9999999865,21.2202325101124,1.0000000008108,0.60441641760942
20299.9999999851,21.1171727014079,1.00000000083563,0.614488753892088
20399.9999999836,21.0147762461498,1.00000000079089,0.614853768757035
20499.9999999822,20.9132146783632,1.00000000064935,0.586681582922333
20599.9999999807,20.8123639534851,1.00000000070603,0.588382122053527
20699.9999999793,20.712373246883,1.00000000074455,0.600377966628766
20799.9999999778,20.6134208775726,1.00000000066416,0.599504557864668
20899.9999999764,20.5154639311704,1.00000000065529,0.595350103234253
20999.9999999749,20.4187754621306,1.00000000068734,0.595014705684598
21099.9999999734,20.3240939973181,1.00000000069551,0.601220451805061
21199.999999972,20.2321868171649,1.00000000079053,0.605323261634791
21299.9999999705,20.1452814554809,1.00000000079668,0.597304256304241
21399.9999999691,20.0656375958842,1.0000000008398,0.604143595534905
21499.9999999676,19.9961613935563,1.00000000086284,0.614416270178391
21599.9999999662,19.9429617411705,1.00000000091989,0.610743876768108
21699.9999999647,19.9076780763233,1.00000000105242,0.615836859772135
21799.9999999633,19.9007771134985,1.0000000009643,0.620874301525165
21899.9999999618,19.9196717086578,1.00000000104453,0.622068715212441
21999.9999999603,19.9805079814224,1.000000001038,0.628106284399752
22099.9999999589,20.0732207650914,1.00000000116465,0.629827019981098
22199.9999999574,20.2115485815258,1.00000000100647,0.62121289616472
22299.999999956,20.380956343413,1.0000000011072,0.616334446046513
22399.9999999545,20.5912831998295,1.00000000112952,0.606695590486927
22499.9999999531,20.8218084781058,1.00000000103386,0.596723713571021
22599.9999999516,21.0603263896521,1.00000000095208,0.590692451410599
22699.9999999502,21.2839653172779,1.00000000084979,0.58007341270742
22799.9999999487,21.4698907165541,1.00000000080916,0.563720436533025
22899.9999999473,21.6061008011626,1.00000000063634,0.538810872264691
22999.9999999458,21.6827924306925,1.00000000056059,0.510749596010512
23099.9999999443,21.699482069339,1.00000000050756,0.481439214421677
23199.9999999429,21.6698991914034,1.00000000050547,0.451485486360565
23299.9999999414,21.6013399072195,1.00000000040241,0.420226238560395
23399.99999994,21.5279248150345,1.00000000033107,0.393125293037657
23499.9999999385,21.46582508011,1.00000000030283,0.367308034778009
23599.9999999371,21.4564150143703,1.00000000027688,0.344684393492687
23699.9999999356,21.5256028965119,1.00000000029668,0.327046510057606
23799.9999999342,21.7015966187056,1.00000000030637,0.316262846071332
23899.9999999327,22.0167949166322,1.00000000031826,0.312885422231372
23999.9999999312,22.4790583352439,1.00000000031837,0.314295991377271
24099.9999999298,23.108387002734,1.0000000003818,0.322072681497557
24199.9999999283,23.8973302535816,1.00000000044656,0.33459064720595
24299.9999999269,24.8250809844019,1.00000000048713,0.344517492690581
24399.9999999254,25.8870226439623,1.00000000066005,0.362018491228897
24499.999999924,27.0136128680505,1.00000000069351,0.38150113546855
24599.9999999225,28.2320718537713,1.00000000074182,0.396316160300536
24699.9999999211,29.4476273500405,1.00000000088663,0.417806321403188
24799.9999999196,30.6947682505336,1.00000000082536,0.434202172725528
24899.9999999181,31.9024588460344,1.00000000094262,0.446108405211299
24999.9999999167,33.0790823499635,1.00000000088358,0.457570804338851
25099.9999999152,34.2014984125061,1.00000000092752,0.480837064364702
25199.9999999138,35.2627141963266,1.00000000089447,0.487150631947545
25299.9999999123,36.2673218735853,1.00000000095121,0.499004830046481
25399.9999999109,37.1911097996777,1.0000000008514,0.510332338698654
25499.9999999094,38.0648907547741,1.00000000089806,0.527124445254996
25599.999999908,38.8700298566304,1.00000000083647,0.533544388452933
25699.9999999065,39.6251736029758,1.00000000083777,0.539990197926272
25799.9999999051,40.3198004317829,1.00000000087807,0.550156513419452
25899.9999999036,40.9574962464495,1.00000000084175,0.55749500114251
25999.9999999021,41.5527323865529,1.00000000082906,0.570813656895515
26099.9999999007,42.0910504961573,1.00000000085834,0.578654621866373
26199.9999998992,42.5973980984659,1.00000000079064,0.579473698699442
26299.9999998978,43.0540018034323,1.00000000082784,0.577799316652198
26399.9999998963,43.4724706724796,1.00000000090353,0.593669590441103
26499.9999998949,43.8324214378024,1.00000000087167,0.609079820054411
26599.9999998934,44.1516536662219,1.00000000083172,0.611063768735732
26699.999999892,44.439295741138,1.00000000079513,0.603172062375797
26799.9999998905,44.6951158139691,1.00000000087103,0.594199784069764
26899.999999889,44.9186048034828,1.00000000084447,0.606125659617019
26999.9999998876,45.0939129289641,1.00000000097495,0.617264835879076
27099.9999998861,45.2352506613737,1.00000000085692,0.629348617714038
27199.9999998847,45.3440349061317,1.00000000084402,0.624085350399572
27299.9999998832,45.4420159505576,1.00000000075653,0.604051697812282
27399.9999998818,45.5241379729522,1.0000000007654,0.593272747872035
27499.9999998803,45.5859682984153,1.00000000090853,0.600158972801525
27599.9999998789,45.6162892184823,1.00000000100677,0.615484388747469
27699.9999998774,45.6184255463078,1.00000000084317,0.609977703435372
27799.9999998759,45.6086296744154,1.00000000084694,0.609414346675174
27899.9999998745,45.5915528348701,1.00000000069854,0.598986594059536
27999.999999873,45.5722560103187,1.00000000076025,0.598876358985097
28099.9999998716,45.5430054315393,1.00000000081907,0.596121484657165
28199.9999998701,45.502451329964,1.00000000095569,0.584865778685034
28299.9999998687,45.449147776411,1.00000000083371,0.573782985610513
28399.9999998672,45.3880663998995,1.00000000090074,0.578280430775541
28499.9999998658,45.3189144087225,1.00000000085203,0.601602353425874
28599.9999998643,45.2416790751208,1.00000000085881,0.606453685381175
28699.9999998629,45.1614551120478,1.00000000077612,0.593365476740213
28799.9999998614,45.0842439003418,1.00000000070931,0.566603334418991
28899.9999998599,45.0127837670921,1.00000000080166,0.577575280301079
28999.9999998585,44.930559658493,1.00000000098573,0.585644916565018
