Time,AGPnorm,Energy,Entropy
0,0,1,-7.44796662136979e-17
99.9999999999986,0.00117972124493379,0.999999999999843,0.00411974806670491
199.999999999993,0.00844817824482769,1.00000000000095,0.0120672563020368
300,0.0172341542647205,1.00000000000148,0.0223691650723731
400.000000000022,0.0262510409165018,1.00000000000091,0.0352535566802668
500.000000000045,0.0368805489432552,0.999999999999268,0.0508325803652444
600.000000000068,0.0511562942724829,1.00000000000028,0.0687517364926359
700.000000000091,0.0655520969910732,1.00000000000147,0.0892970185503451
800.000000000113,0.0786812259252719,1.00000000000161,0.112352667894265
900.000000000136,0.095231495515294,1.00000000000056,0.139875128133345
1000.00000000016,0.109458324676733,1.00000000000303,0.172407822675745
1100.0000000001,0.126732865418155,1.00000000003195,0.213378027485222
1200,0.14420849447486,1.00000000013359,0.261460185001004
1299.99999999991,0.173606938430412,1.00000000031874,0.312174992012612
1399.99999999982,0.227619870805286,1.00000000059903,0.359221382555625
1499.99999999973,0.382803489911709,1.00000000086742,0.400184809410113
1599.99999999964,0.726853151340057,1.00000000109846,0.436144524630855
1699.99999999955,1.32741299883111,1.00000000128417,0.466506423468882
1799.99999999946,2.26608951495486,1.00000000153781,0.492043788391096
1899.99999999937,3.61074314865933,1.00000000165223,0.512491821750753
1999.99999999928,5.38085266674549,1.00000000165473,0.530227625247093
2099.99999999919,7.57679210405521,1.00000000186297,0.544191705172087
2199.99999999909,10.1879404130224,1.00000000176418,0.555830832059731
2299.999999999,13.1756391877272,1.00000000180333,0.563470256213056
2399.99999999891,16.4411545706432,1.0000000018731,0.570946644784033
2499.99999999882,19.9168674364111,1.00000000170061,0.575895793074874
2599.99999999873,23.5551119561226,1.00000000180064,0.579472235118068
2699.99999999864,27.2950614604504,1.00000000179143,0.580296914299216
2799.99999999855,31.0387616032552,1.00000000163595,0.581583193520051
2899.99999999846,34.701178192414,1.0000000016166,0.582188884554293
2999.99999999837,38.2572872328191,1.00000000151673,0.581892964358723
3099.99999999828,41.672815881326,1.00000000150304,0.580160017733626
3199.99999999819,44.8987393828322,1.00000000145835,0.579347941548405
3299.99999999809,47.8811754120386,1.00000000142302,0.578134729142831
3399.999999998,50.6024802389948,1.00000000135488,0.574152309516238
3499.99999999791,53.0726127696575,1.00000000131033,0.571963097566032
3599.99999999782,55.2766221399765,1.00000000131023,0.571942649954557
3699.99999999773,57.2004870439919,1.00000000122104,0.568765621243924
3799.99999999764,58.8402038817576,1.000000001189,0.565714067207774
3899.99999999755,60.2023987602983,1.00000000114849,0.568143918378419
3999.99999999746,61.3104651386431,1.0000000011183,0.561721116056144
4099.99999999738,62.1702524822766,1.00000000108687,0.562586014890975
4199.99999999775,62.7977263244795,1.00000000103821,0.562588015069156
4299.99999999811,63.1912357770288,1.00000000093416,0.554711019107273
4399.99999999848,63.3951387843579,1.00000000108955,0.56877792513484
4499.99999999884,63.4270752361537,1.00000000087899,0.544251451613348
4599.9999999992,63.2872800716084,1.00000000107293,0.565262453628269
4699.99999999957,63.0497274548737,1.00000000100731,0.556344614695513
4799.99999999993,62.6636176661078,1.00000000074201,0.527381938798215
4900.00000000029,62.1838382645141,1.00000000120632,0.57691158601347
5000.00000000066,61.6705387706365,1.0000000009586,0.541754252587349
5100.00000000102,61.048824761862,1.00000000075913,0.510730880033227
5200.00000000139,60.3763466748747,1.00000000129344,0.577860962339619
5300.00000000175,59.7146142686321,1.00000000112465,0.543891791838856
5400.00000000211,58.9878522135474,1.00000000074268,0.493106406702483
5500.00000000248,58.209726956569,1.0000000011132,0.546496824484299
5600.00000000284,57.4664971004774,1.00000000138487,0.571509860680778
5700.00000000321,56.7260515384014,1.00000000085416,0.494759582884765
5800.00000000357,55.9344591469176,1.00000000074722,0.477898541847957
5900.00000000393,55.1346905509514,1.00000000131212,0.549075826415407
6000.0000000043,54.379558527927,1.00000000139202,0.557601717279863
6100.00000000466,53.638401246778,1.00000000090636,0.483858096420318
6200.00000000502,52.8735609045007,1.00000000076524,0.465291878709888
6300.00000000539,52.1002122535461,1.00000000107704,0.50975167572519
6400.00000000575,51.3563175999876,1.00000000141886,0.556216650845547
6500.00000000612,50.6443558909224,1.00000000118982,0.517258312153037
6600.00000000648,49.9385771869082,1.00000000080391,0.466630583994399
6700.00000000684,49.230721930931,1.0000000008722,0.474769959110905
6800.00000000721,48.5286187302868,1.00000000109724,0.501774203803059
6900.00000000757,47.8471617188231,1.00000000124867,0.535140004018544
7000.00000000793,47.1892628092548,1.00000000124594,0.527455258411512
7100.0000000083,46.5470775005007,1.00000000087808,0.48037089332269
7200.00000000866,45.9173773025553,1.00000000076458,0.471041694354693
7300.00000000903,45.3007228256164,1.00000000102125,0.499248061609236
7400.00000000939,44.6977953221158,1.00000000102294,0.501013500827894
7500.00000000975,44.1108801206155,1.00000000111901,0.517478936644259
7600.00000001012,43.5387139349726,1.0000000012025,0.529855860626493
7700.00000001048,42.9812202764995,1.00000000099125,0.5057859788327
7800.00000001084,42.4428677316505,1.00000000077607,0.468730988544024
7900.00000001121,41.9257076996238,1.00000000094732,0.490733475004651
8000.00000001157,41.4227927095197,1.00000000116453,0.515964753538393
8100.00000001194,40.9338852939969,1.000000000927,0.50250208688055
8200.0000000123,40.4628318863592,1.00000000096766,0.491667267126199
8300.00000001266,40.0039198125572,1.00000000116628,0.522147096201198
8400.00000001303,39.5508749765212,1.00000000123697,0.523368771488703
8500.00000001339,39.1099499156168,1.00000000095523,0.497898765174184
8600.00000001376,38.6931031668688,1.00000000079888,0.475551995063785
8700.00000001412,38.2981467852587,1.00000000096499,0.493218604604933
8800.00000001448,37.9123340371251,1.0000000012635,0.508678978681905
8900.00000001485,37.5319475854205,1.00000000107052,0.52096676802548
9000.00000001521,37.1686247366872,1.00000000085639,0.492581511919141
9100.00000001557,36.8225833061801,1.0000000009824,0.490958092017831
9200.00000001594,36.4831031219939,1.00000000117759,0.525600751067082
9300.0000000163,36.1446210342152,1.00000000128256,0.530391458073848
9400.00000001667,35.8104921253796,1.00000000106796,0.510678651526417
9500.00000001703,35.4951050883786,1.00000000095982,0.493112514077953
9600.00000001739,35.2018528957022,1.00000000096167,0.492940842630877
9700.00000001776,34.9244732223656,1.00000000098392,0.504918832148772
9800.00000001812,34.6547166370868,1.00000000113264,0.512129185107256
9900.00000001848,34.3863873422998,1.00000000113758,0.508513177402927
10000.0000000188,34.1240102879875,1.00000000102921,0.523007759626646
10100.0000000192,33.8743332277123,1.00000000099012,0.515606969284862
10200.0000000196,33.6340715607314,1.00000000101218,0.510671483984543
10300.0000000199,33.3980463488472,1.0000000010991,0.525182359240005
10400.0000000203,33.1651764593584,1.00000000111764,0.536013683997334
10500.0000000207,32.9347854303992,1.00000000115418,0.5299493168415
10600.000000021,32.7102644147806,1.00000000096222,0.517644847452992
10700.0000000214,32.5042432299354,1.00000000089063,0.504100694280736
10800.0000000218,32.3183919347475,1.00000000097737,0.504458897992584
10900.0000000221,32.140125217266,1.00000000114032,0.521994441943636
11000.0000000225,31.9683979452165,1.00000000102087,0.51397729534337
11100.0000000229,31.8075900484996,1.00000000098745,0.511577400252539
11200.0000000232,31.6545433478409,1.00000000102635,0.513881598078794
11300.0000000236,31.5027565887989,1.00000000109431,0.526247217790856
11400.0000000239,31.3445760877869,1.00000000119524,0.546993522674522
11500.0000000243,31.1846741889935,1.00000000105644,0.549343087132061
11600.0000000247,31.0256690938805,1.00000000098564,0.536469577001902
11700.000000025,30.8726183550557,1.00000000099318,0.533840248176899
11800.0000000254,30.7243699534284,1.00000000104126,0.536883293776661
11900.0000000258,30.578963479118,1.00000000113271,0.541219628254461
12000.0000000261,30.4358528731826,1.00000000119673,0.536541321665818
12100.0000000265,30.2970568620999,1.00000000100926,0.526182569400317
12200.0000000269,30.1711446977657,1.00000000099486,0.525468749842016
12300.0000000272,30.0627853801352,1.00000000094877,0.520210066533372
12400.0000000276,29.9685741472154,1.00000000105124,0.517732281227085
12500.0000000279,29.8765569452345,1.00000000111474,0.527491101772541
12600.0000000283,29.7797055723949,1.00000000105357,0.536997197865422
12700.0000000287,29.6895363427635,1.00000000095046,0.520569160849941
12800.000000029,29.61238611564,1.00000000095292,0.519390706287821
12900.0000000294,29.5428254139883,1.00000000101229,0.539841234716375
13000.0000000298,29.4719583702748,1.00000000098405,0.544808301593836
13100.0000000301,29.3961269482021,1.00000000106126,0.546639323418098
13200.0000000305,29.3119638537495,1.00000000111877,0.558806262200649
13300.0000000309,29.2210177216658,1.00000000117559,0.560486717629261
13400.0000000312,29.1246992219945,1.00000000105623,0.568809681906612
13500.0000000316,29.0244144571832,1.00000000107168,0.569836466771695
13600.0000000319,28.9229812545831,1.00000000097829,0.566678067352138
13700.0000000323,28.8247803990042,1.00000000103375,0.561443358228216
13800.0000000327,28.7327647338097,1.00000000111131,0.553812781067883
13900.000000033,28.6468034578294,1.00000000109711,0.547378621972003
14000.0000000334,28.5643877964996,1.00000000109426,0.548314048434832
14100.0000000338,28.4856446807772,1.00000000106679,0.543212583678022
14200.0000000341,28.4174486827198,1.00000000097411,0.543231491680956
14300.0000000345,28.365010393866,1.00000000091379,0.542673355371043
14400.0000000349,28.3241051627099,1.00000000104967,0.534720465197753
14500.0000000352,28.2855318250765,1.00000000112434,0.545924575877564
14600.0000000356,28.2513097982783,1.0000000010278,0.540243424547364
14700.0000000359,28.2218161492664,1.00000000096414,0.535909374221714
14800.0000000363,28.1946460209495,1.00000000111075,0.537232951373706
14900.0000000367,28.1706904016897,1.00000000103627,0.541443457027137
15000.000000037,28.1493123324879,1.00000000104286,0.55200185992074
15100.0000000374,28.1281950827452,1.00000000107848,0.562763258086786
15200.0000000378,28.1044485668446,1.00000000109049,0.571629849387764
15300.0000000381,28.0751648913671,1.00000000108665,0.578787338559649
15400.0000000385,28.0433298576909,1.00000000106501,0.580416175294577
15500.0000000389,28.0123175891439,1.00000000102339,0.576791845168902
15600.0000000392,27.982431902084,1.00000000103479,0.574548468505304
15700.0000000396,27.9490387384115,1.00000000103244,0.577699974282661
15800.0000000399,27.9096720656141,1.0000000010819,0.579142020071887
15900.0000000403,27.8612770551759,1.00000000115442,0.581067975291071
16000.0000000407,27.8028765016688,1.00000000121344,0.583476798310125
16100.000000041,27.7329254552105,1.00000000113143,0.585457358139457
16200.0000000414,27.6586688375919,1.00000000109056,0.597129506379259
16300.0000000418,27.5850505733643,1.00000000105021,0.592083238720048
16400.0000000418,27.5161373194829,1.0000000010086,0.581722539146527
16500.0000000404,27.4524437785231,1.00000000104169,0.574920950567328
16600.0000000389,27.3947823857403,1.00000000108145,0.569354503124802
16700.0000000375,27.3423485937709,1.00000000111788,0.56897374705171
16800.000000036,27.2942789931347,1.00000000109251,0.56868907968971
16900.0000000346,27.2517122038578,1.0000000010755,0.565084186964719
17000.0000000331,27.2166759335385,1.0000000010366,0.561692028064258
17100.0000000317,27.1916754418169,1.00000000101921,0.56439012779024
17200.0000000302,27.1790545333546,1.00000000107622,0.564384878866253
17300.0000000287,27.1751185538448,1.00000000109926,0.564093714348164
17400.0000000273,27.175643298214,1.00000000110136,0.557930416034229
17500.0000000258,27.1778327785427,1.00000000103861,0.55637180507452
17600.0000000244,27.1816670151738,1.00000000107425,0.556372917923986
17700.0000000229,27.1898255577682,1.00000000103365,0.560965714329962
17800.0000000215,27.2026930065369,1.00000000103748,0.565284245928832
17900.00000002,27.2164783262394,1.00000000107754,0.566327520389684
18000.0000000186,27.2297285478754,1.00000000110126,0.567998584508893
18100.0000000171,27.240816916603,1.00000000115711,0.565874178513454
18200.0000000156,27.2482115145805,1.00000000118919,0.562829428564318
18300.0000000142,27.2517825190709,1.00000000112303,0.565399913473907
18400.0000000127,27.2515176221686,1.00000000112175,0.580827905398393
18500.0000000113,27.2502484712904,1.00000000103991,0.58648820513045
18600.0000000098,27.2503391193209,1.0000000010915,0.586106017393561
18700.0000000084,27.2488518387036,1.00000000111543,0.59073568037636
18800.0000000069,27.2425445351716,1.00000000115692,0.585418125342456
18900.0000000055,27.2308633717129,1.00000000114895,0.592907688003566
19000.000000004,27.2156205992995,1.00000000111857,0.593206091383384
19100.0000000026,27.2000420475113,1.00000000109983,0.603153194565575
19200.0000000011,27.1849081257432,1.00000000106493,0.603669962199344
19299.9999999996,27.1677105289329,1.00000000111583,0.60992987634025
19399.9999999982,27.1456707539677,1.00000000111094,0.612577517496522
19499.9999999967,27.119809676628,1.00000000118961,0.609510237883255
19599.9999999953,27.0916456604632,1.00000000113557,0.603948882332102
19699.9999999938,27.0600079865302,1.00000000114785,0.594854277657852
19799.9999999924,27.0227350489701,1.00000000119249,0.594774062513613
19899.9999999909,26.9765679055817,1.00000000125788,0.600536305677075
19999.9999999895,26.9218464508138,1.00000000121289,0.600690991674458
20099.999999988,26.8604290091659,1.00000000118542,0.599951365763692
20199.9999999865,26.7966181811462,1.00000000113247,0.600243179929104
20299.9999999851,26.7326191926565,1.00000000110832,0.598365320428017
20399.9999999836,26.6711005864618,1.00000000106719,0.596806786336523
20499.9999999822,26.6138734205423,1.00000000104804,0.597208365783572
20599.9999999807,26.560289499861,1.00000000111532,0.593363468739257
20699.9999999793,26.5117575445042,1.00000000108344,0.585237989464335
20799.9999999778,26.4682223766542,1.00000000107908,0.5866965300917
20899.9999999764,26.4296439310323,1.00000000111308,0.586763260876981
20999.9999999749,26.3964843460421,1.00000000116713,0.580671300524109
21099.9999999734,26.3688509714687,1.00000000108541,0.564842028937392
21199.999999972,26.3474124935117,1.00000000108448,0.563830490615826
21299.9999999705,26.3335854952663,1.00000000104195,0.564183988042578
21399.9999999691,26.3292240566315,1.00000000106823,0.569921496132354
21499.9999999676,26.3343160652891,1.00000000104052,0.572462679881051
21599.9999999662,26.3469083923077,1.00000000113514,0.573917555232402
21699.9999999647,26.3630361064967,1.00000000114766,0.566788850386702
21799.9999999633,26.3816433166411,1.00000000112641,0.57228999844506
21899.9999999618,26.4054266312974,1.00000000105799,0.570505664759257
21999.9999999603,26.4318901476185,1.00000000111319,0.563245991815364
22099.9999999589,26.4607350284995,1.00000000107134,0.561806468131123
22199.9999999574,26.4917865109228,1.00000000110511,0.567973684624515
22299.999999956,26.5264919595223,1.00000000105473,0.571772680155464
22399.9999999545,26.5609616794392,1.00000000112186,0.57289664092901
22499.9999999531,26.5925844021719,1.0000000011525,0.578288621356273
22599.9999999516,26.6221591403064,1.00000000115985,0.583353122091662
22699.9999999502,26.6492460109368,1.0000000011742,0.580182598269175
22799.9999999487,26.6721877921505,1.00000000121483,0.584155962272717
22899.9999999473,26.691139108545,1.00000000120866,0.594622773770357
22999.9999999458,26.7072768405046,1.00000000118087,0.60276174728199
23099.9999999443,26.7222811086954,1.00000000111131,0.604611509451605
23199.9999999429,26.7362795042748,1.00000000114766,0.612460110488847
23299.9999999414,26.7488787657742,1.00000000122008,0.613436286411086
23399.99999994,26.7576448676737,1.00000000121992,0.620525643002367
23499.9999999385,26.7624736897556,1.00000000121203,0.615695349028772
23599.9999999371,26.7628485036067,1.00000000118024,0.61725998063757
23699.9999999356,26.7618447505766,1.00000000113342,0.620881021143595
23799.9999999342,26.7624060964502,1.00000000117395,0.615708983049056
23899.9999999327,26.7638842494372,1.00000000110839,0.604322325612683
23999.9999999312,26.7675621100255,1.00000000107671,0.6029017699861
24099.9999999298,26.771648009263,1.00000000120577,0.60683998600323
24199.9999999283,26.7711603054379,1.00000000124778,0.617135326194935
24299.9999999269,26.7659126387149,1.00000000114822,0.626501332056375
24399.9999999254,26.7571975915551,1.00000000124442,0.630479757516718
24499.999999924,26.7477277579082,1.00000000110713,0.626810976256359
24599.9999999225,26.7371655945669,1.00000000118192,0.632612531207245
24699.9999999211,26.7251405584708,1.00000000122191,0.635728863161947
24799.9999999196,26.7145447895516,1.00000000103221,0.63190532811049
24899.9999999181,26.7060074498851,1.00000000113136,0.622812584752269
24999.9999999167,26.6957617179149,1.00000000118119,0.621480235150041
25099.9999999152,26.6810999145613,1.00000000123297,0.625369486213253
25199.9999999138,26.6635687457711,1.00000000119406,0.630770109043456
25299.9999999123,26.6421772776136,1.00000000126865,0.629938268876962
25399.9999999109,26.6164936052285,1.00000000116526,0.629513158302182
25499.9999999094,26.5893343132964,1.00000000120652,0.637752618563664
25599.999999908,26.5595446333212,1.00000000121467,0.636450455197533
25699.9999999065,26.5295478885273,1.0000000011734,0.633619092725409
25799.9999999051,26.4996345537649,1.00000000115645,0.63705338195026
25899.9999999036,26.4669246609782,1.00000000123527,0.63425745569463
25999.9999999021,26.4321407472304,1.0000000011301,0.629129551030585
26099.9999999007,26.3955476054967,1.00000000115337,0.630070214602607
26199.9999998992,26.3567471887858,1.00000000114553,0.630488437273816
26299.9999998978,26.3165668844786,1.00000000125012,0.636161705331782
26399.9999998963,26.2741054794694,1.00000000121499,0.636221453907851
26499.9999998949,26.2290131637017,1.00000000118783,0.632622769301318
26599.9999998934,26.1796867706507,1.00000000127866,0.6354710102332
26699.999999892,26.1265007577342,1.00000000126627,0.642336039573595
26799.9999998905,26.0700856343864,1.00000000121768,0.644040257681621
26899.999999889,26.012083542058,1.00000000117996,0.642539832286314
26999.9999998876,25.9528719736893,1.00000000119659,0.647399914956051
27099.9999998861,25.8935166643226,1.00000000111995,0.646271623274098
27199.9999998847,25.8353047688851,1.00000000114357,0.643108420107871
27299.9999998832,25.7790241848978,1.00000000115187,0.630948193824762
27399.9999998818,25.7256451574657,1.00000000115932,0.624902025898836
27499.9999998803,25.6758282803487,1.00000000115499,0.627198962930098
27599.9999998789,25.6300481404619,1.00000000113857,0.62915685049857
27699.9999998774,25.5892130602,1.00000000120469,0.632874209546031
27799.9999998759,25.5526229110697,1.00000000121148,0.633172449011936
27899.9999998745,25.5202027082987,1.00000000112983,0.625953411007574
27999.999999873,25.491986211978,1.00000000121365,0.620932170398046
28099.9999998716,25.4675230975785,1.00000000116194,0.60757075731625
28199.9999998701,25.4491650847261,1.00000000112312,0.598971093853777
28299.9999998687,25.4359570223156,1.00000000115795,0.591926016446762
28399.9999998672,25.4284477228879,1.00000000110099,0.594106880559005
28499.9999998658,25.4284682636718,1.00000000117812,0.591865272929464
28599.9999998643,25.4361866748329,1.00000000112895,0.587527340085815
28699.9999998629,25.4500506173655,1.00000000122265,0.592215793212141
28799.9999998614,25.4702716842386,1.00000000106616,0.586378310859727
28899.9999998599,25.4952248957506,1.00000000123694,0.582583755130099
28999.9999998585,25.521581608352,1.00000000123299,0.579697744634022
