Time,AGPnorm,Energy,Entropy
0,0,1,-1.1492292582436e-17
99.9999999999986,6.10429064934478e-06,0.999999999998643,0.000310229536795041
199.999999999993,0.000541059825305118,0.999999999999032,0.000496491922468515
300,0.00136394163971233,0.999999999999805,0.000872418765855259
400.000000000022,0.00187427651951088,0.999999999998232,0.00152609023371332
500.000000000045,0.0022473377803065,0.999999999999852,0.00205876863083652
600.000000000068,0.00327319079857288,0.999999999998946,0.0028908429281013
700.000000000091,0.00410062441146626,0.999999999998718,0.0037378064304354
800.000000000113,0.00523959064645115,0.999999999999987,0.0046078388645206
900.000000000136,0.00654259690098094,0.999999999998268,0.00571958879669822
1000.00000000016,0.00762597539598227,0.999999999999606,0.00675120716206747
1100.0000000001,0.00926958910270684,0.999999999999288,0.00793483704150941
1200,0.0109107843944323,0.999999999998458,0.00921145787474575
1299.99999999991,0.0125545444009429,1.00000000000004,0.0104574540852976
1399.99999999982,0.0144727489213694,0.999999999998421,0.0118973399940363
1499.99999999973,0.0163522406244223,0.999999999999306,0.0133090066615331
1599.99999999964,0.0186193031771964,0.999999999999616,0.0147838036534859
1699.99999999955,0.0208812295712952,0.999999999998278,0.016396021890293
1799.99999999946,0.0230361214680957,0.999999999999968,0.0179643189782856
1899.99999999937,0.0255828087342374,0.999999999998689,0.0196686197600964
1999.99999999928,0.0282199660519884,0.999999999998993,0.0214021349428749
2099.99999999919,0.0310118377346969,0.999999999999861,0.023145305256122
2199.99999999909,0.0338076591861069,0.999999999998199,0.0250369263847273
2299.999999999,0.0365162703850373,0.999999999999793,0.0268966271264632
2399.99999999891,0.0396710770844631,0.999999999999038,0.0288396060874497
2499.99999999882,0.0429225526708556,0.999999999998695,0.0308630721400806
2599.99999999873,0.0461241168280699,0.999999999999982,0.0328686474950308
2699.99999999864,0.0494209441871648,0.999999999998248,0.0350049762211787
2799.99999999855,0.0527521848644036,0.999999999999557,0.0371430579124933
2899.99999999846,0.0564327197751186,0.999999999999406,0.0393222688151737
2999.99999999837,0.0601238938720114,0.999999999998435,0.041618165461799
3099.99999999828,0.063649370528371,0.999999999999977,0.0438876602606082
3199.99999999819,0.0674343550446954,0.999999999998442,0.0462569894836518
3299.99999999809,0.0713853917170706,0.999999999999288,0.0486757154279276
3399.999999998,0.0754661662828105,0.999999999999708,0.0511033026131902
3499.99999999791,0.0794688032540004,0.999999999998241,0.0536645326269935
3599.99999999782,0.0833081343547054,0.999999999999876,0.0562055527456613
3699.99999999773,0.0875536379858968,0.999999999998765,0.0588230733054876
3799.99999999764,0.0919937760473301,0.999999999999007,0.0615340147569074
3899.99999999755,0.0963379300747988,0.999999999999874,0.0642348516193965
3999.99999999746,0.100588986552052,0.999999999998162,0.0670649206857219
4099.99999999738,0.1048113184476,0.999999999999714,0.0699019472890051
4199.99999999775,0.109433979914853,0.999999999999166,0.0728003580964655
4299.99999999811,0.114162090529186,0.999999999998721,0.0758259462442853
4399.99999999848,0.118636955708379,0.999999999999905,0.0788370979341319
4499.99999999884,0.123130646622439,0.999999999998243,0.0819583188106317
4599.9999999992,0.12778541852152,0.999999999999517,0.0851423325656712
4699.99999999957,0.13265972874238,0.999999999999548,0.0883701956216867
4799.99999999993,0.137495568915128,0.999999999998447,0.0917502270355928
4900.00000000029,0.142023021050423,0.999999999999855,0.0951247568512182
5000.00000000066,0.146787131541974,0.999999999998472,0.0986009053679044
5100.00000000102,0.151803337587398,0.999999999999292,0.102202667580576
5200.00000000139,0.156800459547903,0.999999999999794,0.105841272661183
5300.00000000175,0.161628616550613,0.99999999999823,0.109643817761522
5400.00000000211,0.16623974424899,0.999999999999784,0.113472918206103
5500.00000000248,0.171258827079896,0.999999999998847,0.117420412786706
5600.00000000284,0.176452063087016,0.99999999999906,0.121553319045161
5700.00000000321,0.181442485000706,0.999999999999867,0.12573074581718
5800.00000000357,0.186221750254334,0.999999999998214,0.130089761995462
5900.00000000393,0.191006345147551,0.999999999999695,0.134547974716714
6000.0000000043,0.196213037295628,0.999999999999394,0.139152457366272
6100.00000000466,0.201362913917329,0.999999999998937,0.144014533025189
6200.00000000502,0.206252815077299,1.00000000000002,0.148952439767856
6300.00000000539,0.211069702544316,0.999999999998658,0.154117172864349
6400.00000000575,0.216019705307906,0.999999999999991,0.159487907079691
6500.00000000612,0.221448776683549,1.00000000000044,0.165044387576644
6600.00000000648,0.226408922332996,0.999999999999652,0.170918055400858
6700.00000000684,0.231320247795845,1.00000000000133,0.176902019494484
6800.00000000721,0.236616291360745,1.00000000000082,0.183155497207559
6900.00000000757,0.241747069025947,1.00000000000232,0.189682387283884
7000.00000000793,0.248062991748347,1.00000000000414,0.196366159295061
7100.0000000083,0.253498724163829,1.00000000000369,0.20331759658131
7200.00000000866,0.259580625829766,1.00000000000702,0.21034538727005
7300.00000000903,0.267751883518395,1.00000000000789,0.217537574481527
7400.00000000939,0.275199560805501,1.00000000001065,0.22494200308308
7500.00000000975,0.286494383674891,1.0000000000137,0.232342799823237
7600.00000001012,0.298490542761985,1.0000000000148,0.239826502868611
7700.00000001048,0.313103103107953,1.00000000002,0.247290482567216
7800.00000001084,0.335579841257598,1.00000000002306,0.254731291313752
7900.00000001121,0.35938360786672,1.00000000002564,0.262289580621951
8000.00000001157,0.393828460329711,1.00000000003102,0.269618629269374
8100.00000001194,0.437517802831175,1.00000000003383,0.276931664581545
8200.0000000123,0.489976419907762,1.0000000000399,0.284161394352498
8300.00000001266,0.563760698546434,1.00000000004347,0.291260429952962
8400.00000001303,0.649641400951724,1.00000000004633,0.298367171406829
8500.00000001339,0.759689246372907,1.00000000005287,0.305177143777558
8600.00000001376,0.899168897230868,1.00000000005465,0.311933313877964
8700.00000001412,1.06226372429481,1.00000000006331,0.318612916286017
8800.00000001448,1.26948378848915,1.00000000006505,0.325112917623594
8900.00000001485,1.51327599358333,1.00000000007193,0.331513086232183
9000.00000001521,1.80290366451545,1.00000000007524,0.33774261480277
9100.00000001557,2.15407393522844,1.00000000008031,0.343793567262755
9200.00000001594,2.55552062931882,1.00000000008592,0.349914972388075
9300.0000000163,3.03169215732113,1.00000000009052,0.35573744777714
9400.00000001667,3.58221416389314,1.00000000009438,0.361468948385655
9500.00000001703,4.20799509775794,1.00000000009758,0.367131806077823
9600.00000001739,4.93483389995424,1.00000000010321,0.372509586727055
9700.00000001776,5.75007306963495,1.00000000010826,0.378004171970138
9800.00000001812,6.67434806435716,1.00000000011301,0.383174265495465
9900.00000001848,7.71865106589427,1.0000000001177,0.3882471196517
10000.0000000188,8.87321733022755,1.00000000011971,0.393351035173955
10100.0000000192,10.169411782797,1.0000000001294,0.398077699719307
10200.0000000196,11.5992553590247,1.00000000012848,0.402954350619995
10300.0000000199,13.1717039440988,1.00000000013809,0.407499473339079
10400.0000000203,14.9098598060572,1.00000000013914,0.411927301953808
10500.0000000207,16.7960480814388,1.00000000013998,0.416489722636945
10600.000000021,18.859460920876,1.00000000015086,0.420632401611389
10700.0000000214,21.1019205250754,1.00000000015028,0.424829842859965
10800.0000000218,23.5166507192241,1.00000000015992,0.428888938160059
10900.0000000221,26.1352511883232,1.00000000015344,0.432747903792572
11000.0000000225,28.9392098840587,1.00000000015749,0.436762247865233
11100.0000000229,31.9467506062552,1.00000000016136,0.440366940002431
11200.0000000232,35.1720334140653,1.00000000016527,0.443952750128406
11300.0000000236,38.5939239769469,1.00000000017321,0.447574197312503
11400.0000000239,42.2453335679413,1.00000000016773,0.450915565098982
11500.0000000243,46.1150037903268,1.00000000017636,0.454286724793401
11600.0000000247,50.2036341634955,1.00000000016866,0.457574313444031
11700.000000025,54.53643092894,1.00000000017655,0.460525849137649
11800.0000000254,59.0843372643881,1.00000000017993,0.463777681728856
11900.0000000258,63.8733445673541,1.00000000018327,0.46658294687909
12000.0000000261,68.9047933984247,1.00000000018445,0.469418554915838
12100.0000000265,74.1596862704694,1.00000000018005,0.472371830055064
12200.0000000269,79.6704636782879,1.00000000018674,0.474774157186232
12300.0000000272,85.4084597899504,1.00000000018888,0.477580793416531
12400.0000000276,91.3859708421408,1.00000000018836,0.480100741066248
12500.0000000279,97.6176573196512,1.00000000018632,0.482385061925384
12600.0000000283,104.069367189221,1.00000000018487,0.484977458083566
12700.0000000287,110.773497189021,1.00000000019761,0.487057836831146
12800.000000029,117.710495139758,1.000000000189,0.489304093880093
12900.0000000294,124.873310868784,1.00000000019075,0.49155275934
13000.0000000298,132.288767305369,1.00000000019434,0.49340329835262
13100.0000000301,139.914690938502,1.00000000019368,0.495499025844889
13200.0000000305,147.776186551578,1.00000000019815,0.497463083846266
13300.0000000309,155.867820707371,1.00000000019281,0.499199288612826
13400.0000000312,164.164688227731,1.00000000019581,0.501045175839507
13500.0000000316,172.698698263473,1.00000000020367,0.502618976601166
13600.0000000319,181.430931149989,1.00000000019655,0.504347738207893
13700.0000000323,190.370578783325,1.00000000019386,0.506028170370424
13800.0000000327,199.529179944428,1.00000000020248,0.507367604946901
13900.000000033,208.867146107438,1.00000000019612,0.50897105529284
14000.0000000334,218.415319293752,1.00000000019625,0.510273284844615
14100.0000000338,228.145297017631,1.00000000019244,0.511698333790056
14200.0000000341,238.049857810761,1.00000000019994,0.512971105345118
14300.0000000345,248.152182205212,1.00000000019976,0.514133829005777
14400.0000000349,258.406459974325,1.00000000020338,0.515326818872798
14500.0000000352,268.836025072508,1.00000000019485,0.516579032584807
14600.0000000356,279.427792114144,1.00000000019952,0.517512772004399
14700.0000000359,290.157928823873,1.00000000019652,0.518655771188504
14800.0000000363,301.056658977302,1.00000000019703,0.519602117777819
14900.0000000367,312.080039989633,1.00000000019348,0.520585826947835
15000.000000037,323.238799465339,1.00000000019762,0.521479639765883
15100.0000000374,334.53624809598,1.00000000019163,0.522297124270362
15200.0000000378,345.936375174767,1.00000000019927,0.523040064018263
15300.0000000381,357.469300900107,1.00000000019679,0.523742230815872
15400.0000000385,369.099566789626,1.00000000019515,0.524688573556038
15500.0000000389,380.826092397658,1.00000000019885,0.52530216249052
15600.0000000392,392.66288149311,1.0000000001962,0.525807589366516
15700.0000000396,404.569065205743,1.00000000019979,0.526530711193779
15800.0000000399,416.568371511499,1.00000000019305,0.527048227272399
15900.0000000403,428.640070090712,1.00000000018829,0.527662210907143
16000.0000000407,440.766526586022,1.00000000018857,0.528334751497999
16100.000000041,452.973728417579,1.00000000019331,0.528710947239053
16200.0000000414,465.218990167661,1.00000000018986,0.52902541883176
16300.0000000418,477.517202990231,1.00000000018997,0.529455458822169
16400.0000000418,489.862318464752,1.00000000019037,0.529895330423766
16500.0000000404,502.226730516326,1.00000000018452,0.530393523445517
16600.0000000389,514.639178666061,1.00000000019417,0.530666151547733
16700.0000000375,527.06091964929,1.00000000018547,0.53100210916382
16800.000000036,539.499515111302,1.00000000019256,0.53116299999731
16900.0000000346,551.958532638893,1.00000000018783,0.531111385913087
17000.0000000331,564.405393234848,1.00000000018783,0.531699110061605
17100.0000000317,576.865857270716,1.0000000001884,0.531912018282572
17200.0000000302,589.312354286559,1.00000000018275,0.532334236627131
17300.0000000287,601.739562529047,1.00000000018805,0.53230916320377
17400.0000000273,614.161847581893,1.00000000017978,0.532274513951414
17500.0000000258,626.546030997623,1.00000000018116,0.532272287075778
17600.0000000244,638.9095281129,1.00000000018217,0.532310021300587
17700.0000000229,651.238405066821,1.00000000017794,0.532638112956614
17800.0000000215,663.516078862627,1.00000000017948,0.532803686291427
17900.00000002,675.765224956939,1.00000000017675,0.532865116395823
18000.0000000186,687.95096556688,1.0000000001751,0.532666644928941
18100.0000000171,700.086911275616,1.00000000017421,0.53261507013536
18200.0000000156,712.166956531187,1.00000000017487,0.532268040286531
18300.0000000142,724.170109622939,1.00000000017396,0.53240834879554
18400.0000000127,736.118207039664,1.00000000017583,0.532226333010712
18500.0000000113,747.984757997395,1.0000000001695,0.532611359009205
18600.0000000098,759.772944032906,1.00000000017234,0.532522176363839
18700.0000000084,771.487621438137,1.00000000016443,0.53235851913001
18800.0000000069,783.103527720024,1.00000000017356,0.532015324997318
18900.0000000055,794.641477906178,1.00000000016626,0.53175757551601
19000.000000004,806.082289118031,1.00000000016768,0.531645849742369
19100.0000000026,817.420685973604,1.00000000016282,0.531539572946872
19200.0000000011,828.669876829997,1.00000000016688,0.531390557519304
19299.9999999996,839.802606875517,1.00000000016856,0.531376091126656
19399.9999999982,850.837201707367,1.00000000016595,0.53138773423383
19499.9999999967,861.760666162142,1.00000000016586,0.5311329341916
19599.9999999953,872.563306072313,1.00000000016347,0.530830497162294
19699.9999999938,883.26049867358,1.00000000016343,0.530395275204445
19799.9999999924,893.829999232402,1.00000000015698,0.530174364848976
19899.9999999909,904.282252965272,1.00000000016031,0.530027829937779
19999.9999999895,914.61400221414,1.00000000015447,0.529697193173079
20099.999999988,924.808662570596,1.0000000001602,0.529686303435545
20199.9999999865,934.886318491476,1.00000000015652,0.529563895902043
20299.9999999851,944.826459855593,1.00000000015653,0.529430833970476
20399.9999999836,954.634640371023,1.00000000015453,0.529282707237417
20499.9999999822,964.312838336998,1.00000000015359,0.528625035228315
20599.9999999807,973.844166702146,1.00000000015104,0.528531696837605
20699.9999999793,983.247487131544,1.00000000015071,0.527983023277284
20799.9999999778,992.507406338158,1.00000000014839,0.527794878487887
20899.9999999764,1001.62292331565,1.00000000015114,0.527527095555468
20999.9999999749,1010.60217138672,1.00000000015049,0.527232415901963
21099.9999999734,1019.42858290602,1.00000000014723,0.527439998437533
21199.999999972,1028.11738300269,1.00000000014612,0.527069874123243
21299.9999999705,1036.65795433972,1.00000000014747,0.526858318092901
21399.9999999691,1045.0461549009,1.00000000014258,0.526576307936599
21499.9999999676,1053.29355846081,1.00000000014441,0.526055292337904
21599.9999999662,1061.385761437,1.00000000014134,0.525815131319021
21699.9999999647,1069.33173834237,1.00000000014189,0.525286858467456
21799.9999999633,1077.12826044281,1.00000000014478,0.525117923720948
21899.9999999618,1084.76769534157,1.0000000001369,0.524962699878164
21999.9999999603,1092.263307353,1.00000000014128,0.524682619770077
22099.9999999589,1099.60200300315,1.00000000013852,0.524567461619562
22199.9999999574,1106.78995516502,1.0000000001339,0.524324041263002
22299.999999956,1113.82805674574,1.0000000001378,0.52395330765684
22399.9999999545,1120.70759760585,1.00000000013743,0.52363799737657
22499.9999999531,1127.44104218516,1.00000000013581,0.523251316434817
22599.9999999516,1134.01935336219,1.00000000013598,0.523001988944059
22699.9999999502,1140.44491265481,1.00000000013015,0.522783049609143
22799.9999999487,1146.72217959175,1.00000000013506,0.522656823490795
22899.9999999473,1152.8416905699,1.0000000001348,0.522430918819972
22999.9999999458,1158.81540750869,1.00000000013433,0.522174004791686
23099.9999999443,1164.63664513031,1.000000000132,0.521831078574673
23199.9999999429,1170.30418397148,1.00000000012939,0.521356313024439
23299.9999999414,1175.8256713534,1.00000000012968,0.520837333658625
23399.99999994,1181.19099444571,1.00000000012744,0.520341993050468
23499.9999999385,1186.41063052783,1.00000000013242,0.520070011527849
23599.9999999371,1191.48033576817,1.00000000012586,0.520022946228367
23699.9999999356,1196.39810495669,1.00000000012553,0.520244964178311
23799.9999999342,1201.17356659713,1.0000000001239,0.520570303517375
23899.9999999327,1205.79855751737,1.00000000012707,0.520765125274397
23999.9999999312,1210.28104103635,1.00000000012523,0.520756967546216
24099.9999999298,1214.62033070211,1.00000000012305,0.520286827040721
24199.9999999283,1218.81178279683,1.00000000012294,0.519416144648528
24299.9999999269,1222.86425644021,1.00000000012293,0.518135117790537
24399.9999999254,1226.77038200245,1.00000000011897,0.516859666737612
24499.999999924,1230.5332451461,1.00000000012158,0.515973660197895
24599.9999999225,1234.1544402493,1.00000000011947,0.515452116098511
24699.9999999211,1237.62914899141,1.00000000011689,0.516005224524309
24799.9999999196,1240.96757330111,1.00000000011766,0.517177818099032
24899.9999999181,1244.16732547573,1.0000000001163,0.518724216255096
24999.9999999167,1247.23183603716,1.00000000012054,0.520299651906971
25099.9999999152,1250.1681722847,1.00000000011733,0.521247250050621
25199.9999999138,1252.97189001432,1.00000000011945,0.521232141032112
25299.9999999123,1255.65136042049,1.00000000011592,0.519978926981748
25399.9999999109,1258.20317444043,1.00000000011718,0.517647693206652
25499.9999999094,1260.6236595639,1.00000000011458,0.514658377645442
25599.999999908,1262.91598694428,1.00000000010985,0.511573776792645
25699.9999999065,1265.07072821164,1.00000000010757,0.509405549228785
25799.9999999051,1267.09300391766,1.0000000001065,0.508855788118836
25899.9999999036,1268.98226523962,1.00000000010544,0.510157701795892
25999.9999999021,1270.73930622307,1.00000000010553,0.513348788505876
26099.9999999007,1272.37657496796,1.00000000010685,0.517304998898947
26199.9999998992,1273.89473267347,1.00000000011177,0.521158959583072
26299.9999998978,1275.30579598538,1.00000000011405,0.524241153963424
26399.9999998963,1276.61515972858,1.00000000011303,0.525417312322376
26499.9999998949,1277.82300732792,1.00000000011599,0.524559385152474
26599.9999998934,1278.9348782861,1.00000000011428,0.521159546092769
26699.999999892,1279.94140382393,1.00000000010929,0.515750984177141
26799.9999998905,1280.83884513364,1.00000000010408,0.509449437631147
26899.999999889,1281.62016525856,1.00000000009707,0.503311022587161
26999.9999998876,1282.27636326287,1.00000000009673,0.499426545053466
27099.9999998861,1282.80945869676,1.00000000009168,0.498653888019389
27199.9999998847,1283.21799220172,1.00000000009164,0.50179327657081
27299.9999998832,1283.50960142511,1.00000000009464,0.507865618667116
27399.9999998818,1283.69805767581,1.00000000010097,0.515335759652336
27499.9999998803,1283.79359277541,1.00000000010781,0.522571353698703
27599.9999998789,1283.81388147185,1.0000000001155,0.528494156875413
27699.9999998774,1283.76756899904,1.00000000011965,0.531596202903798
27799.9999998759,1283.65909921159,1.00000000012196,0.531643450194668
27899.9999998745,1283.49314489753,1.00000000011979,0.528032905426506
27999.999999873,1283.25958487423,1.00000000011234,0.52091807093981
28099.9999998716,1282.95320552445,1.00000000010715,0.511294475733913
28199.9999998701,1282.55850054336,1.00000000009507,0.499907827751425
28299.9999998687,1282.06085336297,1.00000000008906,0.4903649201517
28399.9999998672,1281.45447508431,1.00000000008072,0.48379930213203
28499.9999998658,1280.73147664944,1.00000000007688,0.483412102603376
28599.9999998643,1279.89993651455,1.00000000008038,0.488809656164965
28699.9999998629,1278.96992525727,1.00000000008778,0.498947403253055
