Time,AGPnorm,Energy,Entropy
0,0,1,-7.44796662136979e-17
99.9999999999986,0.000527858100918864,1.00000000000202,0.00198338302805385
199.999999999993,0.00358569661951433,1.00000000000409,0.00604839948751309
300,0.00748721060875319,1.00000000000279,0.0113454919575766
400.000000000022,0.0118064474550849,1.00000000000039,0.0178220993233702
500.000000000045,0.0169774103568065,1.00000000000068,0.0255919231540735
600.000000000068,0.0232993525854893,1.00000000000334,0.0346849455409476
700.000000000091,0.0305488237628062,1.00000000000378,0.044768304338871
800.000000000113,0.0383589750742547,1.00000000000146,0.0555819433261293
900.000000000136,0.0469106984177384,1.00000000000028,0.067398960795093
1000.00000000016,0.0558234740490294,1.00000000000191,0.0804164085811774
1100.0000000001,0.0656810280461409,1.00000000000394,0.0948454176742299
1200,0.0749550548622911,1.00000000000275,0.110501456208438
1299.99999999991,0.0851787150120615,1.0000000000009,0.127573397790704
1399.99999999982,0.0954155856943083,1.00000000000138,0.146732199859427
1499.99999999973,0.105442907634295,1.00000000000538,0.168575088430836
1599.99999999964,0.116035015236638,1.00000000001146,0.193719096156826
1699.99999999955,0.12786870414376,1.00000000002468,0.222068303944282
1799.99999999946,0.140261884377312,1.00000000005722,0.25335700741917
1899.99999999937,0.154934715752276,1.00000000011139,0.286031379313984
1999.99999999928,0.194452171363259,1.00000000017975,0.318523392683134
2099.99999999919,0.286766738788924,1.000000000256,0.349056011679427
2199.99999999909,0.45619115406145,1.00000000035871,0.376524771849767
2299.999999999,0.74019465167334,1.00000000041477,0.401570200678972
2399.99999999891,1.20865998689631,1.00000000048511,0.423971190981965
2499.99999999882,1.94131433586697,1.0000000005855,0.443832069680935
2599.99999999873,2.98971003589239,1.00000000063683,0.461225377714559
2699.99999999864,4.38664758965482,1.00000000068471,0.476413260301564
2799.99999999855,6.16963621897161,1.00000000072315,0.489881764932141
2899.99999999846,8.38613889376516,1.0000000007886,0.501550936939031
2999.99999999837,11.0685360764406,1.00000000078333,0.511629281282544
3099.99999999828,14.2064773499471,1.00000000078706,0.520093077572016
3199.99999999819,17.7713792671869,1.00000000082866,0.52734486424091
3299.99999999809,21.7350712163593,1.0000000008161,0.533745731531729
3399.999999998,26.0946540863382,1.00000000082079,0.538777078606847
3499.99999999791,30.8236138960588,1.00000000083963,0.542724570640943
3599.99999999782,35.8541731385926,1.00000000082731,0.546209888978995
3699.99999999773,41.117098624962,1.00000000080872,0.549258279134621
3799.99999999764,46.5711496451375,1.00000000082918,0.550928400762742
3899.99999999755,52.1971173651261,1.00000000078178,0.55236699320039
3999.99999999746,57.9358325295443,1.00000000078842,0.553743187350265
4099.99999999738,63.7117626511514,1.00000000076044,0.55385423057448
4199.99999999775,69.4728750468789,1.00000000076765,0.553777197072203
4299.99999999811,75.1954605421936,1.00000000075781,0.554081489264202
4399.99999999848,80.8541613431648,1.00000000071726,0.553073278896385
4499.99999999884,86.3962352641147,1.00000000074128,0.551667211701879
4599.9999999992,91.7689658082957,1.00000000069664,0.551772144919467
4699.99999999957,96.9520230439467,1.00000000066196,0.550047084121583
4799.99999999993,101.938682661402,1.00000000065785,0.548654350861001
4900.00000000029,106.709484497358,1.00000000066811,0.547448841026099
5000.00000000066,111.226739613348,1.00000000064585,0.54588164362151
5100.00000000102,115.474275138503,1.00000000061809,0.544499623625646
5200.00000000139,119.451263803179,1.00000000061307,0.544482532460578
5300.00000000175,123.163387380152,1.00000000061478,0.542043610603899
5400.00000000211,126.595653106912,1.00000000058797,0.53986737923133
5500.00000000248,129.738214508678,1.00000000056505,0.539687323894803
5600.00000000284,132.589363035029,1.00000000055601,0.538271924441238
5700.00000000321,135.15906325198,1.0000000005384,0.533407639127846
5800.00000000357,137.453102052489,1.00000000051812,0.533182706895546
5900.00000000393,139.474257950212,1.00000000052592,0.537236775949739
6000.0000000043,141.225727334908,1.00000000052454,0.532597754022638
6100.00000000466,142.704812175133,1.00000000047905,0.52342405694489
6200.00000000502,143.923910323688,1.00000000047119,0.527605179035879
6300.00000000539,144.917270738692,1.00000000050368,0.5396779709335
6400.00000000575,145.702406411906,1.00000000047712,0.532904713731569
6500.00000000612,146.25476091112,1.00000000041689,0.511848416458283
6600.00000000648,146.561551317397,1.00000000041229,0.514244330271739
6700.00000000684,146.683445130925,1.00000000046932,0.540739186173354
6800.00000000721,146.686760714447,1.00000000050006,0.548589637430519
6900.00000000757,146.557958548351,1.00000000043661,0.51861251578999
7000.00000000793,146.229646896196,1.00000000033132,0.487539047159794
7100.0000000083,145.706720183466,1.00000000038266,0.508558417803688
7200.00000000866,145.089271535766,1.00000000053972,0.550453090366184
7300.00000000903,144.453270979045,1.00000000057369,0.558707006956913
7400.00000000939,143.772573478583,1.00000000044576,0.519851557547043
7500.00000000975,142.956641884874,1.00000000028617,0.464973110259817
7600.00000001012,141.976802428401,1.00000000029151,0.470975705601622
7700.00000001048,140.916094575105,1.00000000048038,0.530705598190309
7800.00000001084,139.873444305996,1.0000000006546,0.56506705035455
7900.00000001121,138.877294535434,1.00000000062622,0.556145570921996
8000.00000001157,137.870933944171,1.00000000044141,0.498008012099636
8100.00000001194,136.768248047662,1.000000000249,0.428403380850834
8200.0000000123,135.549419341466,1.0000000002606,0.4351479255619
8300.00000001266,134.279893634539,1.00000000048625,0.508638606638328
8400.00000001303,133.039768663143,1.00000000065169,0.557295978910762
8500.00000001339,131.870084059757,1.00000000067559,0.564366079960431
8600.00000001376,130.754568805505,1.00000000057627,0.533175106135222
8700.00000001412,129.630842526411,1.00000000037654,0.457804352937548
8800.00000001448,128.440423832027,1.00000000022186,0.387178016832986
8900.00000001485,127.181391778455,1.00000000024874,0.401303967328601
9000.00000001521,125.900347785463,1.00000000044828,0.477218391582302
9100.00000001557,124.647018548182,1.00000000061732,0.535529853846956
9200.00000001594,123.449802673825,1.00000000070698,0.555548339836602
9300.0000000163,122.312295653128,1.00000000068925,0.550105299378148
9400.00000001667,121.211742308623,1.00000000054146,0.511766340277538
9500.00000001703,120.109384937329,1.00000000036065,0.440444068940895
9600.00000001739,118.977456293824,1.00000000024124,0.375810176314138
9700.00000001776,117.818421347286,1.00000000023871,0.373562868364338
9800.00000001812,116.652568317288,1.00000000037938,0.42976132097902
9900.00000001848,115.500594757876,1.00000000055623,0.495919662188332
10000.0000000188,114.377082830104,1.00000000063651,0.530252942786782
10100.0000000192,113.290830899593,1.00000000068263,0.540840985673341
10200.0000000196,112.242899747587,1.00000000061228,0.541713042357263
10300.0000000199,111.22347870032,1.00000000055294,0.51775059646429
10400.0000000203,110.216137725563,1.00000000044675,0.469023610849913
10500.0000000207,109.209577202144,1.00000000034,0.415651226137695
10600.000000021,108.205130540234,1.00000000028908,0.381871544808777
10700.0000000214,107.211292061106,1.00000000028637,0.390459132629779
10800.0000000218,106.233293355211,1.00000000036501,0.428082826674665
10900.0000000221,105.272161118549,1.00000000048881,0.474797509382813
11000.0000000225,104.326384952006,1.00000000052561,0.508841259703512
11100.0000000229,103.395215429141,1.00000000054103,0.51736120011871
11200.0000000232,102.479608540116,1.00000000059544,0.522959774549647
11300.0000000236,101.581471303593,1.00000000061889,0.534777737135323
11400.0000000239,100.701093757226,1.00000000058028,0.531695103684301
11500.0000000243,99.8360462889301,1.00000000044814,0.49707284664895
11600.0000000247,98.9854634953836,1.00000000032464,0.447218299003264
11700.000000025,98.1535021041107,1.0000000003004,0.409837810459306
11800.0000000254,97.346332626046,1.00000000032792,0.399166326654988
11900.0000000258,96.5669978952212,1.00000000035682,0.410421461712491
12000.0000000261,95.81321867271,1.00000000042573,0.442216058804918
12100.0000000265,95.0780525452457,1.00000000047631,0.466610641251165
12200.0000000269,94.355214423911,1.00000000047682,0.487927748198891
12300.0000000272,93.6427340631094,1.00000000046067,0.500679357362915
12400.0000000276,92.9414955152548,1.00000000045457,0.498362593004483
12500.0000000279,92.2487112795356,1.00000000052726,0.497590894394915
12600.0000000283,91.5576822755704,1.00000000059725,0.515089846004546
12700.0000000287,90.8653321317948,1.00000000064012,0.533533020275657
12800.000000029,90.1749866255221,1.00000000062229,0.540364623921301
12900.0000000294,89.4932101589163,1.00000000052259,0.518446452245575
13000.0000000298,88.8283848666879,1.00000000037825,0.473515144497617
13100.0000000301,88.191430153106,1.00000000027878,0.428861199802095
13200.0000000305,87.5908550114754,1.0000000002983,0.404335979583509
13300.0000000309,87.026492686044,1.00000000035839,0.404098199484263
13400.0000000312,86.4903640822655,1.00000000044243,0.420084196942781
13500.0000000316,85.9737201130423,1.00000000046698,0.445177271143613
13600.0000000319,85.4686286826464,1.00000000047261,0.471036720043714
13700.0000000323,84.9688438232996,1.00000000049431,0.487111779759405
13800.0000000327,84.4729701131591,1.00000000049214,0.494955209430614
13900.000000033,83.9827857550209,1.00000000043415,0.496962497850488
14000.0000000334,83.5031309375222,1.00000000037818,0.4968832064083
14100.0000000338,83.0361411852486,1.00000000039878,0.492341126667571
14200.0000000341,82.5758573805244,1.00000000044177,0.492370006836822
14300.0000000345,82.111389611208,1.00000000054381,0.500801453808511
14400.0000000349,81.6339519288867,1.00000000061072,0.51615120674383
14500.0000000352,81.1428195964276,1.00000000066198,0.5324087930566
14600.0000000356,80.6443592715717,1.00000000061062,0.538466858241423
14700.0000000359,80.1470217910641,1.00000000050658,0.52675857844984
14800.0000000363,79.6615191875456,1.00000000044225,0.49994963882558
14900.0000000367,79.1992014110578,1.00000000035017,0.4638168777816
15000.000000037,78.7708586206753,1.00000000030319,0.435953062896065
15100.0000000374,78.3831567226568,1.00000000029515,0.420270467481137
15200.0000000378,78.035341100195,1.00000000034713,0.416286631227757
15300.0000000381,77.7191845213621,1.00000000037056,0.422371243516744
15400.0000000385,77.4218592267209,1.0000000004538,0.446290350631718
15500.0000000389,77.1329383510845,1.00000000049564,0.466946043738046
15600.0000000392,76.8485488361011,1.00000000047072,0.476725306924796
15700.0000000396,76.5697265063297,1.00000000048072,0.483811338647682
15800.0000000399,76.2953399474874,1.00000000046212,0.490202072923009
15900.0000000403,76.0214910750813,1.00000000049233,0.50070200695775
16000.0000000407,75.743111962741,1.00000000049626,0.515564228435207
16100.000000041,75.4580727619858,1.00000000049003,0.525472826510319
16200.0000000414,75.168735199889,1.00000000047407,0.52990907980908
16300.0000000418,74.8806692805503,1.00000000042655,0.531195555314579
16400.0000000418,74.5959413292493,1.00000000040761,0.522494828752702
16500.0000000404,74.3132094739972,1.00000000044313,0.515049557813973
16600.0000000389,74.0292229455641,1.00000000046759,0.504782521119025
16700.0000000375,73.7400720549194,1.0000000005087,0.5010394251162
16800.000000036,73.4413702462526,1.00000000054766,0.512025580563733
16900.0000000346,73.1291676372219,1.00000000063743,0.529713872312844
17000.0000000331,72.8034427261601,1.00000000063501,0.543897287160096
17100.0000000317,72.4702558302074,1.00000000056315,0.545340404781824
17200.0000000302,72.1397924267182,1.00000000046208,0.530440719760556
17300.0000000287,71.8246086438098,1.0000000004038,0.503734152535395
17400.0000000273,71.5381031004581,1.00000000035154,0.474661140399057
17500.0000000258,71.2886135197096,1.00000000033321,0.450345495522255
17600.0000000244,71.0782686770885,1.00000000034609,0.439659133539958
17700.0000000229,70.9039738276402,1.00000000036764,0.436247095156248
17800.0000000215,70.7589965063798,1.00000000039548,0.440941974608239
17900.00000002,70.6335411153265,1.00000000045093,0.44697071714486
18000.0000000186,70.5188636783389,1.00000000046523,0.452961683583845
18100.0000000171,70.4078095735459,1.0000000004921,0.467671258176507
18200.0000000156,70.2949183409779,1.00000000051489,0.48484195980521
18300.0000000142,70.1803135184152,1.00000000048093,0.495484845875161
18400.0000000127,70.0700750039546,1.00000000045588,0.499458068659553
18500.0000000113,69.9718811072528,1.00000000039368,0.498953159767808
18600.0000000098,69.8884168603912,1.00000000038189,0.497854956717563
18700.0000000084,69.8147912272457,1.00000000042186,0.504597399338706
18800.0000000069,69.7393338188569,1.00000000049231,0.517329422025918
18900.0000000055,69.6488797183934,1.00000000054013,0.527495915441291
19000.000000004,69.5356430854534,1.00000000056075,0.53349537433489
19100.0000000026,69.396806821567,1.00000000052765,0.537575618999399
19200.0000000011,69.2355405157541,1.0000000005258,0.539685366240499
19299.9999999996,69.059435768209,1.00000000052174,0.544638593361402
19399.9999999982,68.8782988375287,1.0000000004679,0.547953486748449
19499.9999999967,68.6987473469644,1.00000000041852,0.540656738235139
19599.9999999953,68.5251265390317,1.00000000038842,0.528380373025654
19699.9999999938,68.3597865682974,1.00000000039206,0.522936739179767
19799.9999999924,68.2000075033497,1.00000000041442,0.522889075805357
19899.9999999909,68.0404192672675,1.00000000044566,0.520999010537313
19999.9999999895,67.8752657146374,1.0000000004996,0.518636394213541
20099.999999988,67.7007128871027,1.00000000055931,0.521974498139
20199.9999999865,67.5143153059935,1.00000000054995,0.528843448630037
20299.9999999851,67.3144595511635,1.00000000057955,0.53816890936516
20399.9999999836,67.1018991290481,1.00000000058909,0.548391843150604
20499.9999999822,66.881501671308,1.00000000056069,0.55388909110295
20599.9999999807,66.661449043182,1.00000000049479,0.547122662699223
20699.9999999793,66.4511379838012,1.00000000040643,0.531164587916264
20799.9999999778,66.2604615672699,1.0000000003807,0.507918856949652
20899.9999999764,66.097519331129,1.00000000032996,0.485342407831249
20999.9999999749,65.9676685048143,1.00000000034527,0.470701155584693
21099.9999999734,65.8724190565684,1.0000000003451,0.457010613317613
21199.999999972,65.8102637379166,1.00000000037528,0.45446947271258
21299.9999999705,65.7775207753819,1.00000000036529,0.455888691439765
21399.9999999691,65.7674556900307,1.00000000040341,0.454597601650452
21499.9999999676,65.7718587634197,1.00000000046899,0.455152310643516
21599.9999999662,65.7816786385503,1.00000000051201,0.459428542172309
21699.9999999647,65.7923036784336,1.0000000004901,0.465895009015259
21799.9999999633,65.8053868266382,1.00000000045454,0.466395499579235
21899.9999999618,65.8247352330301,1.00000000042852,0.465465698118579
21999.9999999603,65.8526213274772,1.00000000042245,0.473985363292512
22099.9999999589,65.8863188728894,1.00000000045034,0.489090385652943
22199.9999999574,65.9205514246107,1.00000000046409,0.503553702634277
22299.999999956,65.949471332425,1.00000000051619,0.513917487739873
22399.9999999545,65.968945443088,1.00000000052968,0.525289876056254
22499.9999999531,65.978362782964,1.00000000049941,0.53505364780258
22599.9999999516,65.9806068807426,1.00000000047673,0.541009251197925
22699.9999999502,65.9800706880987,1.00000000046766,0.541360372171736
22799.9999999487,65.9784224303366,1.00000000045153,0.539951015452455
22899.9999999473,65.9749394161028,1.0000000004624,0.540366043886441
22999.9999999458,65.9681950703031,1.00000000047225,0.545695836158564
23099.9999999443,65.9561057879228,1.00000000045826,0.5492331443062
23199.9999999429,65.9353916427812,1.00000000046376,0.54818072725194
23299.9999999414,65.9039401440302,1.00000000047058,0.54670736519959
23399.99999994,65.8601243738165,1.00000000049475,0.544234119483904
23499.9999999385,65.8026959530497,1.00000000050473,0.543123110046014
23599.9999999371,65.7304652340679,1.00000000049276,0.539831616153466
23699.9999999356,65.6440191155042,1.00000000050253,0.530768638769945
23799.9999999342,65.5459902161527,1.00000000051107,0.528927216419688
23899.9999999327,65.4398154711559,1.00000000051638,0.535336059083418
23999.9999999312,65.3276392543639,1.0000000005066,0.541756554095586
24099.9999999298,65.210823009507,1.0000000005036,0.547773790316989
24199.9999999283,65.0912256333881,1.00000000046934,0.550823993961464
24299.9999999269,64.9713613541613,1.00000000041518,0.547656936325675
24399.9999999254,64.8543234447839,1.00000000039806,0.543815382804202
24499.999999924,64.7422221629178,1.00000000039724,0.542718831099561
24599.9999999225,64.6345837608644,1.00000000041105,0.545165229450424
24699.9999999211,64.5291712620905,1.00000000041331,0.544056370966353
24799.9999999196,64.4234195041225,1.00000000042996,0.541749335476534
24899.9999999181,64.3152100913963,1.0000000004678,0.542747955791555
24999.9999999167,64.2024606718819,1.00000000049558,0.542276840733298
25099.9999999152,64.0835971312555,1.00000000051063,0.539120565458412
25199.9999999138,63.9572954946964,1.00000000052811,0.533817795097837
25299.9999999123,63.822942062333,1.00000000056932,0.531461784065131
25399.9999999109,63.680164499595,1.00000000059045,0.535762948025081
25499.9999999094,63.5285155763158,1.00000000060052,0.541084281217681
25599.999999908,63.3700485135205,1.00000000056423,0.546758633609198
25699.9999999065,63.2095499903025,1.00000000051703,0.548730062523302
25799.9999999051,63.0529916616695,1.00000000046315,0.544027914435988
25899.9999999036,62.9070439821187,1.00000000039915,0.534014566408065
25999.9999999021,62.7782981397176,1.00000000036371,0.518450989978877
26099.9999999007,62.6721756073982,1.00000000036592,0.503786619394954
26199.9999998992,62.5926281272683,1.00000000035562,0.493389186571036
26299.9999998978,62.541529948681,1.00000000034129,0.483616329886151
26399.9999998963,62.5196507742957,1.00000000037679,0.475866292504174
26499.9999998949,62.5251148190761,1.0000000003719,0.469192462129095
26599.9999998934,62.5551455652074,1.00000000038851,0.46531156168195
26699.999999892,62.6057855615648,1.00000000040843,0.464047733684263
26799.9999998905,62.6701691102598,1.00000000045639,0.465233671198368
26899.999999889,62.7421178413762,1.00000000048993,0.472864272622797
26999.9999998876,62.8188598373796,1.00000000046061,0.478589145457531
27099.9999998861,62.9006017163934,1.00000000048961,0.478820196067632
27199.9999998847,62.9884390248243,1.00000000043193,0.474480852472088
27299.9999998832,63.0817842739415,1.00000000045704,0.474646209908108
27399.9999998818,63.1783101693337,1.00000000047916,0.48094556494024
27499.9999998803,63.2768566579877,1.0000000004601,0.489864867986453
27599.9999998789,63.3775166806872,1.00000000044873,0.497049186178582
27699.9999998774,63.4807014533179,1.0000000004551,0.505804030488758
27799.9999998759,63.5845813418551,1.00000000044513,0.515173484815187
27899.9999998745,63.686215545442,1.00000000046286,0.524722655179768
27999.999999873,63.7836549906312,1.00000000046374,0.534061726393426
28099.9999998716,63.8755753478792,1.00000000048728,0.543478941236081
28199.9999998701,63.9611656671096,1.00000000050652,0.550334035886054
28299.9999998687,64.0399672079823,1.00000000046432,0.555831330044594
28399.9999998672,64.111577693714,1.00000000045425,0.561935958600587
28499.9999998658,64.1750742060077,1.00000000046603,0.565359868102379
28599.9999998643,64.2295360601241,1.00000000050072,0.565443950283276
28699.9999998629,64.2735626909704,1.00000000052607,0.565783740685478
28799.9999998614,64.3063707846627,1.00000000051972,0.569479794781485
28899.9999998599,64.3281659391506,1.00000000050009,0.57143719547478
28999.9999998585,64.3406525084291,1.00000000048676,0.573091102447291
