Time,AGPnorm,Energy,Entropy
0,0,1,-7.28779529617904e-17
99.9999999999986,0.00183331951506978,0.999999999998874,0.00556119361149301
199.999999999993,0.0124242575179773,0.999999999997927,0.0160872885899869
300,0.0247364015760435,0.999999999999121,0.0296017121591537
400.000000000022,0.0364542166795749,1.00000000000027,0.0468959687797761
500.000000000045,0.0512562363319225,0.999999999999004,0.0680072068328123
600.000000000068,0.0702394692736166,0.999999999997852,0.0926959650504133
700.000000000091,0.0878093235128439,0.999999999998879,0.12135182809956
800.000000000113,0.105488094490969,1.00000000000215,0.156372622385008
900.000000000136,0.122503776109557,1.00000000002687,0.201587519684873
1000.00000000016,0.137789514403222,1.00000000017129,0.258282091874018
1100.0000000001,0.169316052542496,1.00000000047314,0.318463402405406
1200,0.259720919909425,1.00000000093572,0.373363905166757
1299.99999999991,0.447616815453698,1.0000000014386,0.420846571687689
1399.99999999982,0.846018869283366,1.00000000177749,0.460735749812286
1499.99999999973,1.59077656239074,1.00000000207903,0.492763551844194
1599.99999999964,2.72697413713912,1.00000000223125,0.519203646494385
1699.99999999955,4.26200886187755,1.00000000245424,0.540922882234713
1799.99999999946,6.22637299313264,1.0000000025332,0.557223898532012
1899.99999999937,8.59338730026734,1.00000000259748,0.569007392623403
1999.99999999928,11.257303739487,1.00000000246984,0.578772294396876
2099.99999999919,14.1309105343116,1.00000000241522,0.586065803039806
2199.99999999909,17.1680852416211,1.0000000024494,0.589986229490111
2299.999999999,20.2888123835196,1.0000000023872,0.592121158913803
2399.99999999891,23.3810763293936,1.00000000234148,0.592470667361793
2499.99999999882,26.3637372043114,1.00000000223371,0.594030453049961
2599.99999999873,29.2061917403293,1.00000000203243,0.593331375518913
2699.99999999864,31.8762217124423,1.00000000212007,0.590588753706189
2799.99999999855,34.3220765068318,1.00000000198819,0.588789320374278
2899.99999999846,36.5040883413101,1.0000000019307,0.587631574633102
2999.99999999837,38.4108576639904,1.0000000018454,0.585767275728868
3099.99999999828,40.0536964094367,1.00000000176866,0.582199213549841
3199.99999999819,41.4321996210473,1.00000000167795,0.579273614024931
3299.99999999809,42.5412725255401,1.00000000160195,0.579320044379577
3399.999999998,43.3893771929518,1.00000000150786,0.574680847655983
3499.99999999791,43.9976532233353,1.00000000150861,0.578836285518365
3599.99999999782,44.3809746635373,1.00000000144726,0.572843493040689
3699.99999999773,44.577934221003,1.00000000136545,0.570659438048401
3799.99999999764,44.5864460302548,1.00000000133544,0.571984166954431
3899.99999999755,44.4542213808473,1.00000000141317,0.570245975159934
3999.99999999746,44.1776433352378,1.00000000129326,0.560352907991366
4099.99999999738,43.8268279202995,1.00000000148005,0.568559506488182
4199.99999999775,43.3711410918729,1.00000000114732,0.538527891072154
4299.99999999811,42.8686859865781,1.00000000167771,0.577839216916797
4399.99999999848,42.3161233114687,1.00000000108558,0.52673019431185
4499.99999999884,41.7086224967648,1.00000000172434,0.577452956320918
4599.9999999992,41.1148250038495,1.00000000151331,0.54598924878836
4699.99999999957,40.4744280757605,1.00000000115832,0.510518211160888
4799.99999999993,39.8284967982504,1.00000000180656,0.579316454212916
4900.00000000029,39.2030567097279,1.00000000134987,0.518709039356037
5000.00000000066,38.5494776610049,1.00000000126263,0.504386370800585
5100.00000000102,37.9011833297109,1.00000000184065,0.564574719594331
5200.00000000139,37.2816079015745,1.00000000148539,0.520605291120573
5300.00000000175,36.6583857539246,1.00000000119123,0.498962719317356
5400.00000000211,36.0308605515166,1.00000000153538,0.525719256269831
5500.00000000248,35.4270371357034,1.00000000181356,0.545885793371663
5600.00000000284,34.8416488885869,1.00000000139766,0.499653322889128
5700.00000000321,34.2630094978154,1.00000000127673,0.508224491761316
5800.00000000357,33.6916099995525,1.00000000152591,0.519190595407198
5900.00000000393,33.1378023662859,1.00000000167808,0.53592379516443
6000.0000000043,32.6017923302555,1.00000000153632,0.511845397911568
6100.00000000466,32.0817573861153,1.00000000122404,0.509096546282765
6200.00000000502,31.5753974369776,1.00000000153334,0.535110725575136
6300.00000000539,31.0838040291773,1.00000000139447,0.513621440809664
6400.00000000575,30.607936705424,1.00000000170843,0.530325650160258
6500.00000000612,30.1464960790828,1.00000000145326,0.514849575632442
6600.00000000648,29.7050661656786,1.00000000123556,0.506983615620085
6700.00000000684,29.2787168003469,1.00000000158594,0.539207962463608
6800.00000000721,28.8662790990802,1.00000000130204,0.5206869131941
6900.00000000757,28.4731358718069,1.00000000140783,0.505298345939155
7000.00000000793,28.0919287089899,1.00000000160424,0.523657770178629
7100.0000000083,27.7208736861408,1.00000000139306,0.510275202669579
7200.00000000866,27.369943069047,1.00000000126677,0.511845998666018
7300.00000000903,27.0321887200202,1.00000000164626,0.533604310270785
7400.00000000939,26.7010820066265,1.00000000150338,0.534728723644078
7500.00000000975,26.3883537946814,1.00000000124891,0.504239371713689
7600.00000001012,26.0922987445262,1.00000000148718,0.511574625626258
7700.00000001048,25.80435675991,1.00000000161007,0.527589895989575
7800.00000001084,25.5244665941524,1.00000000153084,0.513894645939669
7900.00000001121,25.2596923952754,1.00000000139697,0.517441219262034
8000.00000001157,25.0072535693431,1.00000000142494,0.534003381558826
8100.00000001194,24.7604439524734,1.00000000157833,0.529763603746585
8200.0000000123,24.5193168653281,1.00000000144471,0.529921934406183
8300.00000001266,24.2908905935065,1.00000000140726,0.527274405366251
8400.00000001303,24.0757847211187,1.00000000143454,0.507823940956703
8500.00000001339,23.8719294035589,1.00000000158185,0.531342019572966
8600.00000001376,23.6748703033187,1.00000000166873,0.533537417457982
8700.00000001412,23.4857633812132,1.00000000143044,0.526611438967988
8800.00000001448,23.3086747435586,1.00000000151111,0.533581835333461
8900.00000001485,23.1367906924924,1.00000000148986,0.543050877168591
9000.00000001521,22.9747189757834,1.000000001377,0.532867706218668
9100.00000001557,22.8207711777397,1.00000000151497,0.530399534347249
9200.00000001594,22.666744668995,1.0000000017287,0.543650622056248
9300.0000000163,22.5125498527472,1.0000000014599,0.55052127004141
9400.00000001667,22.3668381351232,1.00000000139824,0.52963648316452
9500.00000001703,22.2355981331006,1.00000000148447,0.531017973614723
9600.00000001739,22.1125682519029,1.00000000155675,0.549737002231617
9700.00000001776,21.9917258854866,1.00000000157935,0.541413235815991
9800.00000001812,21.8776141814848,1.00000000145835,0.544500464722638
9900.00000001848,21.7727127780418,1.00000000144392,0.543854897211158
10000.0000000188,21.6715148848936,1.00000000159627,0.544993991350482
10100.0000000192,21.5691335442213,1.00000000157127,0.551941494864529
10200.0000000196,21.477093978782,1.00000000129064,0.528616305517648
10300.0000000199,21.3959130665373,1.0000000014499,0.54370862570596
10400.0000000203,21.3122056592549,1.00000000167048,0.54686092850668
10500.0000000207,21.2217690972112,1.00000000162784,0.552070050759881
10600.000000021,21.1270503562645,1.00000000157725,0.565965264907608
10700.0000000214,21.0377644451662,1.0000000015086,0.561253717590702
10800.0000000218,20.9531108368166,1.00000000153607,0.563999644627423
10900.0000000221,20.8748551962509,1.00000000156034,0.561955409638106
11000.0000000225,20.8028282438783,1.00000000152092,0.551860888760727
11100.0000000229,20.7381457221109,1.00000000153554,0.549279206466266
11200.0000000232,20.6798995895563,1.00000000159292,0.553107864761189
11300.0000000236,20.6286395731963,1.00000000167596,0.561744782206117
11400.0000000239,20.5771625381272,1.00000000153083,0.566921644688322
11500.0000000243,20.5311749631301,1.00000000154811,0.560346994834528
11600.0000000247,20.4851890228421,1.00000000162366,0.561288140659973
11700.000000025,20.4420079593491,1.0000000015339,0.562593756034011
11800.0000000254,20.4041463644514,1.00000000156868,0.556541730879089
11900.0000000258,20.368813159094,1.00000000168608,0.569997234414096
12000.0000000261,20.3321683192894,1.00000000152142,0.574760991365196
12100.0000000265,20.2977144022067,1.00000000144608,0.563684370033198
12200.0000000269,20.2611017914264,1.00000000160707,0.577328557771536
12300.0000000272,20.2176640616747,1.00000000172064,0.589769215401429
12400.0000000276,20.1639329128139,1.00000000177235,0.608242090941526
12500.0000000279,20.10489485749,1.00000000161312,0.608028589199482
12600.0000000283,20.0487719215499,1.00000000152603,0.594251841591799
12700.0000000287,20.0018734544159,1.00000000155495,0.587962399686983
12800.000000029,19.9633366253549,1.00000000152608,0.578514841484992
12900.0000000294,19.9333711702902,1.00000000152778,0.566787884498144
13000.0000000298,19.9091304856738,1.00000000164286,0.572918466329249
13100.0000000301,19.8890525234811,1.00000000155455,0.581277163026061
13200.0000000305,19.8734268474528,1.00000000164033,0.589686093014687
13300.0000000309,19.8598904821604,1.00000000170265,0.586597502423123
13400.0000000312,19.8426154662087,1.00000000153653,0.584015303533835
13500.0000000316,19.8310548917605,1.00000000146789,0.579047282513283
13600.0000000319,19.8274633297239,1.00000000155521,0.575707775257643
13700.0000000323,19.8232580338813,1.00000000173548,0.577377532904927
13800.0000000327,19.8153825398978,1.00000000160671,0.582881264387394
13900.000000033,19.8095443744022,1.00000000148534,0.582933610581282
14000.0000000334,19.8087201616257,1.00000000160863,0.591345139934963
14100.0000000338,19.8069851929698,1.00000000171543,0.600501479730372
14200.0000000341,19.7985559934992,1.00000000165424,0.608767810810341
14300.0000000345,19.7876899103971,1.00000000162819,0.611261023653335
14400.0000000349,19.7766768461572,1.00000000159899,0.614946182474873
14500.0000000352,19.7651522945918,1.00000000162196,0.610725335818791
14600.0000000356,19.747807748639,1.00000000172047,0.614400509392351
14700.0000000359,19.7235117812572,1.00000000170254,0.613599981064445
14800.0000000363,19.6896321473,1.00000000184366,0.608520262386125
14900.0000000367,19.6472253047425,1.00000000171489,0.614234365045017
15000.000000037,19.6010835726043,1.00000000160846,0.617400904159296
15100.0000000374,19.5587355775903,1.00000000149205,0.610606167699564
15200.0000000378,19.5245593019129,1.00000000164639,0.603937264340891
15300.0000000381,19.4983993918984,1.00000000153575,0.596222089822709
15400.0000000385,19.4793513720593,1.00000000165161,0.590512685018978
15500.0000000389,19.4685841820138,1.00000000160855,0.5905865418585
15600.0000000392,19.4633485710209,1.00000000156345,0.587569520703579
15700.0000000396,19.4634857381714,1.00000000163924,0.596968671803211
15800.0000000399,19.4669576264524,1.00000000162826,0.602034143505757
15900.0000000403,19.471490863035,1.00000000163759,0.601631770531598
16000.0000000407,19.4780003773209,1.00000000156904,0.600655122929057
16100.000000041,19.4858678054049,1.00000000168048,0.597334056860772
16200.0000000414,19.4968917946036,1.00000000151128,0.586691931951108
16300.0000000418,19.5115039968551,1.0000000017347,0.592382442405102
16400.0000000418,19.5255221443014,1.00000000162182,0.594437055245187
16500.0000000404,19.5389132175564,1.00000000164797,0.601435204897758
16600.0000000389,19.5520342942725,1.0000000016845,0.600850693924227
16700.0000000375,19.5633401672393,1.00000000166317,0.59379284138286
16800.000000036,19.5727090353449,1.00000000170802,0.589514036846474
16900.0000000346,19.584128440526,1.00000000159646,0.587245302467136
17000.0000000331,19.5955070331221,1.00000000168882,0.597968194713461
17100.0000000317,19.606397794155,1.00000000168384,0.613384651951532
17200.0000000302,19.6185125522527,1.00000000171142,0.616679073292272
17300.0000000287,19.6276853079091,1.00000000169985,0.616196662213486
17400.0000000273,19.6338586342619,1.00000000182231,0.62170679010861
17500.0000000258,19.6338263558482,1.00000000170355,0.626294118623199
17600.0000000244,19.6311517361043,1.00000000170959,0.628291043482988
17700.0000000229,19.6259308795487,1.0000000017494,0.637080147860561
17800.0000000215,19.6175825935543,1.00000000167056,0.63679667733018
17900.00000002,19.6072544905903,1.00000000173277,0.635115395123352
18000.0000000186,19.5936736455516,1.00000000171369,0.63763465705467
18100.0000000171,19.5795184280778,1.0000000016869,0.632553851030971
18200.0000000156,19.5645339690245,1.00000000171051,0.634945218115921
18300.0000000142,19.5444831938525,1.00000000171328,0.628116060453734
18400.0000000127,19.5174032143522,1.00000000181279,0.630642981145866
18500.0000000113,19.4825690277117,1.00000000177654,0.626276534328823
18600.0000000098,19.4429595150287,1.00000000178982,0.626380829253563
18700.0000000084,19.4005584108303,1.00000000177437,0.62539564708212
18800.0000000069,19.3610112718487,1.00000000152274,0.61548715727313
18900.0000000055,19.3262004472441,1.00000000164885,0.614744029669678
19000.000000004,19.2976423135914,1.00000000170041,0.619328389387779
19100.0000000026,19.2750316372674,1.00000000163623,0.617077657962721
19200.0000000011,19.2589720778527,1.000000001657,0.614172229242694
19299.9999999996,19.2501337321225,1.00000000172584,0.612812935919391
19399.9999999982,19.2489163245028,1.00000000169181,0.608376585732801
19499.9999999967,19.2522263664897,1.00000000178007,0.597733273234398
19599.9999999953,19.2593590991979,1.0000000017986,0.592012151026851
19699.9999999938,19.2709677512614,1.00000000171116,0.598498931685945
19799.9999999924,19.2845018906147,1.00000000192074,0.608502002485828
19899.9999999909,19.2993420264187,1.00000000180863,0.609761053085697
19999.9999999895,19.3171611837358,1.00000000185354,0.607354596661063
20099.999999988,19.3354537886757,1.00000000178201,0.607122979898859
20199.9999999865,19.3563447227292,1.00000000176367,0.606283024181777
20299.9999999851,19.3813460745839,1.00000000172561,0.600710069432921
20399.9999999836,19.4078223248815,1.00000000171155,0.598003352271463
20499.9999999822,19.4368735757731,1.00000000171221,0.60010580245332
20599.9999999807,19.4663175929406,1.00000000182084,0.605444369745479
20699.9999999793,19.4934755773353,1.00000000182402,0.603276378883855
20799.9999999778,19.5175614540461,1.00000000181681,0.605297767798171
20899.9999999764,19.542947746271,1.00000000168462,0.605752247304877
20999.9999999749,19.5703775535009,1.00000000186848,0.604027604109033
21099.9999999734,19.5934791412887,1.00000000188477,0.608270726563597
21199.999999972,19.6133940258926,1.00000000184383,0.612301571188959
21299.9999999705,19.6326319838393,1.00000000181033,0.616000289155961
21399.9999999691,19.653590220573,1.00000000168206,0.622487862878677
21499.9999999676,19.6745885450421,1.00000000181266,0.63804793360323
21599.9999999662,19.6938501995454,1.00000000195591,0.642106773488669
21699.9999999647,19.709868486303,1.00000000188032,0.64533933772691
21799.9999999633,19.7223015668146,1.0000000019594,0.646751109240263
21899.9999999618,19.731109366736,1.00000000184134,0.646814909696246
21999.9999999603,19.7409079225893,1.0000000017831,0.641849508347966
22099.9999999589,19.7527169403901,1.00000000181164,0.646952406472111
22199.9999999574,19.764570725528,1.000000001799,0.644727184446764
22299.999999956,19.7767543851044,1.00000000183173,0.643523431119751
22399.9999999545,19.7856415564585,1.00000000194246,0.64588950085241
22499.9999999531,19.7914068322673,1.00000000179402,0.651750774960361
22599.9999999516,19.7969835957932,1.00000000176095,0.647036428710392
22699.9999999502,19.8008258052584,1.00000000189044,0.652832306268433
22799.9999999487,19.8011482043207,1.00000000191901,0.65567275944177
22899.9999999473,19.8017207649946,1.00000000175116,0.657933318433134
22999.9999999458,19.8034279092112,1.00000000174325,0.649595274953315
23099.9999999443,19.807368173128,1.00000000181936,0.640914668401886
23199.9999999429,19.8063310940986,1.00000000189296,0.64782045632036
23299.9999999414,19.8009242493971,1.0000000018505,0.649370425586493
23399.99999994,19.7949492692908,1.00000000187679,0.647381886189758
23499.9999999385,19.7860851473556,1.00000000198463,0.646991212226016
23599.9999999371,19.7726735721468,1.00000000190687,0.6631265238229
23699.9999999356,19.7577509384402,1.00000000182749,0.658745633140436
23799.9999999342,19.7424354476498,1.00000000185824,0.654719462480844
23899.9999999327,19.72673975573,1.00000000185544,0.664051358965736
23999.9999999312,19.7088512310579,1.00000000195725,0.666239232462012
24099.9999999298,19.6897974996099,1.00000000180183,0.661055025677962
24199.9999999283,19.6703941129994,1.00000000185603,0.655588215110643
24299.9999999269,19.6508240813421,1.00000000184883,0.65584787321993
24399.9999999254,19.6303436208058,1.0000000018615,0.656163505442243
24499.999999924,19.609326382725,1.00000000195433,0.658871797302584
24599.9999999225,19.5856529778407,1.00000000203668,0.658488067072403
24699.9999999211,19.5589374277401,1.00000000204479,0.662754340798908
24799.9999999196,19.5281306171288,1.00000000206705,0.673452657565408
24899.9999999181,19.4936217254475,1.00000000206801,0.671945032918167
24999.9999999167,19.4579399452928,1.00000000194457,0.668367944714465
25099.9999999152,19.4223293000038,1.0000000018709,0.661857095284655
25199.9999999138,19.3893887886566,1.00000000183101,0.649346499556701
25299.9999999123,19.3610594537866,1.00000000182338,0.64837395083073
25399.9999999109,19.3381127469855,1.00000000182135,0.646904525809134
25499.9999999094,19.3214811355433,1.00000000185793,0.652152996376347
25599.999999908,19.3106193774685,1.00000000191773,0.655078025513119
25699.9999999065,19.3046413099066,1.00000000199388,0.658714021705306
25799.9999999051,19.304440420144,1.00000000175252,0.650146270861788
25899.9999999036,19.3100188146253,1.00000000196594,0.648400520548623
25999.9999999021,19.3196686944906,1.00000000186115,0.641399400771173
26099.9999999007,19.3346919732028,1.00000000197406,0.636045937940887
26199.9999998992,19.3526170524611,1.00000000201067,0.633778861719398
26299.9999998978,19.3730808384848,1.00000000195475,0.631707925646748
26399.9999998963,19.3973641279772,1.00000000190852,0.631596418129099
26499.9999998949,19.4237622976629,1.00000000196187,0.632869827536141
26599.9999998934,19.4517953707968,1.00000000198228,0.633560047608165
26699.999999892,19.482800781177,1.00000000196303,0.630962536529444
26799.9999998905,19.5165013026561,1.00000000189158,0.624706253206155
26899.999999889,19.5507298206768,1.00000000204645,0.624234513581112
26999.9999998876,19.5881576842829,1.00000000191502,0.623316594881964
27099.9999998861,19.6303988720733,1.00000000193973,0.620671222808638
27199.9999998847,19.6748425823095,1.00000000206059,0.619887879559286
27299.9999998832,19.720645679524,1.00000000209455,0.61884296210209
27399.9999998818,19.7649318197187,1.00000000209203,0.62746603329946
27499.9999998803,19.8103595717164,1.00000000198466,0.624297320965861
27599.9999998789,19.8560199905454,1.00000000209941,0.627815680382363
27699.9999998774,19.900478486761,1.00000000202097,0.621046633525327
27799.9999998759,19.9440111196637,1.00000000217338,0.624022624233845
27899.9999998745,19.9881955155293,1.00000000201163,0.621224245102217
27999.999999873,20.0327967595098,1.00000000205608,0.618237050512097
28099.9999998716,20.077701319912,1.00000000212237,0.62393413855162
28199.9999998701,20.1208140389796,1.00000000203826,0.618948068314786
28299.9999998687,20.161991574028,1.00000000218762,0.629032065718189
28399.9999998672,20.2018907964103,1.00000000216712,0.632093862373996
28499.9999998658,20.2405032586369,1.00000000210739,0.636653038207959
28599.9999998643,20.2788816121067,1.00000000199575,0.643692892678187
28699.9999998629,20.3179950653849,1.00000000199671,0.642454258992498
28799.9999998614,20.3572105217512,1.00000000203668,0.647205524545779
28899.9999998599,20.3962430343474,1.00000000212941,0.649063532667841
28999.9999998585,20.4321683574937,1.00000000213424,0.657193974402874
