Time,AGPnorm,Energy,Entropy
0,0,1,-7.29923610512124e-17
99.9999999999986,0.0014099207139043,0.999999999998589,0.00454590880784153
199.999999999993,0.00976049684649225,1.0000000000002,0.0133833961589137
300,0.0198545064981768,1.00000000000229,0.0249616128750042
400.000000000022,0.029563198559887,1.00000000000134,0.0396035784087337
500.000000000045,0.0423216566758232,0.999999999998629,0.0571595820162315
600.000000000068,0.0581529938432719,0.999999999998915,0.0774293784212381
700.000000000091,0.0738325853378082,1.00000000000183,0.100845760920576
800.000000000113,0.0887369990751039,1.00000000000249,0.128230196668456
900.000000000136,0.105474249812239,1.00000000000203,0.161178169143378
1000.00000000016,0.121688503749132,1.00000000002389,0.202357278813814
1100.0000000001,0.139199514318846,1.00000000012157,0.252864516910962
1200,0.170541398506504,1.00000000035077,0.307662760011369
1299.99999999991,0.229995153099901,1.00000000065942,0.358892113294699
1399.99999999982,0.375067457812832,1.00000000101296,0.403553426138047
1499.99999999973,0.711083197510998,1.00000000126634,0.44121674342814
1599.99999999964,1.32598339851452,1.00000000157905,0.473336436445995
1699.99999999955,2.28548107242157,1.00000000172936,0.500600702933949
1799.99999999946,3.666944219471,1.00000000194381,0.522227889073786
1899.99999999937,5.4936286814455,1.00000000189522,0.539269873209533
1999.99999999928,7.71510710748936,1.00000000209973,0.553277851733149
2099.99999999919,10.3017231946792,1.0000000020163,0.565057413005243
2199.99999999909,13.2382058671137,1.00000000209891,0.573007645990936
2299.999999999,16.4478381896794,1.00000000209147,0.578074629972265
2399.99999999891,19.8018436867039,1.00000000196161,0.582584259940014
2499.99999999882,23.216959776285,1.00000000201792,0.585847090614044
2599.99999999873,26.6668238996304,1.00000000189604,0.58710534425329
2699.99999999864,30.0931090796295,1.00000000183793,0.586692854843963
2799.99999999855,33.4008982183143,1.00000000176014,0.585922059587374
2899.99999999846,36.5212403282823,1.00000000169748,0.585840634670799
2999.99999999837,39.4364454577816,1.00000000164362,0.583481451218083
3099.99999999828,42.1425723889275,1.00000000159497,0.580502565838174
3199.99999999819,44.604570672125,1.00000000156639,0.578603110904766
3299.99999999809,46.7860201934511,1.00000000149974,0.578880490813426
3399.999999998,48.6770281891734,1.00000000147126,0.576553537568808
3499.99999999791,50.2992124904036,1.00000000139527,0.573315787324188
3599.99999999782,51.6591554088997,1.00000000136721,0.572695471766685
3699.99999999773,52.7552834924326,1.00000000130482,0.566762694315328
3799.99999999764,53.5916104239835,1.00000000125822,0.571789754486913
3899.99999999755,54.1841563228054,1.00000000123957,0.565127021186988
3999.99999999746,54.5585521598522,1.00000000112728,0.569679944238154
4099.99999999738,54.7522026170535,1.0000000011215,0.560354506254698
4199.99999999775,54.7493233532765,1.00000000112567,0.56533852391575
4299.99999999811,54.6190584379577,1.00000000122736,0.564003287384785
4399.99999999848,54.3288293483712,1.00000000102634,0.543795932889558
4499.99999999884,53.9548695248212,1.00000000145128,0.579443907846526
4599.9999999992,53.5031676007471,1.00000000098212,0.530558176108935
4699.99999999957,52.9465064339749,1.0000000012478,0.561011603604274
4799.99999999993,52.3792211581557,1.00000000134102,0.562624801547112
4900.00000000029,51.7474112905269,1.00000000083442,0.508727883544969
5000.00000000066,51.0580957531157,1.00000000133538,0.562971840105527
5100.00000000102,50.3964304768073,1.00000000136628,0.558870810307957
5200.00000000139,49.7036362936984,1.00000000088199,0.493684358919975
5300.00000000175,48.9632173137909,1.0000000012261,0.534840400984678
5400.00000000211,48.2528024455558,1.00000000159924,0.57195638506526
5500.00000000248,47.5577444083051,1.00000000103028,0.499656206595303
5600.00000000284,46.833010669348,1.00000000095519,0.481260744014068
5700.00000000321,46.1051911698788,1.00000000147016,0.548659253591348
5800.00000000357,45.4130298184955,1.00000000143494,0.548162000700742
5900.00000000393,44.7342319630566,1.00000000098549,0.482799763845754
6000.0000000043,44.046696140295,1.00000000097447,0.481425769660204
6100.00000000466,43.3631166210654,1.00000000136161,0.517038230693779
6200.00000000502,42.704090008357,1.00000000152979,0.548962683396195
6300.00000000539,42.0676130208534,1.00000000122137,0.501695686282333
6400.00000000575,41.4402250300583,1.00000000094093,0.479958241633395
6500.00000000612,40.8211558936521,1.00000000109693,0.501665851906387
6600.00000000648,40.2145536112085,1.0000000012003,0.512419594522708
6700.00000000684,39.6257972300955,1.00000000144538,0.53662462349433
6800.00000000721,39.054726293203,1.00000000132779,0.516983644240488
6900.00000000757,38.5001483345858,1.00000000101686,0.482945454132829
7000.00000000793,37.9625711580378,1.00000000116731,0.505729519713684
7100.0000000083,37.4394109192831,1.00000000114842,0.520751156177731
7200.00000000866,36.9321726696986,1.00000000114652,0.503267402690713
7300.00000000903,36.4402737351382,1.00000000131681,0.523509531591438
7400.00000000939,35.9597242700806,1.00000000130313,0.519134377517247
7500.00000000975,35.4962784751834,1.00000000102345,0.495532946147064
7600.00000001012,35.0549658848884,1.00000000106325,0.499367402965972
7700.00000001048,34.6278289713377,1.00000000139081,0.520590461741154
7800.00000001084,34.2112578088819,1.0000000011351,0.521939928801936
7900.00000001121,33.8139641533712,1.00000000104297,0.48758650239989
8000.00000001157,33.4314169766292,1.00000000125888,0.518040527282641
8100.00000001194,33.0534673618937,1.00000000146142,0.528768320739009
8200.0000000123,32.6851693257897,1.0000000011297,0.506273411967589
8300.00000001266,32.3378255700867,1.00000000103414,0.494255478994749
8400.00000001303,32.008841262197,1.00000000117616,0.511175213742931
8500.00000001339,31.6865934053932,1.00000000135153,0.520962559794794
8600.00000001376,31.3692302405978,1.00000000126135,0.524357634257513
8700.00000001412,31.0693299406527,1.00000000101886,0.503344872210452
8800.00000001448,30.7853241012033,1.00000000114084,0.502818414169134
8900.00000001485,30.5067000927655,1.00000000139911,0.533470524932276
9000.00000001521,30.230952807183,1.00000000136799,0.531302585949668
9100.00000001557,29.9622508200424,1.00000000110787,0.514370522527437
9200.00000001594,29.7114335599263,1.00000000107414,0.507269955145781
9300.0000000163,29.4751035727993,1.00000000115135,0.522596535114267
9400.00000001667,29.2477792515898,1.00000000117425,0.525572866277695
9500.00000001703,29.0267197893074,1.00000000125853,0.52463258535223
9600.00000001739,28.8106476887612,1.00000000120713,0.519716356221598
9700.00000001776,28.6005633474224,1.00000000118888,0.537674052059845
9800.00000001812,28.3978338023237,1.00000000113392,0.531940389020393
9900.00000001848,28.2036573562932,1.00000000113034,0.523130428751566
10000.0000000188,28.016725372885,1.00000000125071,0.536745418320452
10100.0000000192,27.8350366229784,1.00000000133699,0.54355584453089
10200.0000000196,27.6577229669457,1.00000000137204,0.536316669618096
10300.0000000199,27.4915887939067,1.00000000108758,0.525584372398691
10400.0000000203,27.3413470825863,1.00000000113779,0.520592329657091
10500.0000000207,27.1977586816277,1.00000000127766,0.534434402559132
10600.000000021,27.0541371272809,1.00000000126109,0.536132470977314
10700.0000000214,26.9217004182126,1.00000000109338,0.516870790668355
10800.0000000218,26.8023505988594,1.00000000116724,0.527929427522026
10900.0000000221,26.6852699581985,1.00000000131172,0.531977508658874
11000.0000000225,26.5594721573437,1.00000000141386,0.555599957964515
11100.0000000229,26.4267329662141,1.00000000126413,0.564598785804687
11200.0000000232,26.2969854224164,1.00000000112401,0.552289740226473
11300.0000000236,26.1751169021155,1.00000000110642,0.542796336494102
11400.0000000239,26.0600095518204,1.00000000126779,0.551871908529391
11500.0000000243,25.9488807901711,1.00000000133212,0.555333000205331
11600.0000000247,25.8422498623488,1.00000000132589,0.547473058778821
11700.000000025,25.7410223749157,1.00000000122038,0.540841720458184
11800.0000000254,25.651598697159,1.00000000116347,0.545063083067049
11900.0000000258,25.5719868915389,1.00000000118127,0.545748065788557
12000.0000000261,25.4994219342471,1.00000000119885,0.540976759616062
12100.0000000265,25.4267771559066,1.00000000130126,0.545906379027732
12200.0000000269,25.3533922821113,1.00000000124965,0.551216374066957
12300.0000000272,25.2882588270387,1.00000000114997,0.534855087128669
12400.0000000276,25.2361116338382,1.00000000109486,0.53873428543079
12500.0000000279,25.187640342895,1.00000000126665,0.561813670118719
12600.0000000283,25.1334214629519,1.00000000126955,0.561434683494915
12700.0000000287,25.074443332535,1.00000000130335,0.560799101540699
12800.000000029,25.008016495974,1.0000000013322,0.567077041118026
12900.0000000294,24.9361669544316,1.00000000130804,0.574457124963365
13000.0000000298,24.8601819348422,1.00000000131186,0.582657750112361
13100.0000000301,24.7815142751199,1.00000000126038,0.580533345143696
13200.0000000305,24.7052941752024,1.00000000115521,0.572249549054497
13300.0000000309,24.6356933639901,1.00000000119328,0.567566055867601
13400.0000000312,24.5735830226954,1.0000000012781,0.56410087690043
13500.0000000316,24.5175773524856,1.00000000124782,0.554976287835382
13600.0000000319,24.4660441288871,1.00000000128815,0.554205591052151
13700.0000000323,24.421465607122,1.00000000125837,0.556704371454512
13800.0000000327,24.3870800336039,1.00000000113885,0.558100887230892
13900.000000033,24.3614766167452,1.00000000123551,0.55951032401096
14000.0000000334,24.3345098694124,1.00000000131597,0.560014649322964
14100.0000000338,24.3056745114926,1.00000000127101,0.560385953703224
14200.0000000341,24.2848919014235,1.0000000012005,0.550367186892498
14300.0000000345,24.2701593276844,1.00000000123156,0.547181230048533
14400.0000000349,24.2567220786197,1.00000000134794,0.554982336823994
14500.0000000352,24.2439323519264,1.00000000127352,0.565489654409942
14600.0000000356,24.2327023541096,1.00000000130135,0.576234449342443
14700.0000000359,24.221242847823,1.00000000124579,0.583142512912057
14800.0000000363,24.2070058842692,1.00000000142819,0.593080580767509
14900.0000000367,24.1867920703016,1.00000000131059,0.595154200485286
15000.000000037,24.1655768555969,1.00000000125141,0.592426416165844
15100.0000000374,24.1443224998717,1.00000000121066,0.587845448750504
15200.0000000378,24.1222267855041,1.00000000135529,0.591892540765137
15300.0000000381,24.0937862185893,1.00000000137875,0.59358027850814
15400.0000000385,24.0588533335725,1.00000000139854,0.601809767725307
15500.0000000389,24.0132731291139,1.00000000137932,0.601769040194477
15600.0000000392,23.960088731327,1.0000000014131,0.606542746550426
15700.0000000396,23.9026393126211,1.00000000135358,0.612289046127803
15800.0000000399,23.8465905293293,1.00000000117576,0.604668801044958
15900.0000000403,23.796703432827,1.00000000120671,0.593573927637298
16000.0000000407,23.7555840496878,1.0000000012865,0.58497927721398
16100.000000041,23.7212407940458,1.00000000127597,0.581163876367766
16200.0000000414,23.6920943976613,1.00000000135166,0.58333461834034
16300.0000000418,23.6688953746608,1.00000000121114,0.576335344242484
16400.0000000418,23.652031061758,1.00000000123951,0.574928671200342
16500.0000000404,23.6422226319958,1.00000000124307,0.577108431754865
16600.0000000389,23.6395048947069,1.00000000128342,0.581457892927248
16700.0000000375,23.6403269562471,1.00000000137841,0.578638515046054
16800.000000036,23.6425424007321,1.00000000132493,0.576089405571786
16900.0000000346,23.646380094753,1.00000000133094,0.57215848155343
17000.0000000331,23.6534013355178,1.00000000131138,0.562206760018085
17100.0000000317,23.664013372992,1.00000000123752,0.564492331674932
17200.0000000302,23.6790184950581,1.00000000131662,0.575348123045727
17300.0000000287,23.6975534492468,1.00000000128938,0.579703127434451
17400.0000000273,23.7163105130595,1.00000000136961,0.582403330181088
17500.0000000258,23.7315575859377,1.00000000144762,0.585525176402046
17600.0000000244,23.7411976902928,1.00000000134338,0.576137821620565
17700.0000000229,23.7500232170641,1.00000000139867,0.574139367270216
17800.0000000215,23.7580440232407,1.0000000012571,0.582085869021889
17900.00000002,23.7669286056,1.00000000136246,0.596785669218791
18000.0000000186,23.7757756807121,1.00000000141677,0.603811527049093
18100.0000000171,23.7819338173326,1.00000000131749,0.607424762851722
18200.0000000156,23.7845135663047,1.00000000139419,0.605659128987214
18300.0000000142,23.7826216723767,1.00000000141868,0.606213761567907
18400.0000000127,23.7759731916304,1.0000000013777,0.607773583609839
18500.0000000113,23.7693627943614,1.00000000129352,0.615219122709789
18600.0000000098,23.7636412855871,1.00000000138572,0.619428586606655
18700.0000000084,23.7547389518401,1.00000000142007,0.626091143163338
18800.0000000069,23.7399153181736,1.00000000134927,0.626588028648476
18900.0000000055,23.7204598486515,1.00000000134617,0.624156747322789
19000.000000004,23.6973588236508,1.00000000134789,0.619827300036912
19100.0000000026,23.6711476643711,1.00000000139238,0.620097974358228
19200.0000000011,23.6395115170638,1.00000000152358,0.61771893518182
19299.9999999996,23.6011532721487,1.00000000148165,0.617515480555723
19399.9999999982,23.556821911223,1.00000000148826,0.612864335721172
19499.9999999967,23.5072675173058,1.00000000137784,0.610182172439967
19599.9999999953,23.4557348212897,1.00000000133676,0.611563648159468
19699.9999999938,23.4072040127583,1.00000000129676,0.60565256881178
19799.9999999924,23.3631720896063,1.00000000124673,0.595652167214403
19899.9999999909,23.3252853117575,1.00000000130711,0.595690880814226
19999.9999999895,23.2924160117475,1.00000000139719,0.592451480324849
20099.999999988,23.2651037240791,1.00000000143242,0.59407863172266
20199.9999999865,23.2428520794094,1.00000000137392,0.59511873833075
20299.9999999851,23.2273602922989,1.00000000137141,0.587693714615516
20399.9999999836,23.2179676226698,1.00000000131324,0.576441747252887
20499.9999999822,23.2148091633102,1.00000000134246,0.573286481036972
20599.9999999807,23.2167353448213,1.00000000137756,0.577881660572536
20699.9999999793,23.224431007651,1.00000000139289,0.584234557528404
20799.9999999778,23.2375854226247,1.00000000135206,0.584747296505993
20899.9999999764,23.2527661237505,1.00000000144632,0.588891999640502
20999.9999999749,23.2682241969344,1.00000000148067,0.583724146969424
21099.9999999734,23.2863710687089,1.00000000130907,0.58246202044942
21199.999999972,23.3089531684152,1.00000000133979,0.577837577978266
21299.9999999705,23.333254646493,1.00000000138703,0.567500475636282
21399.9999999691,23.360750225894,1.00000000122515,0.564864592881336
21499.9999999676,23.394612733527,1.00000000132575,0.57140452455118
21599.9999999662,23.4317063062323,1.00000000139066,0.578383205055848
21699.9999999647,23.4656064859936,1.00000000149554,0.582638428070836
21799.9999999633,23.4963600350639,1.00000000138916,0.589203096419241
21899.9999999618,23.5281743981688,1.0000000013818,0.590623346273594
21999.9999999603,23.5591531223468,1.00000000142639,0.591303014705125
22099.9999999589,23.5858117278876,1.00000000146279,0.593918082751202
22199.9999999574,23.6059260461367,1.0000000014919,0.597689463411612
22299.999999956,23.622684332753,1.0000000014237,0.603348835038523
22399.9999999545,23.6395531517793,1.00000000136152,0.616610778981107
22499.9999999531,23.6580828851679,1.00000000127534,0.62315151285662
22599.9999999516,23.6773387699449,1.00000000146173,0.62531845139074
22699.9999999502,23.6932591203058,1.00000000149488,0.628390554646865
22799.9999999487,23.7053312490045,1.00000000142715,0.620933779185966
22899.9999999473,23.714497289663,1.00000000141782,0.625229171449884
22999.9999999458,23.7237483753134,1.00000000136268,0.628497189849876
23099.9999999443,23.734248107438,1.00000000142005,0.632890049194043
23199.9999999429,23.7462537318689,1.00000000132666,0.628958965839872
23299.9999999414,23.7588286324693,1.00000000143514,0.625611597926262
23399.99999994,23.7665048051827,1.0000000015966,0.625599581024024
23499.9999999385,23.7670164249665,1.00000000145477,0.635755695113303
23599.9999999371,23.7664759144935,1.00000000137351,0.641778035356114
23699.9999999356,23.7648406189846,1.00000000135973,0.636083537188194
23799.9999999342,23.7603048871746,1.00000000154924,0.639091831342772
23899.9999999327,23.7530195892322,1.00000000147552,0.642810975133945
23999.9999999312,23.74625440511,1.00000000137559,0.642674857380718
24099.9999999298,23.7434819504154,1.0000000013443,0.63181360601455
24199.9999999283,23.7406542752158,1.00000000143365,0.634236765692161
24299.9999999269,23.7342906683072,1.00000000148956,0.640910602406704
24399.9999999254,23.7248042651366,1.00000000144514,0.641939785441924
24499.999999924,23.7103357327285,1.00000000144685,0.643031330377199
24599.9999999225,23.6910984802935,1.00000000148951,0.638630096131175
24699.9999999211,23.6712478511515,1.00000000145105,0.643572127006256
24799.9999999196,23.6511272548321,1.00000000150478,0.646257039015316
24899.9999999181,23.6301363654452,1.00000000144802,0.638514133471698
24999.9999999167,23.6079915019384,1.00000000145607,0.643062572715239
25099.9999999152,23.5834571530757,1.00000000142557,0.643977903595628
25199.9999999138,23.5563423304861,1.00000000135922,0.634163181057267
25299.9999999123,23.5266300955278,1.00000000146619,0.635659694062683
25399.9999999109,23.4946840688907,1.00000000141818,0.638811993185659
25499.9999999094,23.4605173334225,1.00000000142796,0.643538385689667
25599.999999908,23.4240298893971,1.00000000145061,0.646415276175261
25699.9999999065,23.3851294395286,1.00000000155949,0.652330434393417
25799.9999999051,23.3431810820904,1.00000000155464,0.653229681084154
25899.9999999036,23.2982800650263,1.00000000146461,0.652530497445945
25999.9999999021,23.2517078132879,1.0000000014863,0.65308455411352
26099.9999999007,23.2045106860256,1.00000000143767,0.654338361468242
26199.9999998992,23.1570143746961,1.00000000145257,0.655144989176607
26299.9999998978,23.1106736421286,1.0000000013194,0.644928359082567
26399.9999998963,23.0670782035774,1.00000000137155,0.640247976774375
26499.9999998949,23.0271597250744,1.00000000135022,0.629289148323307
26599.9999998934,22.9920755138214,1.00000000140025,0.627427023142239
26699.999999892,22.9617110578526,1.00000000140486,0.628353274421261
26799.9999998905,22.9358402888839,1.00000000146119,0.631984652788846
26899.999999889,22.9139349081488,1.00000000143549,0.637605002571278
26999.9999998876,22.8961917627117,1.00000000145204,0.633241209338789
27099.9999998861,22.8849009568309,1.00000000131879,0.627903655481874
27199.9999998847,22.8785905507426,1.00000000132053,0.621852891981998
27299.9999998832,22.8775968813971,1.0000000013668,0.615414174163119
27399.9999998818,22.8814771074518,1.00000000140302,0.612425499104413
27499.9999998803,22.8895059313837,1.00000000144658,0.612348400350706
27599.9999998789,22.901246536993,1.00000000137251,0.611983216654187
27699.9999998774,22.917435671842,1.00000000149579,0.610309929207016
27799.9999998759,22.9347519815207,1.00000000152241,0.611312379688643
27899.9999998745,22.9562511552233,1.0000000014842,0.606436561455378
27999.999999873,22.9804260350238,1.00000000147335,0.604072264304545
28099.9999998716,23.0043745318967,1.00000000152782,0.604622645956911
28199.9999998701,23.0294569478155,1.00000000146627,0.600885104742208
28299.9999998687,23.0572015120037,1.00000000142797,0.600580462520131
28399.9999998672,23.0893849221371,1.00000000148124,0.596679165569735
28499.9999998658,23.1256211283365,1.00000000143335,0.591744699577768
28599.9999998643,23.1636594136633,1.00000000145971,0.598456671796467
28699.9999998629,23.2057233945546,1.00000000143253,0.605627153112077
28799.9999998614,23.249114633899,1.00000000151529,0.608507591823791
28899.9999998599,23.2910563338775,1.00000000148444,0.606319499895775
28999.9999998585,23.334059816491,1.00000000154464,0.611815743085676
