Time,AGPnorm,Energy,Entropy
0,0,1,-7.23974389862182e-17
99.9999999999986,0.000682746531505434,0.999999999998545,0.00245700487165814
199.999999999993,0.00472289705117362,0.999999999998721,0.00734138785153747
300,0.00976801748841599,1.00000000000034,0.0136855613039148
400.000000000022,0.0147032690139562,1.00000000000064,0.0217208719763929
500.000000000045,0.0213269708344645,0.999999999998958,0.0313889015285688
600.000000000068,0.0295610743692227,0.999999999998208,0.0423754800861251
700.000000000091,0.0385891182568058,0.999999999999777,0.0545154007206055
800.000000000113,0.0478013150382888,1.00000000000087,0.067949846606443
900.000000000136,0.0580066027422275,0.99999999999981,0.0829011188211121
1000.00000000016,0.0690416312235734,0.999999999998164,0.0994059736770389
1100.0000000001,0.0805716630138236,0.999999999999024,0.117631682402298
1200,0.0918311289146937,1.00000000000111,0.138223763624292
1299.99999999991,0.102771805580521,1.0000000000021,0.16177047237284
1399.99999999982,0.114403532561849,1.00000000000617,0.189310340229478
1499.99999999973,0.12533376208306,1.00000000002551,0.221232234986593
1599.99999999964,0.141846471194666,1.00000000007184,0.257058266682922
1699.99999999955,0.16621765425349,1.0000000001525,0.294467976684336
1799.99999999946,0.208209190546183,1.00000000025487,0.330836346045613
1899.99999999937,0.304518520860661,1.00000000036908,0.364292002693629
1999.99999999928,0.517576088083375,1.00000000049896,0.393927451505555
2099.99999999919,0.896331841696142,1.00000000059681,0.420742672109118
2199.99999999909,1.49548542643444,1.0000000007388,0.444086114943318
2299.999999999,2.39821694471099,1.00000000079352,0.464616728771407
2399.99999999891,3.67201426515784,1.00000000086123,0.481866324682381
2499.99999999882,5.34238597494469,1.00000000094493,0.497181508875758
2599.99999999873,7.43661414648261,1.00000000096867,0.510560609250356
2699.99999999864,9.98909807082718,1.00000000099541,0.521544450872128
2799.99999999855,12.9994563938068,1.00000000100629,0.530531463739439
2899.99999999846,16.4146011249586,1.00000000104686,0.538309831528781
2999.99999999837,20.2029793779792,1.00000000099636,0.544978477908077
3099.99999999828,24.3517884664353,1.00000000109297,0.549864381977589
3199.99999999819,28.8202393825901,1.00000000100583,0.553887246541088
3299.99999999809,33.5183213756749,1.00000000105487,0.556960892423027
3399.999999998,38.3747184564438,1.00000000105428,0.559506821115003
3499.99999999791,43.3664872804085,1.00000000096764,0.561201251450337
3599.99999999782,48.4516999020114,1.0000000010028,0.561978107722333
3699.99999999773,53.5537922664992,1.00000000099549,0.562223896356699
3799.99999999764,58.5990678833352,1.00000000098691,0.562237858844056
3899.99999999755,63.5565111428953,1.00000000090302,0.562749838371756
3999.99999999746,68.4073926610065,1.00000000092822,0.561187969963628
4099.99999999738,73.1101547989396,1.00000000086449,0.559319234878389
4199.99999999775,77.6098498222447,1.00000000086776,0.559221339700975
4299.99999999811,81.874352852496,1.00000000083276,0.557564152276203
4399.99999999848,85.910247955938,1.00000000079983,0.555879046872825
4499.99999999884,89.7010062847713,1.00000000079825,0.554134354700946
4599.9999999992,93.223773242503,1.00000000075243,0.552153832028302
4699.99999999957,96.4573647204104,1.00000000075075,0.551810464988207
4799.99999999993,99.4019976019132,1.00000000071372,0.548405774590299
4900.00000000029,102.071790019353,1.00000000070078,0.54852122274119
5000.00000000066,104.463360167587,1.00000000070846,0.547207217076709
5100.00000000102,106.570307754972,1.00000000068678,0.543222679658183
5200.00000000139,108.392747764636,1.0000000006794,0.544912072856832
5300.00000000175,109.956644104178,1.00000000067354,0.546960064715247
5400.00000000211,111.268129760305,1.0000000006219,0.535774978551125
5500.00000000248,112.319959588672,1.00000000058245,0.536356140945144
5600.00000000284,113.140388092013,1.00000000062708,0.549471174743373
5700.00000000321,113.754138072823,1.00000000058016,0.538438793962843
5800.00000000357,114.139357500169,1.00000000050006,0.519615103866383
5900.00000000393,114.30950211601,1.00000000056687,0.540328805351705
6000.0000000043,114.34246735241,1.00000000065526,0.557641531335359
6100.00000000466,114.240975768818,1.0000000005454,0.528287680131536
6200.00000000502,113.940147059001,1.00000000041708,0.501316951065523
6300.00000000539,113.474165182986,1.00000000056016,0.53786387326064
6400.00000000575,112.954249064775,1.00000000071319,0.566628861847896
6500.00000000612,112.393740934465,1.00000000060665,0.53453550347952
6600.00000000648,111.700656929035,1.00000000037056,0.4800626595093
6700.00000000684,110.853523325884,1.00000000046556,0.501058008029494
6800.00000000721,109.963700479315,1.00000000075022,0.561495786488554
6900.00000000757,109.109792484498,1.00000000077959,0.568309752087362
7000.00000000793,108.249669449949,1.00000000052254,0.510604285332608
7100.0000000083,107.286408608352,1.0000000003252,0.445568057039776
7200.00000000866,106.218757841287,1.00000000046571,0.480758436386895
7300.00000000903,105.142581399722,1.00000000077017,0.55363373017405
7400.00000000939,104.126396828991,1.00000000085693,0.572991006223705
7500.00000000975,103.154409450203,1.0000000006658,0.533619033768805
7600.00000001012,102.149835331649,1.00000000037312,0.445813459984793
7700.00000001048,101.067743135287,1.00000000028995,0.412904060972859
7800.00000001084,99.9436843483992,1.00000000051841,0.482908369671402
7900.00000001121,98.8417081375986,1.00000000080946,0.551163360884166
8000.00000001157,97.7986246431808,1.00000000084324,0.565352098075536
8100.00000001194,96.8059027831379,1.00000000072045,0.536673212679653
8200.0000000123,95.818265941606,1.00000000050823,0.461898686421071
8300.00000001266,94.7970725840794,1.0000000003126,0.396502483525905
8400.00000001303,93.7448939877721,1.00000000039211,0.414480260983547
8500.00000001339,92.6912967356331,1.00000000062837,0.488862312768528
8600.00000001376,91.6654692147895,1.00000000081302,0.538344526594598
8700.00000001412,90.6829765228313,1.00000000085337,0.548375885326251
8800.00000001448,89.7397520358442,1.00000000074537,0.533866263125132
8900.00000001485,88.8144876985321,1.00000000060618,0.487584316411874
9000.00000001521,87.8872374377339,1.0000000004331,0.428485373550721
9100.00000001557,86.9560770016098,1.00000000038712,0.40083238115066
9200.00000001594,86.0300912430782,1.0000000004493,0.426415539736174
9300.0000000163,85.116649012551,1.00000000060352,0.475759862584743
9400.00000001667,84.2203798026905,1.0000000007291,0.516903442413152
9500.00000001703,83.3454304506619,1.000000000761,0.530153698916358
9600.00000001739,82.4939903663718,1.00000000079716,0.535871458044286
9700.00000001776,81.6633543341519,1.00000000067834,0.523557894883138
9800.00000001812,80.8471748301163,1.00000000055741,0.477853878753218
9900.00000001848,80.0433521709713,1.00000000041683,0.437968281567975
10000.0000000188,79.2566796437485,1.00000000043052,0.422658780618828
10100.0000000192,78.4914805315666,1.0000000004882,0.437145611461546
10200.0000000196,77.7457447760912,1.00000000052567,0.463955373498107
10300.0000000199,77.0163359885219,1.00000000057921,0.48641005855814
10400.0000000203,76.3007438521024,1.00000000059305,0.502551292803457
10500.0000000207,75.5971773741066,1.00000000066737,0.509292388472231
10600.000000021,74.9018605699023,1.00000000076426,0.522398169928713
10700.0000000214,74.2136334461103,1.00000000076219,0.536991115915307
10800.0000000218,73.5362111755728,1.00000000061557,0.52169646545368
10900.0000000221,72.8757428715841,1.00000000046941,0.477808282014276
11000.0000000225,72.2406777782785,1.00000000038703,0.437668860733894
11100.0000000229,71.6345952253487,1.0000000004492,0.431470748829648
11200.0000000232,71.0535572797611,1.00000000058224,0.442921201002425
11300.0000000236,70.4902167302514,1.00000000063783,0.467235306829968
11400.0000000239,69.9386192954562,1.00000000062164,0.487363568464913
11500.0000000243,69.3984749625543,1.00000000059355,0.490473770621918
11600.0000000247,68.8725822384762,1.00000000052376,0.48992765020298
11700.000000025,68.3616605823447,1.00000000052124,0.493148273481391
11800.0000000254,67.859301266989,1.00000000062288,0.502124835405782
11900.0000000258,67.3541751978141,1.00000000076622,0.519894821743152
12000.0000000261,66.8415471896762,1.00000000082232,0.535186396992506
12100.0000000265,66.3273416278789,1.00000000071609,0.534405382326413
12200.0000000269,65.8225889798054,1.00000000059017,0.508322779720731
12300.0000000272,65.3399290768233,1.00000000041818,0.468122123968097
12400.0000000276,64.8903202191847,1.00000000037615,0.441949931072942
12500.0000000279,64.475428013512,1.00000000045161,0.43577399293984
12600.0000000283,64.0859064931769,1.00000000056114,0.449397376865335
12700.0000000287,63.7090664505414,1.00000000061871,0.467566438767849
12800.000000029,63.337131501032,1.00000000067218,0.482534415934747
12900.0000000294,62.9679549532406,1.00000000064364,0.495614666578364
13000.0000000298,62.6041409641317,1.00000000059691,0.501139321320138
13100.0000000301,62.2491603224635,1.00000000053351,0.501676608544029
13200.0000000305,61.9046874816271,1.00000000052857,0.505827914383972
13300.0000000309,61.5693421093381,1.00000000055208,0.510810276296849
13400.0000000312,61.2377282079716,1.00000000059247,0.512496778432798
13500.0000000316,60.9036546694999,1.00000000064162,0.51135978491502
13600.0000000319,60.5621362791076,1.00000000070924,0.517897301056416
13700.0000000323,60.2107824474375,1.00000000079647,0.530649731048832
13800.0000000327,59.853539074138,1.00000000071402,0.539177314979156
13900.000000033,59.5002010335886,1.00000000058719,0.525693318436356
14000.0000000334,59.1635704949702,1.00000000047954,0.499249624113228
14100.0000000338,58.8548229492847,1.00000000042127,0.46944889951264
14200.0000000341,58.5785216390965,1.00000000045798,0.457785689348024
14300.0000000345,58.3319397606264,1.00000000050574,0.46301198673332
14400.0000000349,58.1077572205266,1.00000000053404,0.463414518721594
14500.0000000352,57.8974791019881,1.00000000058752,0.471042568674394
14600.0000000356,57.6927301602436,1.0000000006209,0.487921013877177
14700.0000000359,57.4906452016108,1.00000000056888,0.493599058904502
14800.0000000363,57.2978570876801,1.00000000052717,0.489362028241584
14900.0000000367,57.1156875921018,1.00000000053345,0.494544345327184
15000.000000037,56.938267523273,1.00000000060548,0.509197375712115
15100.0000000374,56.7542154600995,1.00000000066361,0.52491375788432
15200.0000000378,56.5582171092803,1.00000000064996,0.535673974367926
15300.0000000381,56.3512952558303,1.00000000062861,0.541627760426754
15400.0000000385,56.1403266443002,1.0000000005905,0.545127722580304
15500.0000000389,55.930967399902,1.00000000055773,0.534287315042043
15600.0000000392,55.7278769621161,1.00000000051805,0.520134249296148
15700.0000000396,55.5295407156181,1.00000000056374,0.509313148611641
15800.0000000399,55.3299948425671,1.0000000006273,0.508128710534978
15900.0000000403,55.1229730521101,1.00000000069677,0.521790732765971
16000.0000000407,54.9039273110293,1.00000000075225,0.537772105830439
16100.000000041,54.6760204268751,1.00000000074504,0.546892392803464
16200.0000000414,54.447914870284,1.00000000060216,0.539250204161685
16300.0000000418,54.2315388202571,1.00000000051706,0.520394922942132
16400.0000000418,54.0384707440905,1.00000000046401,0.499322731099392
16500.0000000404,53.8762063748648,1.00000000045939,0.481484905530945
16600.0000000389,53.7452510464552,1.00000000048468,0.471172220594946
16700.0000000375,53.6394389674031,1.00000000055748,0.472195480429887
16800.000000036,53.5487189916511,1.00000000059158,0.476725477098616
16900.0000000346,53.4641539217133,1.00000000057007,0.482683622653004
17000.0000000331,53.3825568714352,1.00000000060272,0.484936567566479
17100.0000000317,53.3043848410325,1.00000000060128,0.489563256258597
17200.0000000302,53.2293776453861,1.00000000062922,0.499544644750996
17300.0000000287,53.1567958062379,1.000000000597,0.513257656084375
17400.0000000273,53.0880462180194,1.00000000057096,0.521900573364421
17500.0000000258,53.0271728570641,1.00000000053989,0.523167141412313
17600.0000000244,52.9753247241814,1.0000000005668,0.525842920940989
17700.0000000229,52.9289045267926,1.00000000058317,0.53028293146756
17800.0000000215,52.878223099461,1.00000000064909,0.536750938145723
17900.00000002,52.8156933146372,1.00000000066617,0.540779325369447
18000.0000000186,52.734555333352,1.00000000069408,0.545775838973898
18100.0000000171,52.6340576037635,1.00000000071352,0.546768520940713
18200.0000000156,52.5167594192468,1.00000000067316,0.54944814952674
18300.0000000142,52.3890810212006,1.00000000065604,0.559814989116453
18400.0000000127,52.2567007735371,1.00000000056739,0.563468038965925
18500.0000000113,52.1243168498327,1.00000000054672,0.557636732809798
18600.0000000098,51.9966324977942,1.00000000052218,0.551840172868969
18700.0000000084,51.874095983627,1.00000000052355,0.55020228638993
18800.0000000069,51.754959505867,1.00000000055026,0.544218670002485
18900.0000000055,51.636585727449,1.00000000061078,0.53500300209466
19000.000000004,51.5159194794626,1.00000000067521,0.535567121717287
19100.0000000026,51.3904026940268,1.00000000069251,0.542250084515378
19200.0000000011,51.2570218388221,1.00000000072489,0.550614791256213
19299.9999999996,51.1150551357497,1.00000000072551,0.558676190665949
19399.9999999982,50.9696263193857,1.00000000067196,0.559776981336194
19499.9999999967,50.830346554962,1.00000000060002,0.551584274291879
19599.9999999953,50.7070679034113,1.00000000051489,0.534528104647712
19699.9999999938,50.6070946386849,1.00000000047687,0.517629822321179
19799.9999999924,50.5334396127607,1.00000000045143,0.503632608733677
19899.9999999909,50.4855145843962,1.00000000047556,0.4945169099445
19999.9999999895,50.4582272146203,1.00000000053708,0.492145831059371
20099.999999988,50.4456521127768,1.00000000055671,0.500063280716168
20199.9999999865,50.4437659380105,1.00000000057422,0.501388709297246
20299.9999999851,50.4480696902774,1.0000000005619,0.496459424178645
20399.9999999836,50.454510681985,1.00000000066454,0.496394609302439
20499.9999999822,50.4616440483437,1.00000000061775,0.499920678220161
20599.9999999807,50.472507625599,1.00000000056165,0.496810148872664
20699.9999999793,50.4912367940271,1.00000000053224,0.491812397254646
20799.9999999778,50.5189257831651,1.00000000055573,0.497469399340504
20899.9999999764,50.5508587046881,1.00000000059857,0.518130943165389
20999.9999999749,50.5795102132891,1.00000000065922,0.537057612902251
21099.9999999734,50.5995222055697,1.00000000063452,0.545560345674461
21199.999999972,50.6086106957826,1.00000000064581,0.552061236373862
21299.9999999705,50.608508690152,1.0000000006291,0.556710301124082
21399.9999999691,50.6045337568709,1.00000000060383,0.55733703700863
21499.9999999676,50.600769781647,1.00000000059193,0.553740868238682
21599.9999999662,50.5972260109545,1.00000000056932,0.553081699500125
21699.9999999647,50.5929289023536,1.00000000059876,0.563128387452133
21799.9999999633,50.5869988988003,1.00000000057419,0.573277522209002
21899.9999999618,50.5777921641745,1.00000000057517,0.574516090541639
21999.9999999603,50.5613474784945,1.00000000061048,0.574302164598161
22099.9999999589,50.5351780996444,1.00000000062678,0.571523401276017
22199.9999999574,50.4984254910595,1.00000000065217,0.570985121639422
22299.999999956,50.4514344630731,1.00000000062623,0.566012537821784
22399.9999999545,50.3947021858581,1.00000000064095,0.553286934858857
22499.9999999531,50.328696353635,1.0000000006335,0.543925496548182
22599.9999999516,50.2531536983374,1.00000000065906,0.553738237202512
22699.9999999502,50.1686993320252,1.00000000070454,0.567896327588756
22799.9999999487,50.0753953903993,1.00000000067185,0.572312174113598
22899.9999999473,49.9767122378167,1.00000000063576,0.573515677120301
22999.9999999458,49.8772745939093,1.00000000059645,0.569941532921761
23099.9999999443,49.7804737235212,1.0000000005574,0.567680415237123
23199.9999999429,49.6877613375024,1.0000000005363,0.568665868746035
23299.9999999414,49.5989372628363,1.00000000055096,0.572472100670925
23399.99999994,49.5122709050314,1.00000000057824,0.568773889250992
23499.9999999385,49.4270167647751,1.00000000059084,0.564053634083202
23599.9999999371,49.3418981722307,1.00000000058533,0.564308550928569
23699.9999999356,49.2559880284942,1.00000000061388,0.563515530851786
23799.9999999342,49.1680192205498,1.00000000069861,0.560353938880488
23899.9999999327,49.076377893467,1.00000000071591,0.55674695046489
23999.9999999312,48.981015563077,1.00000000069384,0.553036935263208
24099.9999999298,48.8811033056711,1.00000000072708,0.554181431422642
24199.9999999283,48.777816919195,1.00000000069469,0.554671948028435
24299.9999999269,48.676118689607,1.00000000064632,0.556718143302005
24399.9999999254,48.5818339500077,1.00000000054561,0.55278911142479
24499.999999924,48.5011526981225,1.00000000051877,0.545641695363731
24599.9999999225,48.4386089264909,1.00000000049085,0.533316905886961
24699.9999999211,48.3969085352254,1.00000000051595,0.528679793629771
24799.9999999196,48.3772315861918,1.0000000005032,0.524962352243781
24899.9999999181,48.3777945935248,1.00000000053514,0.516291433995011
24999.9999999167,48.3948800375209,1.00000000057847,0.51207238347894
25099.9999999152,48.4237795014197,1.00000000057764,0.51079355185815
25199.9999999138,48.4624933193753,1.00000000054036,0.509215028583755
25299.9999999123,48.5094040169979,1.00000000059647,0.510702479135381
25399.9999999109,48.5593666422336,1.00000000062498,0.511523712794328
25499.9999999094,48.6111770963035,1.00000000060833,0.515757172953033
25599.999999908,48.6668778233643,1.00000000057543,0.514694679912335
25699.9999999065,48.728737595278,1.00000000055325,0.509591326962084
25799.9999999051,48.7971824379614,1.00000000054914,0.505190258192364
25899.9999999036,48.8697665694043,1.00000000059304,0.510181991397358
25999.9999999021,48.9423503096784,1.00000000061056,0.519619011680183
26099.9999999007,49.0128227701184,1.00000000066056,0.531530226065296
26199.9999998992,49.0801266107678,1.0000000006106,0.54017385394818
26299.9999998978,49.1439645371525,1.00000000060965,0.551431058236959
26399.9999998963,49.203173848294,1.00000000065019,0.557048408724122
26499.9999998949,49.2567625900964,1.00000000066154,0.562132672954099
26599.9999998934,49.3042502103204,1.00000000061345,0.567579746956012
26699.999999892,49.3460329741249,1.00000000056772,0.572699902255094
26799.9999998905,49.3836209258102,1.00000000060211,0.576889590503062
26899.999999889,49.4179978853749,1.00000000061191,0.581937037307153
26999.9999998876,49.4491319031644,1.00000000066318,0.583002512247021
27099.9999998861,49.4759626442623,1.00000000063888,0.580999296363974
27199.9999998847,49.4976609423682,1.00000000061924,0.577826714601379
27299.9999998832,49.513975577409,1.00000000061203,0.57923273815535
27399.9999998818,49.5242125166715,1.00000000062659,0.579943579492136
27499.9999998803,49.5289666473344,1.00000000066899,0.584037201126983
27599.9999998789,49.5305380466419,1.00000000061357,0.588760367301311
27699.9999998774,49.5308783281476,1.00000000055177,0.585448853383871
27799.9999998759,49.5312002629257,1.00000000058785,0.582979564346743
27899.9999998745,49.5298499296337,1.00000000063331,0.584395634508075
27999.999999873,49.5248832765101,1.00000000061335,0.584370984953293
28099.9999998716,49.5158718264266,1.00000000063694,0.585084096480455
28199.9999998701,49.5033910062404,1.00000000060087,0.581093351417906
28299.9999998687,49.4867796897966,1.00000000062554,0.575751856446955
28399.9999998672,49.4648957448596,1.00000000063397,0.577907414622727
28499.9999998658,49.4386035303828,1.00000000064674,0.577816664351988
28599.9999998643,49.4085389508571,1.00000000064773,0.578866019467817
28699.9999998629,49.37367819135,1.00000000062951,0.582525179642208
28799.9999998614,49.334653542656,1.00000000064071,0.583364775518624
28899.9999998599,49.2922303003976,1.00000000065835,0.589261678244667
28999.9999998585,49.2468564030359,1.00000000064263,0.593591933977152
