Time,AGPnorm,Energy,Entropy
0,0,1,-7.57839184331083e-17
99.9999999999986,0.00139187790781585,0.999999999997494,0.00452612705921128
199.999999999993,0.00964582721196778,0.999999999995259,0.0130867986846115
300,0.0196196313025921,0.999999999997295,0.0240037530756524
400.000000000022,0.0286409850027752,1.00000000000007,0.0380923087460473
500.000000000045,0.0405430407150197,0.999999999998485,0.0553215382826443
600.000000000068,0.0560208057384064,0.999999999995615,0.0749251030669072
700.000000000091,0.0715541913518656,0.999999999996435,0.0970425160090407
800.000000000113,0.0861063652397646,0.999999999999501,0.122861181825179
900.000000000136,0.102105113346897,1.00000000000078,0.154185279575303
1000.00000000016,0.118048878961168,1.00000000001053,0.192717276643598
1100.0000000001,0.135612998335271,1.00000000007857,0.239971315854228
1200,0.162695672298907,1.00000000026547,0.292882735572889
1299.99999999991,0.204897824278393,1.0000000005149,0.344529703387045
1399.99999999982,0.309193152365394,1.00000000086806,0.390449172278849
1499.99999999973,0.589163643548386,1.00000000112318,0.429178804496341
1599.99999999964,1.12615430919214,1.00000000140128,0.461990843127987
1699.99999999955,1.95913397222969,1.00000000155334,0.490216107875139
1799.99999999946,3.18055510007873,1.00000000181263,0.513531017568075
1899.99999999937,4.87101693633112,1.00000000191616,0.531532687821848
1999.99999999928,6.99310023340272,1.00000000192568,0.546340420764464
2099.99999999919,9.4783249581299,1.00000000201375,0.558639961025686
2199.99999999909,12.3138536848535,1.00000000186888,0.56847088737463
2299.999999999,15.4762196055541,1.00000000193732,0.574405602958798
2399.99999999891,18.8550923842318,1.00000000195086,0.578929970592883
2499.99999999882,22.3312099412102,1.00000000187146,0.582762345496031
2599.99999999873,25.8561192172926,1.00000000188945,0.585050589211114
2699.99999999864,29.3945220900836,1.00000000183977,0.58521617917497
2799.99999999855,32.8690192564754,1.00000000168091,0.584692393338914
2899.99999999846,36.1925460860405,1.00000000166996,0.584066833238948
2999.99999999837,39.3227379952406,1.00000000165668,0.582388064887573
3099.99999999828,42.2516399432736,1.00000000154468,0.580490794156033
3199.99999999819,44.9554445317409,1.00000000151727,0.578970891073995
3299.99999999809,47.3942505608046,1.00000000151343,0.578224709189002
3399.999999998,49.5468605497685,1.00000000139335,0.575588738260343
3499.99999999791,51.4243971963643,1.00000000137317,0.573528375056106
3599.99999999782,53.0321890734121,1.00000000137459,0.571721076898488
3699.99999999773,54.3738651186508,1.00000000128475,0.567875373178551
3799.99999999764,55.4482555125522,1.00000000116768,0.567436372949859
3899.99999999755,56.2643170362443,1.00000000121012,0.569251903778966
3999.99999999746,56.8416035909648,1.00000000108624,0.560670204994522
4099.99999999738,57.2185512541061,1.00000000120514,0.568806317509514
4199.99999999775,57.386081400871,1.00000000104571,0.551088830337409
4299.99999999811,57.3867472872582,1.00000000118971,0.575132253105591
4399.99999999848,57.2371632090483,1.0000000009117,0.541749675999511
4499.99999999884,56.9385329892066,1.00000000117149,0.57025227061514
4599.9999999992,56.5769256445726,1.00000000108885,0.555499082975237
4699.99999999957,56.0910849628411,1.00000000095971,0.526018372124076
4799.99999999993,55.5417171590749,1.00000000146187,0.582932650983462
4900.00000000029,54.9692353003332,1.00000000107595,0.535734904570974
5000.00000000066,54.2999357747522,1.00000000090149,0.514110827409265
5100.00000000102,53.618440506598,1.00000000150874,0.583550441952768
5200.00000000139,52.9504420151637,1.00000000109684,0.526827282202328
5300.00000000175,52.2189688412728,1.0000000007889,0.488578123939988
5400.00000000211,51.4669395994023,1.00000000150222,0.569062905588803
5500.00000000248,50.7568971664786,1.00000000130139,0.549657082510811
5600.00000000284,50.0376597607119,1.00000000081155,0.480147402406789
5700.00000000321,49.2818519132419,1.00000000104519,0.496665440412923
5800.00000000357,48.5417184602744,1.0000000016063,0.565997083166653
5900.00000000393,47.8390778105533,1.00000000127843,0.528293089211486
6000.0000000043,47.1369604623192,1.00000000081693,0.473576810136784
6100.00000000466,46.4228946545801,1.00000000097496,0.48124686309218
6200.00000000502,45.7180241723806,1.00000000142515,0.534331973201069
6300.00000000539,45.0429442812807,1.0000000014391,0.541546051717256
6400.00000000575,44.3865997815889,1.00000000099937,0.489211892900673
6500.00000000612,43.7369065031918,1.00000000094267,0.4809257862569
6600.00000000648,43.093808762829,1.00000000107641,0.493531027866955
6700.00000000684,42.4637445569373,1.00000000127214,0.519230939720651
6800.00000000721,41.853441304293,1.0000000013025,0.532290489218766
6900.00000000757,41.2612273527,1.00000000115927,0.50620874244504
7000.00000000793,40.6847784476769,1.00000000090996,0.484791452099554
7100.0000000083,40.1242382191753,1.000000001099,0.503329657791727
7200.00000000866,39.5777630693885,1.00000000110323,0.50773843898156
7300.00000000903,39.0473754346173,1.00000000108349,0.502949580273443
7400.00000000939,38.5314682532365,1.00000000132995,0.524907089942747
7500.00000000975,38.0272832791436,1.00000000121746,0.519951542596621
7600.00000001012,37.5418040341049,1.00000000092222,0.488724592042744
7700.00000001048,37.0776384994335,1.00000000105557,0.502159416973609
7800.00000001084,36.6258407717642,1.00000000126302,0.519595171152164
7900.00000001121,36.1875034779223,1.00000000104844,0.5107651710452
8000.00000001157,35.768941361106,1.00000000096146,0.486998242291615
8100.00000001194,35.3637252278997,1.00000000131288,0.520608893558716
8200.0000000123,34.9630865929968,1.00000000142452,0.529968361813489
8300.00000001266,34.5729519385138,1.00000000115779,0.509710798812413
8400.00000001303,34.2047918915799,1.00000000099437,0.495210742597517
8500.00000001339,33.8553534782876,1.00000000114765,0.50835110937029
8600.00000001376,33.5118480323482,1.00000000137345,0.520450351450299
8700.00000001412,33.1752186118079,1.00000000117007,0.523555601367592
8800.00000001448,32.8564101945611,1.00000000099122,0.495416841646921
8900.00000001485,32.554475803641,1.00000000119531,0.502246767926145
9000.00000001521,32.2602177548426,1.00000000129497,0.530905667183138
9100.00000001557,31.9667214756741,1.00000000134796,0.534947907372776
9200.00000001594,31.6797120986824,1.00000000110607,0.516186865269927
9300.0000000163,31.409555333585,1.00000000101698,0.508983129509979
9400.00000001667,31.1558494563575,1.00000000115236,0.522028263580472
9500.00000001703,30.9138678985111,1.00000000115382,0.520646247699609
9600.00000001739,30.6771755150287,1.00000000123828,0.52449667115333
9700.00000001776,30.444386074521,1.00000000123488,0.519680231298507
9800.00000001812,30.2179975288111,1.00000000116573,0.534469842762762
9900.00000001848,30.0023080532836,1.00000000110126,0.525313286065827
10000.0000000188,29.7964160776574,1.00000000113768,0.523479190708658
10100.0000000192,29.5987511861404,1.00000000120314,0.536554536257982
10200.0000000196,29.4071210055323,1.00000000122031,0.542111815252282
10300.0000000199,29.2154627840679,1.0000000012624,0.540911065329686
10400.0000000203,29.0334411125606,1.00000000108704,0.528817260071566
10500.0000000207,28.8684766933442,1.00000000100271,0.519834988170337
10600.000000021,28.7128567072702,1.0000000012716,0.532151382028526
10700.0000000214,28.5581878731882,1.0000000012124,0.537907360169406
10800.0000000218,28.4130958919017,1.00000000105433,0.519161172765385
10900.0000000221,28.2808278823781,1.00000000110432,0.529249963136046
11000.0000000225,28.153411749961,1.00000000121391,0.526240239358104
11100.0000000229,28.0207406576429,1.00000000137764,0.552249216362411
11200.0000000232,27.8817253675591,1.0000000012712,0.563637548569861
11300.0000000236,27.7431828393251,1.00000000117878,0.556559424594363
11400.0000000239,27.6120969896587,1.00000000107835,0.547677694425057
11500.0000000243,27.4896089120668,1.00000000118681,0.552256649111278
11600.0000000247,27.3735158529218,1.00000000129237,0.553043436110466
11700.000000025,27.2605096577476,1.00000000127026,0.549037039384661
11800.0000000254,27.1490288707353,1.00000000118453,0.546435811217476
11900.0000000258,27.0460802216005,1.0000000011356,0.547257650986526
12000.0000000261,26.9553649377956,1.00000000110744,0.546016812867027
12100.0000000265,26.8741046698167,1.00000000113323,0.542288087680661
12200.0000000269,26.79553037346,1.00000000121786,0.546737828389207
12300.0000000272,26.7120147699675,1.00000000122239,0.553647627303459
12400.0000000276,26.6338880236859,1.00000000111955,0.541188719573191
12500.0000000279,26.5688679335768,1.00000000105703,0.534110448784264
12600.0000000283,26.511617899484,1.00000000118963,0.554817552944769
12700.0000000287,26.4543957040262,1.00000000111415,0.561492619611118
12800.000000029,26.394009993767,1.00000000119034,0.55503038025822
12900.0000000294,26.3269620294479,1.00000000125737,0.563767130527197
13000.0000000298,26.2523669172777,1.00000000122369,0.572776050877459
13100.0000000301,26.1710224342574,1.00000000127346,0.586192782253508
13200.0000000305,26.0846307604064,1.00000000118997,0.583691544748725
13300.0000000309,25.9996627070637,1.00000000107118,0.581689977504185
13400.0000000312,25.9226173178058,1.00000000114034,0.573170647186601
13500.0000000316,25.8553261386933,1.00000000120225,0.567908145930674
13600.0000000319,25.79539074943,1.00000000116436,0.558405288738166
13700.0000000323,25.7390132760811,1.00000000121922,0.560280243321694
13800.0000000327,25.6849237184402,1.00000000124397,0.562909525166708
13900.000000033,25.6388145741202,1.00000000115792,0.567129184097516
14000.0000000334,25.6038128259406,1.00000000112419,0.564194449590024
14100.0000000338,25.5723140121094,1.00000000126946,0.559993360033634
14200.0000000341,25.5379223058339,1.0000000012288,0.564139575722248
14300.0000000345,25.5086484228301,1.00000000117974,0.559305231750124
14400.0000000349,25.4857792614781,1.00000000124542,0.553038079864456
14500.0000000352,25.464357514833,1.00000000126354,0.551686369735935
14600.0000000356,25.4436946228825,1.00000000117822,0.557137753721485
14700.0000000359,25.4250528731772,1.00000000117264,0.566648891244066
14800.0000000363,25.4083626869483,1.00000000122939,0.577138787075324
14900.0000000367,25.3917197336314,1.00000000133138,0.587441104838653
15000.000000037,25.3714510515559,1.00000000122889,0.595485539009567
15100.0000000374,25.3495811258512,1.00000000121133,0.59646375652478
15200.0000000378,25.3290797808383,1.0000000011584,0.588909085298041
15300.0000000381,25.3083249856387,1.00000000126937,0.591528056608463
15400.0000000385,25.2822638697897,1.00000000126358,0.592192427996761
15500.0000000389,25.2478684810585,1.00000000129506,0.599677775561091
15600.0000000392,25.202805252505,1.00000000133943,0.599839777532521
15700.0000000396,25.1466321558889,1.00000000135837,0.604598043178899
15800.0000000399,25.083247383691,1.00000000129835,0.610501725495214
15900.0000000403,25.0197427788563,1.00000000116308,0.61156710235085
16000.0000000407,24.9624084053662,1.00000000111228,0.601225126381994
16100.000000041,24.9139486384429,1.00000000110038,0.592025162010018
16200.0000000414,24.874542680603,1.0000000012249,0.587788566470384
16300.0000000418,24.8419101584951,1.00000000124671,0.586357904455199
16400.0000000418,24.8148910009905,1.00000000125989,0.584069049964246
16500.0000000404,24.7914201338687,1.00000000121712,0.580425594640122
16600.0000000389,24.7723205590559,1.00000000118291,0.579303894442501
16700.0000000375,24.7600216027817,1.00000000121283,0.586723499231136
16800.000000036,24.7544101850382,1.00000000120343,0.585327234537654
16900.0000000346,24.7528780643856,1.00000000129707,0.586061354593848
17000.0000000331,24.7524302150862,1.00000000124395,0.576420247719387
17100.0000000317,24.7525322278409,1.00000000120195,0.573504273662276
17200.0000000302,24.755087229982,1.00000000126283,0.568008325212394
17300.0000000287,24.7604684322013,1.00000000116838,0.572891379092662
17400.0000000273,24.7700605978224,1.00000000119012,0.578340391036795
17500.0000000258,24.7819889408811,1.00000000119638,0.57522922291122
17600.0000000244,24.793785041612,1.00000000127237,0.574323435110861
17700.0000000229,24.8020933798248,1.00000000134291,0.571956294848232
17800.0000000215,24.8086726730542,1.0000000012818,0.564405419455787
17900.00000002,24.81491843419,1.00000000126746,0.56685729080462
18000.0000000186,24.820188857505,1.00000000129381,0.584588595904505
18100.0000000171,24.8264216281929,1.00000000129141,0.592732088438608
18200.0000000156,24.8340337221486,1.00000000117772,0.593931204758955
18300.0000000142,24.8399760876329,1.00000000129191,0.597957023001616
18400.0000000127,24.8418083827712,1.00000000132809,0.594574166413011
18500.0000000113,24.8388411439432,1.00000000134872,0.603299206811876
18600.0000000098,24.8321111185895,1.00000000131511,0.606908094110722
18700.0000000084,24.8247886325989,1.00000000127126,0.61826024686658
18800.0000000069,24.8165578544034,1.00000000126867,0.621868734161392
18900.0000000055,24.8050075543019,1.00000000126435,0.620563131734303
19000.000000004,24.7880401193289,1.00000000129503,0.620414796887926
19100.0000000026,24.7666513434107,1.00000000126337,0.617826945823999
19200.0000000011,24.7436551998463,1.00000000128144,0.613440024893281
19299.9999999996,24.7173897114907,1.00000000141006,0.612935937772531
19399.9999999982,24.6841074214675,1.00000000147052,0.608257195547046
19499.9999999967,24.6421816614588,1.00000000145397,0.612027355682472
19599.9999999953,24.5928792354582,1.00000000136756,0.607935275003965
19699.9999999938,24.5388574446241,1.00000000132485,0.60781750161874
19799.9999999924,24.4841991133432,1.00000000131441,0.604617813848494
19899.9999999909,24.4326873557624,1.00000000117535,0.596477223429813
19999.9999999895,24.3873184397766,1.00000000118425,0.589897338670407
20099.999999988,24.3491285713799,1.00000000122586,0.589776193564112
20199.9999999865,24.3167169065861,1.00000000132743,0.58629354531335
20299.9999999851,24.2913139667981,1.00000000130617,0.586834092809578
20399.9999999836,24.2712337272031,1.00000000121734,0.58482080446412
20499.9999999822,24.2560555737378,1.000000001315,0.580786795100864
20599.9999999807,24.2460542725384,1.00000000128838,0.573728796332014
20699.9999999793,24.2412496340497,1.00000000129952,0.570435533472994
20799.9999999778,24.2410653371055,1.00000000132837,0.577170838827599
20899.9999999764,24.2461000003596,1.00000000128378,0.584640777569759
20999.9999999749,24.2570730174442,1.00000000129306,0.586194953555408
21099.9999999734,24.272035315907,1.00000000133817,0.589631901601329
21199.999999972,24.2873144658997,1.00000000140804,0.583485160322012
21299.9999999705,24.3027455209349,1.00000000135985,0.58473215666675
21399.9999999691,24.3225952286505,1.00000000128184,0.578762141370406
21499.9999999676,24.3442440762344,1.00000000138558,0.572646364881789
21599.9999999662,24.3674058889667,1.00000000125953,0.569128148334994
21699.9999999647,24.3949252880554,1.00000000127534,0.572393498895566
21799.9999999633,24.4272052459454,1.00000000131398,0.573664902248341
21899.9999999618,24.4584398783742,1.00000000131595,0.577333978392206
21999.9999999603,24.4862800034543,1.00000000131815,0.582154547273979
22099.9999999589,24.5146100976614,1.00000000126546,0.582241805580022
22199.9999999574,24.5422146269356,1.00000000132294,0.581272483902192
22299.999999956,24.567442475689,1.00000000142991,0.589880258900213
22399.9999999545,24.5892997691891,1.00000000129882,0.595208103823872
22499.9999999531,24.6107602750702,1.00000000132344,0.602889463845064
22599.9999999516,24.6349196518807,1.00000000123261,0.607640421109405
22699.9999999502,24.6610373597951,1.00000000130169,0.618311175073465
22799.9999999487,24.6853767723207,1.00000000143152,0.61931339341978
22899.9999999473,24.7038012924296,1.00000000139796,0.627121172030804
22999.9999999458,24.7166131157349,1.00000000133127,0.623743541507798
23099.9999999443,24.7264859394281,1.00000000135356,0.625981838797418
23199.9999999429,24.7375152129568,1.00000000126728,0.631178962823208
23299.9999999414,24.7497550420787,1.00000000127079,0.629991329214949
23399.99999994,24.7635856667637,1.00000000132891,0.626983258081916
23499.9999999385,24.7793108952892,1.0000000012655,0.624965270134928
23599.9999999371,24.7925661044159,1.00000000145747,0.628318748525523
23699.9999999356,24.7988575450643,1.00000000139628,0.635005260003308
23799.9999999342,24.8020630221543,1.00000000134057,0.643898596174241
23899.9999999327,24.8044331744752,1.00000000131892,0.647748371643299
23999.9999999312,24.8045846828604,1.00000000138491,0.647681508483986
24099.9999999298,24.7998356469469,1.00000000144358,0.648756132236828
24199.9999999283,24.7941602498552,1.00000000129628,0.64572226023192
24299.9999999269,24.7911455479928,1.00000000125746,0.636590304824576
24399.9999999254,24.7887564804954,1.00000000141865,0.632897523326428
24499.999999924,24.7819661589223,1.00000000144463,0.640875832086221
24599.9999999225,24.772133665856,1.00000000135722,0.630642898164074
24699.9999999211,24.7590743529733,1.00000000145051,0.639846100252281
24799.9999999196,24.7409406706773,1.00000000146767,0.638757295663108
24899.9999999181,24.7208701107624,1.00000000140708,0.643522981490834
24999.9999999167,24.6999120794079,1.00000000141443,0.646347807624024
25099.9999999152,24.677852070417,1.00000000137291,0.641815118726961
25199.9999999138,24.6563128494444,1.00000000136144,0.641681097918602
25299.9999999123,24.6336789935682,1.00000000139312,0.64798750366432
25399.9999999109,24.6080200255386,1.00000000138998,0.649640822003785
25499.9999999094,24.5809641866943,1.00000000140793,0.640407177713548
25599.999999908,24.5503515128789,1.00000000134259,0.643917916184407
25699.9999999065,24.5165538540102,1.00000000137968,0.649778962862485
25799.9999999051,24.4796717310896,1.00000000142746,0.649216369562684
25899.9999999036,24.4411930673958,1.0000000014042,0.649854627351818
25999.9999999021,24.3996368005408,1.00000000148463,0.648131675316213
26099.9999999007,24.3540837391546,1.00000000153549,0.652393936760683
26199.9999998992,24.3056022763916,1.00000000142235,0.654987792671604
26299.9999998978,24.2561236393279,1.0000000014472,0.656438844595277
26399.9999998963,24.2052349984179,1.00000000134039,0.657340014049532
26499.9999998949,24.1546464226107,1.00000000130878,0.659967764353624
26599.9999998934,24.107143095143,1.00000000133954,0.656826772299601
26699.999999892,24.0650373909697,1.00000000130547,0.646498477957854
26799.9999998905,24.0282095734314,1.0000000013025,0.635893214110538
26899.999999889,23.9965530097949,1.00000000141487,0.641582068391674
26999.9999998876,23.9705413307149,1.00000000137603,0.640240088148184
27099.9999998861,23.9493176366326,1.00000000139188,0.644005428993585
27199.9999998847,23.9318192976263,1.0000000014628,0.645826412440634
27299.9999998832,23.918809203531,1.00000000130453,0.636089439030826
27399.9999998818,23.911211469551,1.0000000014333,0.633182551355967
27499.9999998803,23.9080511183967,1.00000000132868,0.625540021124624
27599.9999998789,23.9100191563907,1.00000000140348,0.624218922536294
27699.9999998774,23.9155220394005,1.00000000139731,0.623994672025223
27799.9999998759,23.9247943868544,1.00000000141636,0.6197283035167
27899.9999998745,23.9389377081822,1.00000000129318,0.623204951357706
27999.999999873,23.9569751965636,1.00000000147395,0.6214200045804
28099.9999998716,23.9763153368032,1.00000000141833,0.62030561200499
28199.9999998701,24.0005800571522,1.00000000131942,0.613545406948756
28299.9999998687,24.0259727684075,1.0000000014428,0.61673693253197
28399.9999998672,24.0502830712749,1.00000000144696,0.610474199640678
28499.9999998658,24.0774878100402,1.00000000135238,0.609269198401668
28599.9999998643,24.1082845371433,1.00000000135227,0.61153897552436
28699.9999998629,24.1395663238453,1.00000000146051,0.600754714489009
28799.9999998614,24.173639008133,1.0000000014476,0.593125738652909
28899.9999998599,24.210057881672,1.00000000135469,0.597792310712921
28999.9999998585,24.2500085546621,1.0000000013655,0.599903749904983
