Time,AGPnorm,Energy,Entropy
0,0,1,-7.14135294171892e-17
99.9999999999986,0.000309523664440943,0.99999999999728,0.00121166525897312
199.999999999993,0.00210765818056101,0.999999999997174,0.00365793696781337
300,0.00437105385938998,0.999999999999924,0.00689488021485679
400.000000000022,0.00659122341067361,1.00000000000084,0.0110341956649929
500.000000000045,0.00959427791253624,0.999999999998361,0.016075549547087
600.000000000068,0.0135613456725834,0.999999999996662,0.021730800815649
700.000000000091,0.017836313411832,0.999999999998679,0.0279342920541955
800.000000000113,0.0225656061981323,1.00000000000097,0.034742858363013
900.000000000136,0.0275313611893558,0.999999999999613,0.0422301450162355
1000.00000000016,0.0335357012664488,0.999999999997043,0.0502209778739385
1100.0000000001,0.0395690287384552,0.99999999999738,0.058700457050066
1200,0.0462501788163403,1.00000000000042,0.067804852015009
1299.99999999991,0.052350934861059,1.0000000000005,0.0776544802514578
1399.99999999982,0.05984669802245,0.999999999998137,0.0881169072550709
1499.99999999973,0.0670782717928877,0.999999999996655,0.0992157340633495
1599.99999999964,0.0746552609729709,0.999999999999335,0.111064509430519
1699.99999999955,0.0819182486536018,1.00000000000093,0.124060587229748
1799.99999999946,0.0894939528659927,0.999999999999482,0.138049483167968
1899.99999999937,0.0974969652592319,0.99999999999786,0.153327561568658
1999.99999999928,0.10518260534176,0.999999999999637,0.169878657693492
2099.99999999919,0.113860496029585,1.00000000000517,0.188457282352739
2199.99999999909,0.12147517424337,1.00000000000988,0.208902688558307
2299.999999999,0.130709709483929,1.00000000001936,0.231069429996118
2399.99999999891,0.14336187809083,1.00000000003272,0.254469258800826
2499.99999999882,0.167743674135754,1.00000000005664,0.278551164659493
2599.99999999873,0.206253385044888,1.00000000008651,0.302813874275882
2699.99999999864,0.272653411786453,1.00000000011885,0.326204996071997
2799.99999999855,0.39552453788408,1.00000000014688,0.348455172315174
2899.99999999846,0.608053321206446,1.00000000018398,0.368769337870393
2999.99999999837,0.936154582216637,1.00000000022698,0.387988647759781
3099.99999999828,1.41875228197328,1.00000000024924,0.405494846947987
3199.99999999819,2.11584619398523,1.00000000028411,0.421316140960759
3299.99999999809,3.07815163576076,1.00000000031594,0.435268022993871
3399.999999998,4.33088547865761,1.00000000031906,0.448281422928851
3499.99999999791,5.91500533395618,1.00000000039036,0.459981822924603
3599.99999999782,7.88940625492747,1.0000000003807,0.470604218695262
3699.99999999773,10.2938894835869,1.00000000040126,0.479621229212833
3799.99999999764,13.1196871823298,1.00000000044073,0.487754074459061
3899.99999999755,16.3734255628314,1.00000000042062,0.495629308360493
3999.99999999746,20.0927533465297,1.00000000045202,0.502202923503425
4099.99999999738,24.2951716566607,1.00000000046793,0.507540592712249
4199.99999999775,28.9439384674134,1.00000000045737,0.512442343860649
4299.99999999811,33.991680429732,1.0000000004808,0.517290171972926
4399.99999999848,39.4519326170354,1.00000000048026,0.520920560932611
4499.99999999884,45.3292408085022,1.00000000046626,0.523791734499172
4599.9999999992,51.5758299909543,1.00000000047932,0.526344741811391
4699.99999999957,58.1117316172286,1.00000000047071,0.528827715391269
4799.99999999993,64.9184390720391,1.00000000046027,0.530500399061448
4900.00000000029,71.9994351286175,1.00000000046312,0.531946251029903
5000.00000000066,79.3138067719464,1.00000000047244,0.532655430719445
5100.00000000102,86.7817483962001,1.00000000046708,0.533374297054662
5200.00000000139,94.3493318935568,1.00000000045641,0.534415121345223
5300.00000000175,102.021728601439,1.00000000042915,0.534388091434507
5400.00000000211,109.776700708898,1.00000000044109,0.533836914146056
5500.00000000248,117.5506102169,1.00000000045027,0.534279465410452
5600.00000000284,125.280343572723,1.00000000042245,0.533981092625694
5700.00000000321,132.955595637325,1.00000000040327,0.532789992889398
5800.00000000357,140.57451010274,1.0000000004205,0.532509292252431
5900.00000000393,148.096071026806,1.00000000042113,0.531865747204015
6000.0000000043,155.466815511991,1.00000000039774,0.530291966966741
6100.00000000466,162.657290074652,1.0000000003967,0.52895054772926
6200.00000000502,169.67503790213,1.00000000040575,0.528414589891945
6300.00000000539,176.507084837213,1.00000000038415,0.527309910583622
6400.00000000575,183.113759021541,1.00000000038332,0.525295249059571
6500.00000000612,189.466833070009,1.00000000036926,0.523996300202868
6600.00000000648,195.56333774844,1.00000000036974,0.523170955219477
6700.00000000684,201.413121562502,1.00000000036987,0.522223094662962
6800.00000000721,206.996146894301,1.00000000034623,0.5202879099235
6900.00000000757,212.292014534304,1.00000000034669,0.51847755012361
7000.00000000793,217.290851899418,1.00000000033807,0.517606370312193
7100.0000000083,222.007414969885,1.00000000032698,0.51717406426502
7200.00000000866,226.443898636159,1.00000000033098,0.515724786337881
7300.00000000903,230.584998082394,1.00000000032202,0.512580713948079
7400.00000000939,234.421698873905,1.00000000031444,0.510535402026511
7500.00000000975,237.961948111096,1.00000000031265,0.511135579816097
7600.00000001012,241.227265274278,1.00000000031245,0.513492416054199
7700.00000001048,244.218888750906,1.00000000031933,0.513095555433289
7800.00000001084,246.927716975138,1.00000000029302,0.507672125742364
7900.00000001121,249.344232958063,1.00000000027772,0.500661503396883
8000.00000001157,251.478028009324,1.0000000002713,0.499007493471983
8100.00000001194,253.349943329998,1.00000000028306,0.506528066566427
8200.0000000123,254.982453167907,1.00000000027578,0.516042160926198
8300.00000001266,256.392085763557,1.00000000028644,0.517004068155414
8400.00000001303,257.577139250735,1.00000000026637,0.505994277758807
8500.00000001339,258.521287787413,1.00000000024668,0.488452984615585
8600.00000001376,259.203551274524,1.00000000022223,0.480050938309504
8700.00000001412,259.636963353973,1.00000000023895,0.492551601932011
8800.00000001448,259.87289417596,1.00000000026065,0.514712047073368
8900.00000001485,259.975165779438,1.00000000030782,0.528982260052583
9000.00000001521,259.975938063535,1.00000000029266,0.526364258894018
9100.00000001557,259.850247966871,1.000000000259,0.503546935235552
9200.00000001594,259.539927685533,1.00000000019279,0.470743837156854
9300.0000000163,259.000677190634,1.00000000016972,0.452896982645362
9400.00000001667,258.250641642601,1.00000000018294,0.468787950146507
9500.00000001703,257.363683623308,1.0000000002485,0.503958864299566
9600.00000001739,256.421186965026,1.00000000031447,0.532983320676451
9700.00000001776,255.474874088211,1.00000000034069,0.543935694747799
9800.00000001812,254.529754105365,1.00000000032161,0.532231662423831
9900.00000001848,253.540226522962,1.00000000026285,0.496345112480325
10000.0000000188,252.431961534921,1.00000000017557,0.445474857505579
10100.0000000192,251.15024518691,1.00000000012846,0.412036483046445
10200.0000000196,249.702062908494,1.0000000001441,0.427872906109761
10300.0000000199,248.154308030197,1.00000000022215,0.475291031325098
10400.0000000203,246.588675056527,1.00000000032253,0.51835475168274
10500.0000000207,245.065476639118,1.0000000003735,0.543392821982325
10600.000000021,243.610058358639,1.0000000003897,0.549698364640654
10700.0000000214,242.212264334486,1.0000000003566,0.535359106020016
10800.0000000218,240.826933616959,1.00000000028503,0.495278107037838
10900.0000000221,239.389363754675,1.00000000019346,0.433242311889488
11000.0000000225,237.844695913916,1.00000000011546,0.375191596880324
11100.0000000229,236.18067210485,1.00000000009716,0.363003944160272
11200.0000000232,234.43375049718,1.00000000015922,0.405742099568432
11300.0000000236,232.660535430801,1.00000000025172,0.466799546509122
11400.0000000239,230.910393946046,1.00000000035213,0.513079527305621
11500.0000000243,229.21722203929,1.00000000039368,0.537708105360715
11600.0000000247,227.599454317524,1.0000000003991,0.546044312070497
11700.000000025,226.057015067318,1.00000000038335,0.542497220139146
11800.0000000254,224.569227799552,1.00000000035111,0.521944117051552
11900.0000000258,223.097763980669,1.0000000002823,0.476022792064623
12000.0000000261,221.598493083169,1.00000000019341,0.410225667868844
12100.0000000265,220.039898904124,1.00000000012113,0.348138891005326
12200.0000000269,218.418948181662,1.00000000009293,0.321178134650712
12300.0000000272,216.756461624774,1.00000000012524,0.345003947708002
12400.0000000276,215.081039857025,1.00000000018959,0.404138934997942
12500.0000000279,213.416906112077,1.00000000027433,0.463611143777991
12600.0000000283,211.781835431667,1.00000000034316,0.502347899855106
12700.0000000287,210.188815811433,1.00000000040188,0.520901054423304
12800.000000029,208.646760544662,1.00000000038233,0.52995540124385
12900.0000000294,207.158847249996,1.00000000039365,0.534634620452223
13000.0000000298,205.720041025895,1.00000000037892,0.530150134367504
13100.0000000301,204.317180650819,1.00000000033399,0.511263584834146
13200.0000000305,202.930828781189,1.00000000026955,0.474786204481052
13300.0000000309,201.54130763595,1.00000000021769,0.423900587871053
13400.0000000312,200.135702156832,1.00000000016702,0.370411587724085
13500.0000000316,198.713052784776,1.00000000013443,0.330758874266249
13600.0000000319,197.283797568922,1.0000000001155,0.321559041888033
13700.0000000323,195.861969220602,1.00000000013914,0.340599071843748
13800.0000000327,194.457325242148,1.00000000018899,0.382900569237864
13900.000000033,193.072679949948,1.00000000024635,0.435883645573913
14000.0000000334,191.706558553383,1.00000000028898,0.478795653111303
14100.0000000338,190.357223114736,1.00000000033686,0.500383547958465
14200.0000000341,189.024917018025,1.0000000003534,0.504118146871795
14300.0000000345,187.711953656704,1.000000000345,0.503617557964885
14400.0000000349,186.421546767721,1.00000000037317,0.509999520851961
14500.0000000352,185.1560507223,1.0000000003528,0.522501210445907
14600.0000000356,183.91536299102,1.00000000035732,0.529133447260724
14700.0000000359,182.696038292302,1.00000000030759,0.519753461894521
14800.0000000363,181.491946846422,1.00000000028287,0.491192292912046
14900.0000000367,180.297361499143,1.0000000002093,0.449307333927749
15000.000000037,179.110774512924,1.00000000017476,0.405309149222074
15100.0000000374,177.936375930017,1.00000000015661,0.368768916575896
15200.0000000378,176.782042992954,1.00000000015216,0.345854776425125
15300.0000000381,175.655872472082,1.00000000016739,0.340075961093754
15400.0000000385,174.563369582597,1.00000000017646,0.35654253871435
15500.0000000389,173.505998922124,1.00000000019214,0.382591735898944
15600.0000000392,172.479044862832,1.00000000022387,0.409556932158296
15700.0000000396,171.473148847221,1.00000000027161,0.440140827654508
15800.0000000399,170.478032247149,1.00000000030402,0.472988717709863
15900.0000000403,169.487611097495,1.00000000030475,0.497664126068953
16000.0000000407,168.501290687382,1.00000000028493,0.503502160742015
16100.000000041,167.521422616301,1.00000000025422,0.491289463835405
16200.0000000414,166.549250401595,1.00000000025568,0.475296969922518
16300.0000000418,165.582366400849,1.00000000028708,0.471333751648539
16400.0000000418,164.616540529117,1.00000000033693,0.483857335458545
16500.0000000404,163.649849600364,1.0000000003681,0.50745744179619
16600.0000000389,162.68407473724,1.00000000039867,0.528469090406715
16700.0000000375,161.723207444959,1.00000000035594,0.535306534655564
16800.000000036,160.770715065033,1.00000000033862,0.526185482770687
16900.0000000346,159.829278971306,1.00000000028016,0.502816533819801
17000.0000000331,158.902500470734,1.00000000022619,0.466896567732634
17100.0000000317,157.996534226606,1.00000000017103,0.424232660461158
17200.0000000302,157.12107034078,1.00000000013055,0.385068036396194
17300.0000000287,156.28609017129,1.00000000012185,0.357252107314563
17400.0000000273,155.497415650768,1.00000000014924,0.345486030616193
17500.0000000258,154.753954939832,1.00000000018505,0.348296421518824
17600.0000000244,154.050672403229,1.0000000002156,0.362157581388411
17700.0000000229,153.380775307444,1.00000000024312,0.386304623763326
17800.0000000215,152.738088241332,1.00000000025708,0.412998893432924
17900.00000002,152.114357499525,1.00000000026741,0.436925851463297
18000.0000000186,151.499971181826,1.00000000029356,0.45582735257747
18100.0000000171,150.885060321421,1.00000000030248,0.471599713000319
18200.0000000156,150.262009203042,1.00000000031295,0.485930365872205
18300.0000000142,149.629505126858,1.00000000030823,0.497899325475071
18400.0000000127,148.990907612786,1.00000000027838,0.503869965442284
18500.0000000113,148.354010698183,1.00000000025027,0.498597068054589
18600.0000000098,147.725546390776,1.00000000022299,0.484875178217807
18700.0000000084,147.10922041024,1.00000000020839,0.470299878514265
18800.0000000069,146.502425844933,1.0000000002364,0.460517012256677
18900.0000000055,145.897068220495,1.00000000026557,0.458756617242649
19000.000000004,145.282873639828,1.00000000032445,0.467561571551613
19100.0000000026,144.651595635263,1.00000000035723,0.481886219712348
19200.0000000011,144.000651693285,1.0000000003936,0.499084123322761
19299.9999999996,143.332557788087,1.00000000037878,0.516778075242771
19399.9999999982,142.653296213433,1.00000000035659,0.529579003261861
19499.9999999967,141.96936543299,1.00000000034154,0.532229301261828
19599.9999999953,141.287108171068,1.00000000030648,0.524537385080098
19699.9999999938,140.612739447837,1.00000000028219,0.506400617974957
19799.9999999924,139.953034490701,1.00000000022487,0.478908578560615
19899.9999999909,139.316126364684,1.00000000020488,0.447227847733743
19999.9999999895,138.710878894045,1.00000000016459,0.418803327101627
20099.999999988,138.146677571035,1.00000000015463,0.395876310459509
20199.9999999865,137.632283433001,1.00000000013444,0.376199774450124
20299.9999999851,137.173331859792,1.00000000014532,0.360974054175936
20399.9999999836,136.770126841231,1.0000000001586,0.35489645021348
20499.9999999822,136.416118577294,1.00000000018064,0.361199547820946
20599.9999999807,136.099859958559,1.00000000022222,0.380842717905622
20699.9999999793,135.807429350326,1.00000000026637,0.40606194083951
20799.9999999778,135.527560100619,1.00000000028145,0.428369121524793
20899.9999999764,135.254431256038,1.0000000002735,0.445603255864032
20999.9999999749,134.985294269891,1.00000000027296,0.458675203181886
21099.9999999734,134.719698389341,1.00000000025812,0.467183710871398
21199.999999972,134.456913578339,1.00000000025938,0.472293713839466
21299.9999999705,134.194362438232,1.00000000026005,0.476857398773867
21399.9999999691,133.926971008715,1.00000000028513,0.482548503957886
21499.9999999676,133.648665748308,1.00000000030676,0.490812439927051
21599.9999999662,133.354030175049,1.00000000030786,0.500364713037515
21699.9999999647,133.039511777212,1.00000000030589,0.509973040048177
21799.9999999633,132.705602001172,1.0000000003002,0.518728448627172
21899.9999999618,132.35615412843,1.00000000029602,0.524000932496702
21999.9999999603,131.998118728866,1.00000000027151,0.52253425459531
22099.9999999589,131.639174967644,1.00000000023615,0.514209475109837
22199.9999999574,131.285241050847,1.00000000022736,0.503850628570531
22299.999999956,130.938118150672,1.00000000021586,0.496711660624131
22399.9999999545,130.595874401209,1.00000000022786,0.492863609382069
22499.9999999531,130.254693861463,1.00000000023768,0.48843888458589
22599.9999999516,129.909860498517,1.00000000026281,0.481996586353406
22699.9999999502,129.558207296281,1.0000000002684,0.477990637766528
22799.9999999487,129.196422344335,1.00000000028401,0.479168084808818
22899.9999999473,128.821059960815,1.00000000031025,0.485003558732662
22999.9999999458,128.428120898307,1.00000000032799,0.496547526232351
23099.9999999443,128.01551523376,1.0000000003672,0.511541439980802
23199.9999999429,127.58395151318,1.00000000035609,0.526083903991077
23299.9999999414,127.136835400342,1.0000000003783,0.535835875600382
23399.99999994,126.679699425996,1.00000000035406,0.539965021958779
23499.9999999385,126.218846175662,1.00000000032282,0.536084692749806
23599.9999999371,125.76106853453,1.0000000002799,0.523354558984857
23699.9999999356,125.313424699796,1.00000000024511,0.503165067415491
23799.9999999342,124.884060311358,1.00000000020597,0.479627736940182
23899.9999999327,124.482403059756,1.00000000017736,0.454299490418118
23999.9999999312,124.118130354427,1.00000000015987,0.429948513965937
24099.9999999298,123.799762633608,1.00000000013937,0.411260940203503
24199.9999999283,123.532265885297,1.00000000015254,0.396616923203356
24299.9999999269,123.317532025209,1.00000000015608,0.385209689313752
24399.9999999254,123.153981322345,1.0000000001771,0.379204532181911
24499.999999924,123.038108463613,1.00000000020182,0.37755772613797
24599.9999999225,122.965407980593,1.0000000002011,0.380006701543031
24699.9999999211,122.930215099219,1.00000000022119,0.38571673571667
24799.9999999196,122.924920717336,1.00000000022793,0.39513533920433
24899.9999999181,122.939368256069,1.00000000026654,0.408951467494699
24999.9999999167,122.962119210063,1.00000000026157,0.42588256399887
25099.9999999152,122.982259518661,1.00000000028931,0.442788338490948
25199.9999999138,122.9925593881,1.00000000030909,0.456671560337781
25299.9999999123,122.990212821579,1.00000000030449,0.467536910878275
25399.9999999109,122.975523139119,1.00000000029222,0.477539399626276
25499.9999999094,122.951169896371,1.00000000028588,0.487436345069517
25599.999999908,122.920828778492,1.00000000026965,0.49567217669764
25699.9999999065,122.889150734734,1.00000000025827,0.500239276070471
25799.9999999051,122.860201327328,1.00000000023251,0.501639190649591
25899.9999999036,122.83655218446,1.00000000023649,0.501978728675808
25999.9999999021,122.817784044483,1.00000000023124,0.502555067940743
26099.9999999007,122.80031116029,1.00000000024469,0.504048629874002
26199.9999998992,122.778229596078,1.00000000025481,0.506825856726527
26299.9999998978,122.744156140138,1.00000000027834,0.509892849114652
26399.9999998963,122.691446804209,1.0000000003051,0.515105972966608
26499.9999998949,122.615509269256,1.00000000029526,0.519222038386386
26599.9999998934,122.51493732787,1.00000000030548,0.519662782686939
26699.999999892,122.390606983506,1.00000000031507,0.515481473027931
26799.9999998905,122.244018913723,1.00000000030325,0.509603335811104
26899.999999889,122.076497316264,1.00000000031452,0.508097509734011
26999.9999998876,121.889924387496,1.00000000032064,0.515514847049491
27099.9999998861,121.687800214941,1.00000000031137,0.525855159642311
27199.9999998847,121.47500743184,1.00000000028773,0.529518952750776
27299.9999998832,121.257293567541,1.00000000026483,0.524685535755307
27399.9999998818,121.040004590193,1.00000000024539,0.516139756240604
27499.9999998803,120.827527993506,1.00000000023272,0.508986978248615
27599.9999998789,120.62252764116,1.00000000021785,0.506103835818332
27699.9999998774,120.425831146019,1.00000000022006,0.506266689284571
27799.9999998759,120.236584433368,1.00000000021822,0.508303904565391
27899.9999998745,120.052056951531,1.00000000023,0.510865908969666
27999.999999873,119.868851165634,1.00000000023909,0.512753485799053
28099.9999998716,119.683463575576,1.00000000024625,0.513933754553731
28199.9999998701,119.492744680736,1.00000000025349,0.516176668534718
28299.9999998687,119.293903774716,1.00000000026772,0.518052076419003
28399.9999998672,119.084475058479,1.00000000027932,0.516988636888131
28499.9999998658,118.862949003354,1.00000000029142,0.513373474192742
28599.9999998643,118.628436456959,1.00000000030581,0.509374572764168
28699.9999998629,118.380169490802,1.00000000032211,0.507455968786539
28799.9999998614,118.116994661502,1.00000000034466,0.509028468313107
28899.9999998599,117.837907361542,1.00000000036122,0.515046855768222
28999.9999998585,117.543195610895,1.00000000035932,0.523340568287388
