Time,AGPnorm,Energy,Entropy
0,0,1,-7.77746191890505e-17
99.9999999999986,0.000588366900520711,1.0000000000004,0.00212243665810849
199.999999999993,0.00391969670556432,1.00000000000096,0.00634677544171519
300,0.00808296584912511,1.00000000000084,0.0118629881731238
400.000000000022,0.0125435308764336,1.00000000000027,0.0186800795048925
500.000000000045,0.0177250166449028,0.999999999999949,0.0269578786984414
600.000000000068,0.0249659275688122,1.00000000000067,0.0364735400021966
700.000000000091,0.0323596600078674,1.000000000001,0.0469376649719817
800.000000000113,0.040568918504737,1.00000000000078,0.0583178673659535
900.000000000136,0.0493447554479319,0.999999999999944,0.0708954918812841
1000.00000000016,0.059006276304274,1.00000000000017,0.084672521144437
1100.0000000001,0.0689672821569835,1.00000000000097,0.099899198668202
1200,0.0788956441586155,1.00000000000112,0.11645622469625
1299.99999999991,0.0893936102010511,1.00000000000072,0.134935033054807
1399.99999999982,0.0995662145293538,1.00000000000086,0.155694849415712
1499.99999999973,0.110358063021229,1.00000000000463,0.179604580330179
1599.99999999964,0.121322354870383,1.00000000001517,0.207087498219162
1699.99999999955,0.134809984184054,1.0000000000406,0.23807061746767
1799.99999999946,0.14861169327491,1.00000000008216,0.271470102062663
1899.99999999937,0.17177467677931,1.00000000015344,0.305221483998846
1999.99999999928,0.234098082656326,1.00000000023122,0.33762517422707
2099.99999999919,0.369029909739187,1.00000000032864,0.367238739806546
2199.99999999909,0.606260782561476,1.00000000041911,0.394149318685384
2299.999999999,0.999921615456224,1.00000000047315,0.418114625393054
2399.99999999891,1.62916797705726,1.00000000055918,0.439270159233639
2499.99999999882,2.56157583372159,1.00000000064071,0.457888647508405
2599.99999999873,3.83756804163874,1.00000000072576,0.474340021380961
2699.99999999864,5.50106289702073,1.00000000072615,0.488712471808128
2799.99999999855,7.59104699576274,1.00000000076522,0.501014102872552
2899.99999999846,10.1283383636387,1.00000000083741,0.511480529390113
2999.99999999837,13.1141173543771,1.00000000084176,0.520680501271199
3099.99999999828,16.5440151146718,1.00000000085701,0.528285667120873
3199.99999999819,20.3957500272367,1.00000000083424,0.534889530264299
3299.99999999809,24.6263245510952,1.00000000083153,0.540291237165636
3399.999999998,29.1970251707233,1.00000000088895,0.544607773332846
3499.99999999791,34.0759948390642,1.00000000082901,0.548124073477908
3599.99999999782,39.2160642646953,1.00000000087336,0.551075281587894
3699.99999999773,44.5469985128572,1.00000000083775,0.553331093243491
3799.99999999764,50.0091551575667,1.00000000081877,0.554191644650952
3899.99999999755,55.5658301388226,1.00000000080971,0.555645629844444
3999.99999999746,61.1753608201115,1.00000000081212,0.556384149257199
4099.99999999738,66.7787375018398,1.00000000080359,0.555775465445772
4199.99999999775,72.3186272765741,1.00000000076561,0.555271159410746
4299.99999999811,77.758410675455,1.00000000079108,0.555792109113027
4399.99999999848,83.0774443508299,1.00000000075795,0.553673812801157
4499.99999999884,88.2444604649668,1.00000000071496,0.552801291486811
4599.9999999992,93.2127281056384,1.00000000072949,0.551700827631725
4699.99999999957,97.9556030058441,1.00000000068331,0.550276370296082
4799.99999999993,102.463745381813,1.00000000067905,0.54915110191478
4900.00000000029,106.730387743648,1.0000000006849,0.547266599016205
5000.00000000066,110.73113699572,1.00000000065971,0.545335127809896
5100.00000000102,114.451275193582,1.00000000062741,0.544631032176803
5200.00000000139,117.886192405219,1.00000000063008,0.543552922227491
5300.00000000175,121.044520029791,1.00000000061502,0.540366828708944
5400.00000000211,123.92211817535,1.00000000057822,0.540160776288834
5500.00000000248,126.515873861084,1.00000000059953,0.539810583324003
5600.00000000284,128.821678183869,1.00000000058761,0.535179392742232
5700.00000000321,130.845986626983,1.00000000054059,0.532876578898282
5800.00000000357,132.605951617399,1.00000000055236,0.53811758952784
5900.00000000393,134.115312338865,1.0000000005488,0.536366949848508
6000.0000000043,135.363749296383,1.0000000005027,0.524061405987353
6100.00000000466,136.346849463657,1.00000000048867,0.526034716857378
6200.00000000502,137.106479376747,1.00000000052675,0.541765232849054
6300.00000000539,137.682253561512,1.00000000052074,0.539614050917049
6400.00000000575,138.049509966049,1.00000000044128,0.5138265589418
6500.00000000612,138.177023442395,1.00000000040033,0.510431433144656
6600.00000000648,138.117769826095,1.00000000049334,0.540687423810017
6700.00000000684,137.958748412342,1.00000000054839,0.553131414658694
6800.00000000721,137.695701441032,1.00000000045729,0.52331080909878
6900.00000000757,137.252161879671,1.00000000033061,0.485107149694645
7000.00000000793,136.620530923208,1.00000000037062,0.506177212249572
7100.0000000083,135.903442678331,1.00000000056553,0.552439659952395
7200.00000000866,135.18542953556,1.00000000061424,0.561645849201905
7300.00000000903,134.439567869944,1.00000000048449,0.519819339775642
7400.00000000939,133.570166244169,1.00000000028792,0.460163899534806
7500.00000000975,132.548119332957,1.00000000031137,0.470866613593179
7600.00000001012,131.460652792177,1.00000000054026,0.534677380616693
7700.00000001048,130.406191069834,1.0000000006848,0.567693203003686
7800.00000001084,129.403513707887,1.00000000061944,0.553928796324711
7900.00000001121,128.38880638797,1.00000000042313,0.486898870398811
8000.00000001157,127.278749891785,1.00000000025038,0.420733037391116
8100.00000001194,126.067217988569,1.00000000028282,0.440785469260615
8200.0000000123,124.827554518022,1.0000000005421,0.517616954822424
8300.00000001266,123.630037401139,1.0000000006909,0.561229196667745
8400.00000001303,122.501867345523,1.00000000070106,0.561766292313545
8500.00000001339,121.416771298848,1.00000000058104,0.52130298309457
8600.00000001376,120.31200510072,1.0000000003401,0.438736541758277
8700.00000001412,119.145295633185,1.00000000023616,0.38294137383556
8800.00000001448,117.928409763958,1.00000000031397,0.417768668950543
8900.00000001485,116.705566616505,1.00000000053162,0.497912635722122
9000.00000001521,115.518178928314,1.00000000071789,0.543907083944985
9100.00000001557,114.387835179539,1.000000000732,0.553237141261587
9200.00000001594,113.309280634665,1.00000000064106,0.538563572030451
9300.0000000163,112.254282572147,1.00000000051513,0.491695531919865
9400.00000001667,111.18799473737,1.00000000037667,0.418691674705734
9500.00000001703,110.096785123379,1.00000000025999,0.375219086493969
9600.00000001739,108.992339054514,1.00000000032223,0.395086059098687
9700.00000001776,107.892793110128,1.00000000046549,0.456095252047951
9800.00000001812,106.811847157223,1.00000000059956,0.511539001050944
9900.00000001848,105.759843969349,1.00000000068983,0.533406058051118
10000.0000000188,104.742714619779,1.00000000068543,0.538362311375181
10100.0000000192,103.757315212506,1.00000000061273,0.531517033170361
10200.0000000196,102.791505318941,1.00000000049864,0.496626577917582
10300.0000000199,101.832617265016,1.00000000038723,0.445875039326475
10400.0000000203,100.877695119678,1.00000000034193,0.403874170074352
10500.0000000207,99.9336539883224,1.00000000031874,0.391663134785767
10600.000000021,99.0069389421273,1.00000000038114,0.418063183613135
10700.0000000214,98.0981472819543,1.00000000046235,0.45477215335233
10800.0000000218,97.204968483067,1.00000000051165,0.493604951411766
10900.0000000221,96.3257870713431,1.00000000058153,0.511358099405826
11000.0000000225,95.4599560229399,1.00000000061903,0.514778860037116
11100.0000000229,94.6076976024233,1.00000000066162,0.52721833762594
11200.0000000232,93.7703269642516,1.00000000061895,0.536772434736314
11300.0000000236,92.9483291035214,1.00000000052158,0.514948392742877
11400.0000000239,92.1418669762723,1.00000000038031,0.466875769140107
11500.0000000243,91.3549074294192,1.00000000031513,0.425725926008331
11600.0000000247,90.5934364860701,1.0000000003427,0.409047142341899
11700.000000025,89.8594628217563,1.00000000040973,0.413964860446735
11800.0000000254,89.1502954539443,1.00000000045291,0.440690637052823
11900.0000000258,88.4600169663539,1.00000000049829,0.4656579823349
12000.0000000261,87.7832993914586,1.00000000051179,0.480943721144282
12100.0000000265,87.1180890297303,1.00000000048026,0.494946656801172
12200.0000000269,86.4652771327606,1.00000000045516,0.495250592839517
12300.0000000272,85.8230004053294,1.00000000048726,0.493563370154303
12400.0000000276,85.1835450935968,1.0000000006154,0.507826286226288
12500.0000000279,84.5405407089149,1.00000000070259,0.527510710236162
12600.0000000283,83.8962163139954,1.00000000065651,0.539405216031827
12700.0000000287,83.2580000154267,1.00000000055568,0.524308739473507
12800.000000029,82.6349452731884,1.00000000043596,0.484311163896552
12900.0000000294,82.038734852815,1.0000000003212,0.441095989561984
13000.0000000298,81.4791136789045,1.00000000029632,0.415655390998478
13100.0000000301,80.9557662957007,1.00000000036431,0.412499344078362
13200.0000000305,80.459449221933,1.0000000004644,0.427691514166531
13300.0000000309,79.9798571385234,1.00000000051705,0.44871448126382
13400.0000000312,79.5096729551105,1.00000000053225,0.473763105988318
13500.0000000316,79.0449334605535,1.00000000054423,0.48869006105076
13600.0000000319,78.5854058711043,1.00000000048743,0.494349276995391
13700.0000000323,78.1331358977294,1.00000000046384,0.495156052865677
13800.0000000327,77.6915159666571,1.00000000043879,0.497443275219092
13900.000000033,77.2612805530131,1.0000000004456,0.497661306676596
14000.0000000334,76.8373042057798,1.00000000048223,0.497515659032323
14100.0000000338,76.4099174701808,1.00000000057826,0.502665873750006
14200.0000000341,75.9710436925055,1.00000000066238,0.514926399307061
14300.0000000345,75.519145172543,1.00000000068843,0.528744900545296
14400.0000000349,75.0598185223941,1.00000000062352,0.537100255255431
14500.0000000352,74.6020521644861,1.00000000053683,0.526175524986729
14600.0000000356,74.157017454095,1.00000000044345,0.500211116868599
14700.0000000359,73.7358548008205,1.00000000037846,0.467109690852093
14800.0000000363,73.3486244929447,1.00000000035509,0.442720598541409
14900.0000000367,73.0002591094642,1.00000000035961,0.432574327571409
15000.000000037,72.6882649581765,1.0000000003894,0.429977137878597
15100.0000000374,72.403719680419,1.00000000041219,0.434673636973998
15200.0000000378,72.1336439595683,1.00000000050364,0.456649954654769
15300.0000000381,71.8692077493147,1.00000000053705,0.47557492324973
15400.0000000385,71.609065294852,1.00000000048749,0.480898070806786
15500.0000000389,71.35583971181,1.0000000004695,0.485277746075369
15600.0000000392,71.1090174738013,1.00000000047712,0.491111925018362
15700.0000000396,70.8636848029675,1.00000000052233,0.503272603098849
15800.0000000399,70.6131544913448,1.00000000054214,0.520097257982002
15900.0000000403,70.3545945464954,1.0000000005596,0.528528874422023
16000.0000000407,70.0897772746998,1.00000000050148,0.53334809536165
16100.000000041,69.8242048626214,1.00000000044858,0.533776929838834
16200.0000000414,69.5606582945263,1.00000000044156,0.524776205265973
16300.0000000418,69.2999900141625,1.00000000046383,0.515317238596152
16400.0000000418,69.0401370604158,1.00000000051604,0.502699364665435
16500.0000000404,68.7766996966373,1.00000000054275,0.501729199578324
16600.0000000389,68.5040253343061,1.00000000061121,0.515467424057971
16700.0000000375,68.217610735025,1.00000000066066,0.533532677711277
16800.000000036,67.9191363543482,1.00000000062323,0.546422080252806
16900.0000000346,67.6166214529648,1.00000000057565,0.543579174981525
17000.0000000331,67.3215000777531,1.00000000046277,0.52333802222013
17100.0000000317,67.0468839734352,1.00000000038631,0.496695123200008
17200.0000000302,66.8043128547993,1.00000000034129,0.471219542275538
17300.0000000287,66.5991617126929,1.00000000035501,0.45351527784298
17400.0000000273,66.4295788135226,1.00000000040678,0.447469307873541
17500.0000000258,66.2893630770115,1.00000000042284,0.449833734231081
17600.0000000244,66.1699756514672,1.00000000048474,0.456995292729314
17700.0000000229,66.0626804692033,1.00000000047447,0.460871839235947
17800.0000000215,65.9609310610451,1.00000000051643,0.467557027328798
17900.00000002,65.8593970364312,1.00000000053025,0.480380830569705
18000.0000000186,65.7557390604375,1.00000000054388,0.494558928792162
18100.0000000171,65.6531106606888,1.00000000050583,0.503413777361735
18200.0000000156,65.558910002248,1.00000000044822,0.504849112672322
18300.0000000142,65.4784479431474,1.00000000042855,0.504263761817001
18400.0000000127,65.4109754616456,1.00000000042726,0.506993659821035
18500.0000000113,65.3477771678081,1.00000000047914,0.515972574683618
18600.0000000098,65.277097267574,1.000000000524,0.528095072845197
18700.0000000084,65.1884551233299,1.0000000005748,0.534735465862984
18800.0000000069,65.0762063166531,1.00000000062268,0.539741244261771
18900.0000000055,64.939995925636,1.00000000058884,0.539689188022247
19000.000000004,64.7849325902683,1.00000000052769,0.541727783227422
19100.0000000026,64.6194012230273,1.00000000051208,0.550214418105953
19200.0000000011,64.4520964620433,1.00000000049365,0.551590049965578
19299.9999999996,64.2885757944779,1.00000000044057,0.541371332004864
19399.9999999982,64.1314482932524,1.0000000004083,0.532303014494151
19499.9999999967,63.9808062690378,1.00000000043597,0.532840157126661
19599.9999999953,63.8328523158223,1.00000000047805,0.531253147842109
19699.9999999938,63.682587595381,1.00000000051698,0.525415327078603
19799.9999999924,63.5260919539429,1.00000000053034,0.524881939098261
19899.9999999909,63.3604496063707,1.0000000005766,0.531322422204992
19999.9999999895,63.184105745358,1.00000000062192,0.540988509390232
20099.999999988,62.9964077865314,1.00000000064615,0.55075631496495
20199.9999999865,62.8004888565221,1.00000000060752,0.555041995459912
20299.9999999851,62.6031030458507,1.00000000052649,0.550603225639562
20399.9999999836,62.4139393618661,1.0000000004643,0.539205654114666
20499.9999999822,62.2432352916578,1.00000000041129,0.52040044794846
20599.9999999807,62.0989914865369,1.00000000037008,0.497997024039554
20699.9999999793,61.9854118717917,1.00000000036265,0.48260295937867
20799.9999999778,61.9038635981944,1.00000000037676,0.47039881975107
20899.9999999764,61.8521418005443,1.00000000039101,0.468087861001762
20999.9999999749,61.8250853167206,1.00000000042726,0.472434323691338
21099.9999999734,61.8175543736253,1.00000000047086,0.473050200023277
21199.999999972,61.8219347400754,1.00000000047977,0.469277063809134
21299.9999999705,61.8303618431331,1.00000000050813,0.473090432921621
21399.9999999691,61.8388788356935,1.00000000052873,0.478777662424174
21499.9999999676,61.8493286404664,1.00000000047678,0.478114383476683
21599.9999999662,61.866646721124,1.00000000045212,0.475413263069597
21699.9999999647,61.893608706104,1.00000000042414,0.481856308450349
21799.9999999633,61.9278002383775,1.0000000004753,0.499770731256589
21899.9999999618,61.9624750743612,1.00000000049292,0.515457097001824
21999.9999999603,61.9908150982005,1.00000000053697,0.525537545700487
22099.9999999589,62.0078602766241,1.00000000053363,0.534922708677653
22199.9999999574,62.0131408733936,1.00000000056613,0.545971408271838
22299.999999956,62.0111545098309,1.00000000054458,0.551226274453379
22399.9999999545,62.0062878762582,1.00000000046864,0.549023945695275
22499.9999999531,62.0007914824788,1.00000000049933,0.547725445842589
22599.9999999516,61.9946584513795,1.00000000049266,0.549380502762996
22699.9999999502,61.9869656874379,1.00000000048102,0.557094808210824
22799.9999999487,61.9766967771274,1.00000000046992,0.560994247728126
22899.9999999473,61.9609278947789,1.00000000049809,0.560458331292477
22999.9999999458,61.9362816139637,1.00000000052413,0.558228784839508
23099.9999999443,61.8998219806008,1.00000000051717,0.555485510744755
23199.9999999429,61.84921433893,1.00000000052079,0.554689485194445
23299.9999999414,61.783814466888,1.0000000005528,0.548986224202156
23399.99999994,61.7051935869345,1.00000000052512,0.53814255593724
23499.9999999385,61.6158699286088,1.00000000053136,0.536806796109419
23599.9999999371,61.5178156404385,1.00000000051684,0.546857919297157
23699.9999999356,61.4123223325298,1.00000000051527,0.557836103777321
23799.9999999342,61.3009970229078,1.00000000051355,0.565318559587014
23899.9999999327,61.1856890485323,1.00000000050428,0.565832325927924
23999.9999999312,61.0699458399289,1.00000000046591,0.562061347140813
24099.9999999298,60.9574380888513,1.00000000043778,0.557147634982989
24199.9999999283,60.8502550736073,1.0000000004289,0.557981778484273
24299.9999999269,60.7474386939937,1.00000000043708,0.56109179844523
24399.9999999254,60.6466633804183,1.00000000046038,0.559354395197365
24499.999999924,60.5457679828411,1.0000000004859,0.558033659722397
24599.9999999225,60.4430201879323,1.00000000049871,0.559910593610542
24699.9999999211,60.3371628689778,1.00000000050397,0.558615809639563
24799.9999999196,60.2267807483287,1.00000000053219,0.554356329887987
24899.9999999181,60.1106286562159,1.00000000059018,0.551053884139624
24999.9999999167,59.9881617230538,1.00000000061115,0.548644434347259
25099.9999999152,59.8581184749438,1.00000000059638,0.549478707763333
25199.9999999138,59.7202910392638,1.00000000058879,0.551846883754658
25299.9999999123,59.5781785002141,1.00000000057077,0.554745630261606
25399.9999999109,59.4373340046953,1.00000000051867,0.55266854999134
25499.9999999094,59.3041982792481,1.00000000047403,0.547107931147013
25599.999999908,59.1855253484432,1.00000000041488,0.535153034914246
25699.9999999065,59.0868756176485,1.00000000038979,0.520800328847644
25799.9999999051,59.0125527380874,1.00000000037992,0.512083475532897
25899.9999999036,58.9648250611412,1.00000000037289,0.504392664363772
25999.9999999021,58.9443275295227,1.0000000003839,0.494848837679177
26099.9999999007,58.9485609999172,1.000000000405,0.488360517196488
26199.9999998992,58.9741532175486,1.00000000041898,0.48590932638703
26299.9999998978,59.0183816455616,1.00000000043801,0.483755884639299
26399.9999998963,59.0763888752681,1.00000000049853,0.484962874518773
26499.9999998949,59.1413762355411,1.00000000050433,0.488167771706072
26599.9999998934,59.2092871326274,1.00000000048978,0.493031950322213
26699.999999892,59.280153907797,1.0000000005213,0.495353420612362
26799.9999998905,59.3563788099774,1.00000000047326,0.490318847203275
26899.999999889,59.4393265885379,1.00000000047492,0.485394797280625
26999.9999998876,59.5269682214713,1.00000000049565,0.489119621363043
27099.9999998861,59.6165427806091,1.00000000049018,0.499640140535853
27199.9999998847,59.7064320591213,1.00000000048182,0.508289585874156
27299.9999998832,59.7960077105468,1.00000000049791,0.518197608113672
27399.9999998818,59.8850353488727,1.00000000049776,0.526824067803364
27499.9999998803,59.9717027539828,1.00000000051163,0.535164656999711
27599.9999998789,60.0544209174507,1.00000000048995,0.541872911273634
27699.9999998774,60.1316830049373,1.00000000052396,0.550253748522627
27799.9999998759,60.2030096320508,1.00000000053066,0.55645715360478
27899.9999998745,60.2679158390445,1.00000000050484,0.561728553811571
27999.999999873,60.3266430317007,1.00000000050185,0.567899685763932
28099.9999998716,60.3783619151322,1.00000000051068,0.570245648202106
28199.9999998701,60.4226997226196,1.00000000054486,0.569017162678061
28299.9999998687,60.4588677980137,1.00000000053855,0.566741352057484
28399.9999998672,60.4860503898688,1.00000000053586,0.568657579692507
28499.9999998658,60.5043652133689,1.00000000053715,0.570435974460573
28599.9999998643,60.5147924839116,1.00000000052182,0.57174131920598
28699.9999998629,60.5196598739739,1.00000000049945,0.577511564220621
28799.9999998614,60.5219998773877,1.0000000004978,0.578695492149884
28899.9999998599,60.5248521106889,1.00000000044861,0.569849549300833
28999.9999998585,60.5288300943559,1.00000000047864,0.566035878524507
