Time,AGPnorm,Energy,Entropy
0,0,1,-1.26735561057177e-17
99.9999999999986,4.51863143265069e-05,1.00000000000109,0.00175472898511957
199.999999999993,0.00392333368356713,1.00000000000024,0.00279819625379888
300,0.00980711259794123,1.00000000000058,0.00493282838276719
400.000000000022,0.013656316682309,1.00000000000096,0.00830666841128758
500.000000000045,0.0166107609820737,0.999999999999887,0.0111995051689311
600.000000000068,0.0235252422090544,1.00000000000112,0.0154853593612864
700.000000000091,0.029234681492186,1.00000000000029,0.0197557513429117
800.000000000113,0.0373866263427548,1.00000000000052,0.0243678615688336
900.000000000136,0.0463749636579382,1.00000000000105,0.0298173043145545
1000.00000000016,0.0536123353858092,0.999999999999736,0.035093497220238
1100.0000000001,0.0635672312185419,1.00000000000118,0.0411277925266836
1200,0.0745470615838713,1.00000000000043,0.0474540693209581
1299.99999999991,0.0855184872083483,1.00000000000033,0.0540468324372472
1399.99999999982,0.0969603738963081,1.00000000000113,0.0612807875942168
1499.99999999973,0.107947960383478,0.999999999999666,0.0686175330985831
1599.99999999964,0.120284006912436,1.00000000000123,0.0766038934748563
1699.99999999955,0.133773625532111,1.00000000000062,0.0851144068457394
1799.99999999946,0.146265572958089,1.00000000000004,0.0940062243445453
1899.99999999937,0.158950545654202,1.00000000000124,0.103613320453944
1999.99999999928,0.172323979547339,0.999999999999747,0.113742807652183
2099.99999999919,0.185836641275218,1.00000000000119,0.12481750656
2199.99999999909,0.199702390728197,1.00000000000096,0.136937681576023
2299.999999999,0.212508850246444,1.00000000000055,0.150067870901571
2399.99999999891,0.225545094582196,1.0000000000041,0.164900161692119
2499.99999999882,0.238840238725121,1.00000000000945,0.181593402023559
2599.99999999873,0.253030031199884,1.00000000002668,0.200189966876742
2699.99999999864,0.266082000485169,1.00000000005646,0.220380320128442
2799.99999999855,0.277470609722844,1.00000000010118,0.241059219827212
2899.99999999846,0.299871867694808,1.00000000017004,0.26213155076098
2999.99999999837,0.316928592305681,1.00000000022972,0.282986716953206
3099.99999999828,0.355727953587241,1.00000000033101,0.303292777323265
3199.99999999819,0.416666997750307,1.00000000041872,0.32314058785938
3299.99999999809,0.496896969449559,1.00000000052731,0.342190539155968
3399.999999998,0.647123374006548,1.00000000057732,0.360754852873894
3499.99999999791,0.843386607573151,1.00000000067149,0.378369388055276
3599.99999999782,1.13000343335318,1.00000000073405,0.395269242878878
3699.99999999773,1.53093229072433,1.00000000086969,0.410994954583264
3799.99999999764,2.03600010568234,1.00000000087925,0.426347678756904
3899.99999999755,2.70325250804994,1.00000000098907,0.440595297068129
3999.99999999746,3.5245743849359,1.00000000106288,0.453856731801821
4099.99999999738,4.52254360595632,1.00000000113568,0.466440199961754
4199.99999999775,5.72316000531206,1.00000000115925,0.478155616198394
4299.99999999811,7.11976855121929,1.00000000118653,0.489067166801809
4399.99999999848,8.73439794358263,1.00000000123238,0.499362082568524
4499.99999999884,10.5693686637815,1.00000000128724,0.508514894522398
4599.9999999992,12.6276870011018,1.00000000130669,0.517341791633827
4699.99999999957,14.9046768640655,1.00000000129835,0.525581876137918
4799.99999999993,17.4083559923389,1.00000000135703,0.532625184115929
4900.00000000029,20.123906330576,1.00000000135483,0.539792528453571
5000.00000000066,23.0428702025774,1.00000000134723,0.545948611655871
5100.00000000102,26.1726775815125,1.00000000140238,0.551550252757859
5200.00000000139,29.4722606215406,1.00000000134138,0.557293123113699
5300.00000000175,32.9571347222144,1.00000000136848,0.561742954769851
5400.00000000211,36.6036574546019,1.00000000141206,0.566267085564024
5500.00000000248,40.3787767623939,1.00000000139783,0.570439048064686
5600.00000000284,44.3060823332833,1.00000000134826,0.573780516575978
5700.00000000321,48.3261485286344,1.0000000014,0.577436099218903
5800.00000000357,52.4472604472115,1.00000000136533,0.580204561820378
5900.00000000393,56.6601367847229,1.00000000132407,0.58300090263119
6000.0000000043,60.9106914770341,1.00000000133062,0.585648770376289
6100.00000000466,65.2326530931167,1.0000000012909,0.587237949472691
6200.00000000502,69.5710703981823,1.0000000013187,0.589499479884354
6300.00000000539,73.9190948475711,1.00000000130645,0.591089442230459
6400.00000000575,78.2865813655239,1.00000000126449,0.592049204978885
6500.00000000612,82.613573416567,1.0000000012609,0.593694712198298
6600.00000000648,86.9314356369967,1.00000000121073,0.594514293274681
6700.00000000684,91.2026291665829,1.00000000121063,0.595662211129214
6800.00000000721,95.4079080331577,1.00000000122129,0.596383066332209
6900.00000000757,99.570664172908,1.00000000117761,0.59643465588133
7000.00000000793,103.635947528296,1.00000000116656,0.59759405172554
7100.0000000083,107.627746180507,1.00000000114138,0.597626186598148
7200.00000000866,111.528268755087,1.00000000115091,0.597510681655079
7300.00000000903,115.312193920951,1.0000000011425,0.59813833427095
7400.00000000939,119.006099090691,1.00000000109573,0.597732619681199
7500.00000000975,122.568576174819,1.00000000108834,0.598034503759639
7600.00000001012,126.015223418655,1.00000000107163,0.597700251289439
7700.00000001048,129.343249428968,1.00000000107333,0.597143147654122
7800.00000001084,132.524792066263,1.00000000105375,0.598015496654839
7900.00000001121,135.590445146791,1.00000000101031,0.596199646509271
8000.00000001157,138.507758465775,1.00000000104038,0.597277550179825
8100.00000001194,141.289516266321,1.00000000099425,0.595893849506368
8200.0000000123,143.938927884557,1.00000000102556,0.596042410057026
8300.00000001266,146.43515420009,1.00000000097006,0.595359395671197
8400.00000001303,148.801168307109,1.00000000092724,0.595738228130926
8500.00000001339,151.019974136614,1.00000000093694,0.59391322892578
8600.00000001376,153.095358816224,1.00000000094497,0.595031901079598
8700.00000001412,155.040192030223,1.00000000089042,0.592682696554061
8800.00000001448,156.832367969559,1.00000000085894,0.594409780714678
8900.00000001485,158.498149393724,1.00000000086653,0.592145046607635
9000.00000001521,160.021811948849,1.0000000008674,0.592608895688012
9100.00000001557,161.410553623513,1.00000000086596,0.591996680485933
9200.00000001594,162.673751783435,1.00000000081826,0.59144658586599
9300.0000000163,163.800036023915,1.00000000082986,0.591485972177339
9400.00000001667,164.805641562813,1.00000000080307,0.590353183364736
9500.00000001703,165.687470955267,1.00000000078625,0.591196540484607
9600.00000001739,166.445884488689,1.00000000076134,0.589591540426394
9700.00000001776,167.093783331155,1.00000000077452,0.590319776162278
9800.00000001812,167.623928205768,1.00000000075975,0.589736217792347
9900.00000001848,168.049708094695,1.00000000075148,0.587468932862866
10000.0000000188,168.370396719441,1.00000000075967,0.589117851102227
10100.0000000192,168.590728725044,1.00000000071636,0.589147848672098
10200.0000000196,168.721015164689,1.00000000072126,0.585088739108027
10300.0000000199,168.755594046831,1.00000000072084,0.588204007881378
10400.0000000203,168.712572661957,1.00000000075319,0.587975415059536
10500.0000000207,168.589710967822,1.00000000071875,0.582266266117253
10600.000000021,168.386435059787,1.00000000073748,0.585080960966379
10700.0000000214,168.122391881275,1.00000000076731,0.587267286775265
10800.0000000218,167.792276871719,1.00000000071644,0.579826612237624
10900.0000000221,167.397671161056,1.000000000712,0.578952258297364
11000.0000000225,166.949776218612,1.00000000079089,0.58584252451566
11100.0000000229,166.454980559777,1.00000000075557,0.58157912526555
11200.0000000232,165.907603892333,1.00000000068383,0.568707598204258
11300.0000000236,165.308764806737,1.00000000076838,0.583268587044824
11400.0000000239,164.682684106931,1.00000000080227,0.583620176903699
11500.0000000243,164.021359463986,1.00000000068508,0.567399255482794
11600.0000000247,163.312740729438,1.00000000072024,0.568023066117214
11700.000000025,162.58203945811,1.00000000084414,0.584574371580304
11800.0000000254,161.833432381706,1.00000000077038,0.575302685855761
11900.0000000258,161.056150842793,1.00000000066343,0.558685251516637
12000.0000000261,160.24488947925,1.00000000075763,0.569624282058857
12100.0000000265,159.421528372152,1.00000000088454,0.581967487114292
12200.0000000269,158.59253655403,1.00000000075997,0.569327355225325
12300.0000000272,157.73980171949,1.00000000067389,0.55461073358698
12400.0000000276,156.865070922818,1.00000000075029,0.563192148057696
12500.0000000279,155.98588527668,1.00000000086854,0.580689060664284
12600.0000000283,155.105585629,1.00000000078546,0.565253020933213
12700.0000000287,154.215861241359,1.00000000070977,0.554889812176908
12800.000000029,153.307485999709,1.0000000007127,0.551454230284927
12900.0000000294,152.394654094803,1.00000000083718,0.574589590628596
13000.0000000298,151.488067914358,1.00000000087075,0.567598316888939
13100.0000000301,150.579516577084,1.0000000007382,0.552029927855882
13200.0000000305,149.664530611195,1.00000000072797,0.550547133357298
13300.0000000309,148.741061631062,1.00000000074675,0.551780831327918
13400.0000000312,147.820878732461,1.00000000087995,0.574488809498188
13500.0000000316,146.909973937813,1.00000000081826,0.554506458917985
13600.0000000319,145.998240562955,1.00000000072605,0.545423381126481
13700.0000000323,145.086104926888,1.00000000076923,0.552789033206677
13800.0000000327,144.171376268337,1.00000000075823,0.548038090304499
13900.000000033,143.26176692652,1.00000000093014,0.567636481554109
14000.0000000334,142.362175736204,1.00000000082439,0.553084116519
14100.0000000338,141.465321994297,1.00000000072774,0.53641514537946
14200.0000000341,140.571835564937,1.00000000079819,0.552338700256502
14300.0000000345,139.680221184711,1.00000000079218,0.549257920961655
14400.0000000349,138.793324789467,1.00000000078419,0.552002277161684
14500.0000000352,137.914854108825,1.00000000086718,0.555563857657634
14600.0000000356,137.043187179326,1.00000000080126,0.538022996074411
14700.0000000359,136.177018511143,1.0000000007397,0.535521172933533
14800.0000000363,135.31606553506,1.00000000080487,0.554813906177756
14900.0000000367,134.461154195442,1.00000000077172,0.550575383003227
15000.000000037,133.61295792014,1.00000000078894,0.542528866211706
15100.0000000374,132.770895790473,1.00000000082923,0.546078640068437
15200.0000000378,131.937040640496,1.00000000081573,0.536515372448718
15300.0000000381,131.110009960429,1.00000000074834,0.533968913546757
15400.0000000385,130.29026123669,1.0000000007921,0.548962685617842
15500.0000000389,129.478471590148,1.00000000081304,0.554238046636052
15600.0000000392,128.672956970228,1.00000000077945,0.541404073511596
15700.0000000396,127.87474628176,1.00000000074657,0.5354362234871
15800.0000000399,127.083878748759,1.00000000077751,0.537622065336982
15900.0000000403,126.300342859361,1.00000000083428,0.539829562199889
16000.0000000407,125.525716886035,1.00000000078818,0.537647763376402
16100.000000041,124.758950780218,1.00000000078462,0.549466153914236
16200.0000000414,124.000490204404,1.00000000079035,0.553048638402596
16300.0000000418,123.2494546235,1.00000000077901,0.539368277878698
16400.0000000418,122.505715919862,1.00000000073829,0.531972170953513
16500.0000000404,121.770059981115,1.00000000078622,0.537237981071862
16600.0000000389,121.042228694519,1.00000000081595,0.545567993884027
16700.0000000375,120.322903233125,1.00000000075871,0.539951424787782
16800.000000036,119.61222909413,1.00000000080509,0.544550992840365
16900.0000000346,118.90997891966,1.00000000082181,0.553179715159569
17000.0000000331,118.21637905027,1.00000000071941,0.544796915508915
17100.0000000317,117.530645539282,1.00000000074515,0.533014678916405
17200.0000000302,116.853184413909,1.00000000078634,0.536458039021252
17300.0000000287,116.184180698994,1.00000000076176,0.537395352169216
17400.0000000273,115.52336122291,1.00000000079687,0.546489932199805
17500.0000000258,114.870722081276,1.00000000080557,0.547715436066425
17600.0000000244,114.225992468893,1.00000000079103,0.544911958368382
17700.0000000229,113.589786950611,1.00000000080488,0.551027535542617
17800.0000000215,112.962579749543,1.00000000072256,0.544056256303475
17900.00000002,112.344672486226,1.00000000072476,0.532590218659548
18000.0000000186,111.735593586783,1.00000000078173,0.533583435848671
18100.0000000171,111.134475395853,1.00000000080793,0.535142780649143
18200.0000000156,110.542013722346,1.0000000007551,0.538495363198219
18300.0000000142,109.957248087001,1.00000000082253,0.550049082216249
18400.0000000127,109.378977352531,1.00000000081176,0.555218902421695
18500.0000000113,108.807745794587,1.00000000080426,0.546661361995187
18600.0000000098,108.243906308768,1.00000000078568,0.549384078104417
18700.0000000084,107.689543056855,1.00000000071256,0.540981000497437
18800.0000000069,107.145560419337,1.00000000072926,0.534446550678511
18900.0000000055,106.611392204367,1.00000000073227,0.526132491009058
19000.000000004,106.085277499196,1.00000000085533,0.531685514333275
19100.0000000026,105.566901135091,1.00000000078299,0.534840131456605
19200.0000000011,105.055530369984,1.0000000008108,0.539966611479094
19299.9999999996,104.550027375079,1.00000000078521,0.550030741775375
19399.9999999982,104.0492175809,1.00000000079909,0.557461820309178
19499.9999999967,103.553571122828,1.0000000008271,0.551012368129222
19599.9999999953,103.064097620036,1.00000000082186,0.54507311195285
19699.9999999938,102.583756364135,1.00000000071873,0.536968386515767
19799.9999999924,102.114390590207,1.00000000070651,0.531755271090785
19899.9999999909,101.655726644255,1.00000000068285,0.524260403740851
19999.9999999895,101.206073196478,1.00000000081063,0.523927722766384
20099.999999988,100.76324140701,1.00000000080001,0.530985199634296
20199.9999999865,100.326091837989,1.00000000076695,0.532210366230929
20299.9999999851,99.8945620675535,1.00000000078146,0.534553597360723
20399.9999999836,99.4663947127596,1.00000000085656,0.547734922079977
20499.9999999822,99.0400119017963,1.00000000081845,0.55918462055145
20599.9999999807,98.6167224403112,1.00000000084651,0.554918130379266
20699.9999999793,98.1988020160502,1.00000000079432,0.540999890473876
20799.9999999778,97.7886457558276,1.00000000074632,0.5376473418114
20899.9999999764,97.388774653276,1.00000000069741,0.5313892852855
20999.9999999749,97.0002648110392,1.00000000069049,0.53001891554331
21099.9999999734,96.6211417627564,1.00000000076431,0.52611847391985
21199.999999972,96.2498228273255,1.00000000078091,0.523844205232137
21299.9999999705,95.8838613705931,1.0000000008326,0.527525563427241
21399.9999999691,95.5224495439721,1.00000000080699,0.530030114727303
21499.9999999676,95.1647691298101,1.00000000081367,0.534510815528587
21599.9999999662,94.8091488986836,1.00000000084307,0.540300328594613
21699.9999999647,94.4532461659193,1.00000000087304,0.550674709414767
21799.9999999633,94.0972166290728,1.00000000085591,0.555956073563256
21899.9999999618,93.744797349666,1.00000000079583,0.547987383168496
21999.9999999603,93.3985037493846,1.00000000077987,0.537864020621819
22099.9999999589,93.0602813378524,1.00000000073901,0.536776037595594
22199.9999999574,92.731851916578,1.00000000074554,0.539696379299357
22299.999999956,92.4129347468623,1.00000000073324,0.533823132163497
22399.9999999545,92.1034685598646,1.00000000076869,0.53298733777901
22499.9999999531,91.8016118474547,1.00000000076066,0.531112890682083
22599.9999999516,91.5059592513037,1.00000000077099,0.526506279678374
22699.9999999502,91.2150366490118,1.00000000080647,0.535281799491109
22799.9999999487,90.9260757157889,1.00000000082821,0.537662937972641
22899.9999999473,90.6394104911541,1.00000000081059,0.541754704371143
22999.9999999458,90.3531261296243,1.00000000088956,0.544679490090403
23099.9999999443,90.0656027209005,1.00000000084211,0.544366647155842
23199.9999999429,89.778060610922,1.00000000084881,0.551374181587872
23299.9999999414,89.4927098242751,1.00000000079576,0.554551468647212
23399.99999994,89.2123562508928,1.00000000079147,0.547575739882822
23499.9999999385,88.9387957701339,1.0000000007774,0.543944916918014
23599.9999999371,88.6719525911806,1.00000000077812,0.546761270841974
23699.9999999356,88.4134019220291,1.00000000075119,0.545605300583382
23799.9999999342,88.1643983677537,1.00000000072292,0.539591693098268
23899.9999999327,87.9250278779994,1.00000000074052,0.534168050383702
23999.9999999312,87.6930394155203,1.00000000077928,0.540753144576945
24099.9999999298,87.4656792942878,1.00000000078903,0.54050403369269
24199.9999999283,87.242726783788,1.00000000076786,0.540438041283319
24299.9999999269,87.0225876988555,1.00000000079972,0.543093808183905
24399.9999999254,86.8033817192943,1.00000000081024,0.547005091287334
24499.999999924,86.5851393097571,1.0000000008106,0.546909180494786
24599.9999999225,86.3669351330454,1.00000000080882,0.544688252495723
24699.9999999211,86.1478145867622,1.00000000086816,0.54554231462834
24799.9999999196,85.9282648826398,1.00000000082897,0.54733797614646
24899.9999999181,85.7105084484977,1.00000000081619,0.555685212308
24999.9999999167,85.4945665977258,1.0000000008141,0.561365617647972
25099.9999999152,85.2807503248323,1.00000000082473,0.55882580133098
25199.9999999138,85.0718531281309,1.00000000076009,0.553057134553654
25299.9999999123,84.8692670187744,1.00000000080158,0.551698478656191
25399.9999999109,84.6738782619153,1.00000000074429,0.547256783032661
25499.9999999094,84.488738894109,1.000000000685,0.538283197739914
25599.999999908,84.313428773414,1.00000000073716,0.537595592929432
25699.9999999065,84.1454586410582,1.00000000077394,0.543531839316504
25799.9999999051,83.9807271807651,1.00000000081692,0.550869342399048
25899.9999999036,83.8177108368532,1.00000000082326,0.548386686121929
25999.9999999021,83.6560878717985,1.00000000080177,0.551318750215455
26099.9999999007,83.4955455532439,1.00000000078798,0.549875843227507
26199.9999998992,83.3356668416386,1.00000000081435,0.552584606869806
26299.9999998978,83.1758181292018,1.00000000081638,0.553947804345803
26399.9999998963,83.0175622809516,1.00000000078364,0.545783827034629
26499.9999998949,82.8602075358616,1.00000000087084,0.547224511194274
26599.9999998934,82.7018027429861,1.0000000008063,0.549048647566883
26699.999999892,82.5433209069891,1.00000000085005,0.554831757355179
26799.9999998905,82.3834144144282,1.0000000008942,0.57038284616829
26899.999999889,82.2218342072427,1.00000000082319,0.572845249253749
26999.9999998876,82.0603506211517,1.00000000084065,0.571673062093744
27099.9999998861,81.9005358772427,1.00000000080949,0.561272509403887
27199.9999998847,81.7468938181988,1.00000000072693,0.548683995545434
27299.9999998832,81.6008361919484,1.00000000074957,0.546077751544288
27399.9999998818,81.463123548222,1.00000000072222,0.542294174058651
27499.9999998803,81.335339678762,1.00000000073091,0.539426567603803
27599.9999998789,81.2145500352966,1.00000000079722,0.545677133320804
27699.9999998774,81.0984804539674,1.00000000080029,0.551582938703356
27799.9999998759,80.9847625708615,1.00000000086089,0.557318462955887
27899.9999998745,80.8706149033432,1.00000000084865,0.557691184760011
27999.999999873,80.7564664369809,1.00000000080756,0.557151577120233
28099.9999998716,80.6423360966623,1.00000000081663,0.559112688877553
28199.9999998701,80.5290024612886,1.000000000827,0.559553539662487
28299.9999998687,80.4145794660215,1.00000000084928,0.561373782947384
28399.9999998672,80.3000978818636,1.00000000082149,0.560130319998987
28499.9999998658,80.1877084477204,1.00000000075309,0.553617507491451
28599.9999998643,80.0778047477488,1.0000000007724,0.553467156025415
28699.9999998629,79.9676818008142,1.00000000082794,0.561265955416863
28799.9999998614,79.8560700298646,1.00000000083224,0.566540921371866
28899.9999998599,79.7410716457832,1.00000000083903,0.575148984295153
28999.9999998585,79.6229472323353,1.00000000086037,0.578535742763501
