Time,AGPnorm,Energy,Entropy
0,0,1,-9.16980836717017e-18
99.9999999999986,2.01177988123665e-05,0.999999999999247,0.000890959168678477
199.999999999993,0.00174503445613602,1.00000000000084,0.00139590007924036
300,0.00448577764169498,0.9999999999992,0.00245738305800657
400.000000000022,0.006137509299644,1.00000000000013,0.00424482053333021
500.000000000045,0.00731772631574617,1.00000000000028,0.00566274800210721
600.000000000068,0.0107044410190401,0.999999999999145,0.0079261677974701
700.000000000091,0.0133382177947369,1.00000000000074,0.0101316914957173
800.000000000113,0.0169050464903485,0.99999999999947,0.0124583782804293
900.000000000136,0.0208952103228673,0.999999999999802,0.0153996648133374
1000.00000000016,0.0244129028272692,1.00000000000047,0.0180408841991768
1100.0000000001,0.0297889284032982,0.999999999999202,0.0211853430877897
1200,0.0348708990914374,1.00000000000053,0.0244720881520839
1299.99999999991,0.0397442876680127,0.999999999999709,0.0277222101639758
1399.99999999982,0.0453932698933576,0.999999999999569,0.0315002838176013
1499.99999999973,0.0511852332732984,1.0000000000006,0.035103369795593
1599.99999999964,0.058117662874507,0.999999999999344,0.0390285383302648
1699.99999999955,0.0647906836606593,1.00000000000021,0.043222109754236
1799.99999999946,0.0710503608856674,0.999999999999907,0.0473031165877085
1899.99999999937,0.078357278880844,0.99999999999951,0.0518534264764517
1999.99999999928,0.0859126406852156,1.00000000000064,0.0563916841936678
2099.99999999919,0.0936399453322856,0.999999999999483,0.061135132675066
2199.99999999909,0.101242378533656,0.999999999999884,0.0662194861754607
2299.999999999,0.108889782729751,1.0000000000001,0.071203207422689
2399.99999999891,0.117577045423849,0.999999999999582,0.0766451093789469
2499.99999999882,0.126219235565555,1.00000000000051,0.0822348826538861
2599.99999999873,0.134232829133901,0.999999999999583,0.0879506791181948
2699.99999999864,0.142416592041646,0.99999999999971,0.0940882480048422
2799.99999999855,0.151219806970105,1.0000000000003,0.100257225454097
2899.99999999846,0.160607717143757,0.999999999999682,0.106913576321969
2999.99999999837,0.169591239366959,1.00000000000019,0.113896036636628
3099.99999999828,0.177744113093926,0.999999999999688,0.121010501603721
3199.99999999819,0.18646255754308,0.999999999999786,0.128750991727137
3299.99999999809,0.195881327158301,1.00000000000061,0.136795243962917
3399.999999998,0.205232354526527,0.999999999999993,0.145486792312867
3499.99999999791,0.213817997818422,1.00000000000046,0.154866591702647
3599.99999999782,0.222113936228115,1.00000000000134,0.164669338111493
3699.99999999773,0.231464493839191,1.0000000000032,0.17556052569403
3799.99999999764,0.240341772788261,1.00000000000709,0.187202963470661
3899.99999999755,0.250079961969141,1.00000000001221,0.199578324438898
3999.99999999746,0.258102357665854,1.0000000000208,0.212756574727077
4099.99999999738,0.26692424432192,1.000000000033,0.22612325144143
4199.99999999775,0.281571752809644,1.00000000004706,0.240067717560078
4299.99999999811,0.291771565740471,1.00000000006727,0.254041196617061
4399.99999999848,0.313257264912235,1.00000000008884,0.26766653746433
4499.99999999884,0.339928384231446,1.00000000010929,0.281354344535163
4599.9999999992,0.374030957597042,1.0000000001344,0.294556290410406
4699.99999999957,0.439577931702229,1.00000000016108,0.307716341718522
4799.99999999993,0.513037524514626,1.0000000001856,0.32062489272299
4900.00000000029,0.629493480842278,1.00000000021617,0.332764204166419
5000.00000000066,0.792052051937167,1.00000000024578,0.344868211924107
5100.00000000102,0.992317782237109,1.0000000002647,0.356651717732978
5200.00000000139,1.28118061523573,1.0000000003,0.367916245635624
5300.00000000175,1.63034685702591,1.00000000033679,0.378917772755479
5400.00000000211,2.07578622463083,1.00000000035688,0.389325465010491
5500.00000000248,2.64131079549751,1.00000000036711,0.399611707859944
5600.00000000284,3.30199389483598,1.00000000041264,0.409517898904068
5700.00000000321,4.12137623016561,1.00000000041709,0.418805735850203
5800.00000000357,5.07848009085428,1.00000000044916,0.42780112242216
5900.00000000393,6.1889038312042,1.00000000046591,0.436427397004475
6000.0000000043,7.4947421790201,1.00000000048286,0.444766381209692
6100.00000000466,8.96073816828245,1.00000000049943,0.452835601607634
6200.00000000502,10.6388252155524,1.00000000052745,0.460167243631046
6300.00000000539,12.5222995629621,1.00000000053469,0.467369051404966
6400.00000000575,14.6015238332731,1.0000000005485,0.474417525093452
6500.00000000612,16.9228860056796,1.00000000054753,0.480910836777743
6600.00000000648,19.4524660723071,1.0000000005744,0.487091506321449
6700.00000000684,22.2149662450394,1.00000000055862,0.49295755708015
6800.00000000721,25.2169747290355,1.00000000059771,0.498495837896325
6900.00000000757,28.4325066787698,1.00000000058408,0.504052670458912
7000.00000000793,31.8971072904514,1.00000000058979,0.508871222091819
7100.0000000083,35.5860368044255,1.00000000058927,0.513522038662173
7200.00000000866,39.4973589694752,1.00000000060437,0.517994141271364
7300.00000000903,43.6426547814666,1.00000000062523,0.522255557708294
7400.00000000939,47.9934057951141,1.00000000060716,0.526320740648619
7500.00000000975,52.5657129773019,1.00000000063569,0.529742715582922
7600.00000001012,57.3449151657298,1.00000000063108,0.533320451596821
7700.00000001048,62.3128455680165,1.00000000063567,0.536700442487005
7800.00000001084,67.4776275929529,1.00000000063762,0.539778452516176
7900.00000001121,72.817884605724,1.00000000063169,0.5424478969245
8000.00000001157,78.3300756451734,1.0000000006103,0.545269828215809
8100.00000001194,84.0056492089051,1.00000000061831,0.547840472921449
8200.0000000123,89.8238141377075,1.00000000062595,0.550194611564034
8300.00000001266,95.7837375379874,1.00000000063086,0.552226155848541
8400.00000001303,101.872362183226,1.00000000062642,0.554198258662592
8500.00000001339,108.074099323929,1.00000000063512,0.556130361949405
8600.00000001376,114.381674776922,1.000000000622,0.557937468679531
8700.00000001412,120.780139259061,1.00000000061181,0.559432041814603
8800.00000001448,127.258391393875,1.00000000059315,0.560979434731836
8900.00000001485,133.809317137441,1.0000000006217,0.56210886412141
9000.00000001521,140.415645546681,1.00000000061267,0.563416577608714
9100.00000001557,147.066684399779,1.00000000060963,0.564612915966703
9200.00000001594,153.75513693418,1.00000000059288,0.565539427429914
9300.0000000163,160.46403377395,1.00000000060006,0.566306360088076
9400.00000001667,167.190040046402,1.00000000059047,0.567358177081942
9500.00000001703,173.917653683802,1.00000000058529,0.56792551386444
9600.00000001739,180.632919585132,1.00000000057201,0.568867146004549
9700.00000001776,187.335353982116,1.00000000055785,0.569137750663635
9800.00000001812,194.007737292946,1.00000000057504,0.569551133311447
9900.00000001848,200.645417056592,1.00000000057477,0.570243828884708
10000.0000000188,207.239576079635,1.0000000005605,0.570348341298315
10100.0000000192,213.773913237255,1.00000000053497,0.570935068907467
10200.0000000196,220.25132783623,1.0000000005511,0.570975212240334
10300.0000000199,226.658159224679,1.00000000054372,0.571441430541698
10400.0000000203,232.98684113705,1.00000000054712,0.57132992070409
10500.0000000207,239.235056670563,1.00000000052797,0.571666597211857
10600.000000021,245.38729345531,1.00000000053282,0.571369097850049
10700.0000000214,251.446576483872,1.00000000050317,0.571440894892148
10800.0000000218,257.405088652071,1.000000000512,0.571856761955265
10900.0000000221,263.253000748707,1.00000000051561,0.571009805361773
11000.0000000225,268.991186448592,1.00000000050744,0.571544402308916
11100.0000000229,274.609793754708,1.00000000049625,0.571348366041408
11200.0000000232,280.107987609769,1.00000000050258,0.570593606673593
11300.0000000236,285.482923812942,1.00000000049997,0.571642353580344
11400.0000000239,290.725503769264,1.00000000049379,0.5703897761494
11500.0000000243,295.837813506242,1.00000000048498,0.57022054793168
11600.0000000247,300.813104145252,1.00000000048819,0.570961835535995
11700.000000025,305.653001321676,1.00000000047557,0.569445506693558
11800.0000000254,310.352867916738,1.0000000004668,0.569782440889836
11900.0000000258,314.907441406088,1.0000000004609,0.569825524927246
12000.0000000261,319.321990509245,1.00000000045041,0.568566054576185
12100.0000000265,323.587927722085,1.00000000045687,0.569202564794226
12200.0000000269,327.710114401052,1.00000000045206,0.568503205427651
12300.0000000272,331.68645138041,1.00000000044314,0.567540197003215
12400.0000000276,335.509507202797,1.00000000044795,0.568252835003276
12500.0000000279,339.189998724432,1.00000000044323,0.567078629285117
12600.0000000283,342.720466254431,1.00000000042573,0.566862691288992
12700.0000000287,346.101732892003,1.000000000429,0.566945389987662
12800.000000029,349.3393568969,1.00000000041827,0.565956516921386
12900.0000000294,352.423174307711,1.00000000042735,0.565782951073557
13000.0000000298,355.364868011264,1.00000000041806,0.565814000256576
13100.0000000301,358.162025911957,1.00000000041293,0.56490860658246
13200.0000000305,360.811375313576,1.00000000040306,0.564600581019779
13300.0000000309,363.321171704859,1.00000000040435,0.564230512646491
13400.0000000312,365.685904530482,1.00000000039201,0.563848355553324
13500.0000000316,367.911312054523,1.0000000003843,0.563965010647515
13600.0000000319,370.000249038468,1.00000000038675,0.564047497292091
13700.0000000323,371.950239920808,1.00000000037417,0.562792631079199
13800.0000000327,373.767243578701,1.00000000037999,0.561072881097334
13900.000000033,375.447304708607,1.00000000036725,0.562225435420523
14000.0000000334,376.998660864163,1.00000000037531,0.564194185389788
14100.0000000338,378.425692693349,1.00000000037862,0.562976698339856
14200.0000000341,379.72399159279,1.00000000036328,0.56016495481391
14300.0000000345,380.898465873902,1.00000000034604,0.558507088308455
14400.0000000349,381.94729209557,1.0000000003576,0.560727159477762
14500.0000000352,382.879881299636,1.00000000036447,0.564257923242686
14600.0000000356,383.702810077979,1.00000000035216,0.563855678570317
14700.0000000359,384.413815365372,1.00000000034404,0.559425692632654
14800.0000000363,385.012805654182,1.00000000033986,0.554794977888476
14900.0000000367,385.495739050747,1.00000000032486,0.556328916589959
15000.000000037,385.872610228511,1.00000000034587,0.563649960090822
15100.0000000374,386.159533925896,1.00000000036107,0.567561834940681
15200.0000000378,386.359155693423,1.00000000034209,0.5612790092868
15300.0000000381,386.466445551167,1.00000000033126,0.553305055396451
15400.0000000385,386.470258506196,1.00000000028589,0.547526059763049
15500.0000000389,386.374353529212,1.00000000032837,0.557721039326885
15600.0000000392,386.200753217211,1.00000000034864,0.566693844340194
15700.0000000396,385.966118701934,1.00000000038893,0.570168414317257
15800.0000000399,385.670251326047,1.00000000032933,0.556781244165184
15900.0000000403,385.296691837223,1.00000000031987,0.545866987286461
16000.0000000407,384.831987319464,1.00000000027481,0.540612387004326
16100.000000041,384.283873567378,1.00000000032315,0.553503657742526
16200.0000000414,383.677388535514,1.00000000037048,0.568884157250971
16300.0000000418,383.03908018038,1.00000000040147,0.572523767487221
16400.0000000418,382.366355896999,1.00000000035346,0.558420038557907
16500.0000000404,381.635740498275,1.00000000029583,0.539980240680824
16600.0000000389,380.828392827113,1.00000000025894,0.528901312423343
16700.0000000375,379.943726034414,1.00000000028657,0.539995836752913
16800.000000036,379.012176732775,1.00000000036556,0.563649837990813
16900.0000000346,378.064243273948,1.00000000041863,0.576140607838595
17000.0000000331,377.10741320622,1.00000000040331,0.567808735349383
17100.0000000317,376.127346494063,1.00000000034217,0.545252670063887
17200.0000000302,375.093705830139,1.00000000025755,0.521558782869699
17300.0000000287,373.991798136831,1.00000000024454,0.515802989790494
17400.0000000273,372.83241225542,1.00000000030155,0.537935332350764
17500.0000000258,371.648648691109,1.00000000040235,0.56753176872378
17600.0000000244,370.47142879746,1.00000000045633,0.578062348549134
17700.0000000229,369.303183566431,1.00000000043983,0.566573076827574
17800.0000000215,368.125839179974,1.00000000035783,0.538952518930274
17900.00000002,366.909400033167,1.00000000025156,0.509574405841024
18000.0000000186,365.634713313787,1.00000000022323,0.50000071064469
18100.0000000171,364.312201350049,1.00000000027672,0.520615098930409
18200.0000000156,362.969063820847,1.00000000038765,0.55795304562021
18300.0000000142,361.637102695968,1.00000000045785,0.578930641441798
18400.0000000127,360.329110865317,1.00000000046209,0.575430913407751
18500.0000000113,359.032695068172,1.00000000038525,0.550915979254218
18600.0000000098,357.723821912671,1.00000000029987,0.515985470898523
18700.0000000084,356.376479258826,1.00000000022644,0.490576869362783
18800.0000000069,354.984367283515,1.00000000021883,0.490302984259997
18900.0000000055,353.560474497912,1.00000000030353,0.520677053455147
19000.000000004,352.131290950756,1.00000000041136,0.559970559240789
19100.0000000026,350.723214715272,1.00000000047784,0.579970235914325
19200.0000000011,349.343716808332,1.00000000047238,0.574569444984367
19299.9999999996,347.982439815501,1.00000000040927,0.550140464742866
19399.9999999982,346.619305142599,1.00000000032178,0.515325287498873
19499.9999999967,345.232027730958,1.00000000023633,0.485844475262437
19599.9999999953,343.813061620804,1.0000000002189,0.477859033519244
19699.9999999938,342.365759169379,1.00000000026623,0.497818471713976
19799.9999999924,340.90975766558,1.00000000037806,0.537193198172469
19899.9999999909,339.467424245792,1.00000000045529,0.568789459643717
19999.9999999895,338.050679309131,1.00000000050479,0.577007455644844
20099.999999988,336.660863473965,1.00000000047491,0.565109857992329
20199.9999999865,335.287095306305,1.00000000039289,0.538762578381091
20299.9999999851,333.91270693893,1.00000000031672,0.505437755383373
20399.9999999836,332.524347956077,1.00000000024755,0.479743501134163
20499.9999999822,331.114133114865,1.00000000023059,0.474582139270725
20599.9999999807,329.688041015468,1.00000000026464,0.49034648751587
20699.9999999793,328.256553045971,1.00000000035555,0.521510269701571
20799.9999999778,326.834475933797,1.00000000043604,0.553861658253043
20899.9999999764,325.433089935609,1.00000000048192,0.568878967043022
20999.9999999749,324.055617783121,1.00000000048635,0.565819172051054
21099.9999999734,322.697989261729,1.00000000044736,0.54805236090078
21199.999999972,321.351547255877,1.00000000038257,0.522262434718405
21299.9999999705,320.004722272827,1.00000000030014,0.495841105154702
21399.9999999691,318.65149628017,1.00000000025461,0.479766012686056
21499.9999999676,317.288129921177,1.00000000024619,0.477860090656595
21599.9999999662,315.918890482769,1.00000000027942,0.490233514014968
21699.9999999647,314.549618505988,1.00000000034379,0.511221583050162
21799.9999999633,313.187663716266,1.00000000040451,0.535919603053933
21899.9999999618,311.840604918864,1.00000000044379,0.553636997396207
21999.9999999603,310.511805454372,1.00000000046507,0.556956026492206
22099.9999999589,309.200072347703,1.00000000045127,0.547457285768198
22199.9999999574,307.902337747464,1.0000000004153,0.530250468225591
22299.999999956,306.611870757654,1.00000000035165,0.511570854835143
22399.9999999545,305.324799831546,1.00000000031075,0.496015576176398
22499.9999999531,304.037542468123,1.00000000028045,0.486666503895581
22599.9999999516,302.750155489984,1.00000000028265,0.484736934607619
22699.9999999502,301.463897101223,1.00000000029942,0.490394728028557
22799.9999999487,300.180349642168,1.00000000032598,0.502735608651101
22899.9999999473,298.904181027774,1.0000000003641,0.51822821843675
22999.9999999458,297.638048929933,1.00000000039659,0.532001659187159
23099.9999999443,296.38408443473,1.0000000004227,0.54098519896106
23199.9999999429,295.143468112932,1.00000000042105,0.539129691969073
23299.9999999414,293.914624311158,1.00000000041171,0.532534336509708
23399.99999994,292.695927565358,1.00000000037262,0.522422239586842
23499.9999999385,291.485470578001,1.0000000003569,0.513817064366415
23599.9999999371,290.281420118276,1.00000000032753,0.505101517548064
23699.9999999356,289.08336635299,1.00000000030976,0.498701868111179
23799.9999999342,287.890368040726,1.00000000029674,0.494688094854231
23899.9999999327,286.703463428497,1.0000000002985,0.493562909963277
23999.9999999312,285.522372141652,1.00000000031036,0.496008861666313
24099.9999999298,284.348061435155,1.0000000003302,0.502250500333413
24199.9999999283,283.182009653118,1.00000000035409,0.509916038166931
24299.9999999269,282.024899486825,1.00000000038855,0.518940927289886
24399.9999999254,280.877294659623,1.00000000040325,0.524788302338722
24499.999999924,279.739590747431,1.00000000041604,0.527636403107968
24599.9999999225,278.610926473334,1.00000000039174,0.528889619124318
24699.9999999211,277.491293603138,1.00000000036464,0.523581835187158
24799.9999999196,276.380061433471,1.00000000037035,0.518709305785385
24899.9999999181,275.277006364151,1.00000000033343,0.516095790887542
24999.9999999167,274.182315120705,1.00000000034518,0.516888859217773
25099.9999999152,273.095949986697,1.00000000033325,0.512041288944021
25199.9999999138,272.018494648012,1.00000000032164,0.507052640089153
25299.9999999123,270.949351678174,1.00000000030231,0.499866926850009
25399.9999999109,269.88911287645,1.00000000029813,0.493300946898731
25499.9999999094,268.83772319927,1.00000000029811,0.491852016078325
25599.999999908,267.795286699604,1.00000000032057,0.495430540901501
25699.9999999065,266.762078661483,1.00000000035085,0.50283527048754
25799.9999999051,265.737566578928,1.00000000038841,0.512028694259138
25899.9999999036,264.72071358228,1.00000000040122,0.521275922675475
25999.9999999021,263.711421112549,1.00000000040069,0.524598275905659
26099.9999999007,262.709353218099,1.00000000037458,0.527105023898587
26199.9999998992,261.715216258522,1.00000000034766,0.523124824926007
26299.9999998978,260.729312213007,1.00000000034152,0.518582883584765
26399.9999998963,259.751557333014,1.00000000034348,0.52022011284213
26499.9999998949,258.781951828567,1.00000000036679,0.52802147171996
26599.9999998934,257.820190122227,1.00000000037864,0.529463129960113
26699.999999892,256.867102601611,1.00000000035386,0.522121599426999
26799.9999998905,255.923089507566,1.00000000033079,0.511923766176563
26899.999999889,254.989497883324,1.00000000029349,0.496829764414257
26999.9999998876,254.067478538853,1.00000000026935,0.483380005904763
27099.9999998861,253.157442283331,1.00000000026662,0.476639722709331
27199.9999998847,252.259594438623,1.00000000029264,0.480290066208833
27299.9999998832,251.372497196307,1.00000000033303,0.491087148417456
27399.9999998818,250.49363720358,1.00000000038646,0.504638424858255
27499.9999998803,249.620717482628,1.00000000042192,0.514391333391784
27599.9999998789,248.752276478772,1.00000000041693,0.51955995788837
27699.9999998774,247.887951627357,1.0000000004003,0.52241624725112
27799.9999998759,247.029572447934,1.00000000034716,0.521800738062919
27899.9999998745,246.178575764988,1.00000000032477,0.519486476780872
27999.999999873,245.335595730243,1.00000000033058,0.516896183454397
28099.9999998716,244.499839697945,1.00000000035587,0.52063793368651
28199.9999998701,243.669835549143,1.00000000037893,0.533832084484794
28299.9999998687,242.844651114712,1.00000000042394,0.540258641613259
28399.9999998672,242.024771680107,1.00000000040931,0.532693287951489
28499.9999998658,241.211955023041,1.00000000036652,0.52020323254062
28599.9999998643,240.408404251212,1.00000000032697,0.504743057744492
28699.9999998629,239.617393871792,1.00000000027026,0.48642959919061
28799.9999998614,238.841276042552,1.00000000024083,0.47080907698156
28899.9999998599,238.08131738236,1.00000000023922,0.463711349507412
