Time,AGPnorm,Energy,Entropy
0,0,1,-1.14722711667871e-17
99.9999999999986,4.99497235396381e-05,1.0000000000013,0.00190574677455524
199.999999999993,0.0042746810891592,1.00000000000038,0.00302316937072443
300,0.0108880648831621,1.00000000000062,0.00533829445732931
400.000000000022,0.0150092924635215,1.00000000000121,0.00898834424314635
500.000000000045,0.0180220689645225,0.999999999999907,0.0121352491413596
600.000000000068,0.0258002657215307,1.00000000000132,0.0167599311332596
700.000000000091,0.0323487688376754,1.00000000000046,0.0213584630419005
800.000000000113,0.0411354408359373,1.00000000000052,0.0263703147007966
900.000000000136,0.0506088263759337,1.00000000000127,0.0322552645888483
1000.00000000016,0.0586249412453984,0.999999999999813,0.0379685385743459
1100.0000000001,0.0698140964871179,1.0000000000014,0.0445156067464162
1200,0.0816880281032132,1.00000000000059,0.0513870138160077
1299.99999999991,0.0930280049834783,1.00000000000027,0.0585632396619999
1399.99999999982,0.105337877884145,1.00000000000137,0.0664324796977138
1499.99999999973,0.117763382838795,0.999999999999846,0.0744554387805979
1599.99999999964,0.131299907907574,1.00000000000139,0.0832637533485245
1699.99999999955,0.145159117827085,1.00000000000074,0.0926357829576384
1799.99999999946,0.157956761561609,0.99999999999998,0.102458893064141
1899.99999999937,0.171733966014601,1.00000000000158,0.113208228202585
1999.99999999928,0.186589861481219,0.999999999999975,0.124690599130813
2099.99999999919,0.200750892716358,1.00000000000131,0.137393099854533
2199.99999999909,0.214578498429863,1.00000000000171,0.151490378071482
2299.999999999,0.227868703356699,1.0000000000038,0.167075564532102
2399.99999999891,0.242416851468396,1.00000000001443,0.185027390568764
2499.99999999882,0.255461252862049,1.00000000003557,0.204976145252812
2599.99999999873,0.271069556679278,1.00000000007592,0.226340363270798
2699.99999999864,0.285731314703138,1.00000000013381,0.248479954066972
2799.99999999855,0.300561097199227,1.00000000020591,0.270285257554439
2899.99999999846,0.337379571714201,1.00000000030567,0.292129467930105
2999.99999999837,0.371910928720237,1.0000000004136,0.313288470743141
3099.99999999828,0.445579614121051,1.00000000049928,0.333801944863126
3199.99999999819,0.562286879435667,1.00000000061312,0.353472678922091
3299.99999999809,0.719920397666284,1.00000000069564,0.372569360722937
3399.999999998,0.979157983373557,1.00000000083685,0.390599966803876
3499.99999999791,1.31533106856291,1.00000000089206,0.407748822596399
3599.99999999782,1.77619849643032,1.00000000096082,0.423896258222721
3699.99999999773,2.38666509938575,1.00000000105941,0.439028623141667
3799.99999999764,3.13746672505905,1.00000000115318,0.453385093934331
3899.99999999755,4.08053491958673,1.00000000121666,0.466819010704286
3999.99999999746,5.20842340509347,1.00000000126604,0.479044893887161
4099.99999999738,6.53869081552782,1.00000000132466,0.490733371191475
4199.99999999775,8.08656039435149,1.00000000134577,0.501505070646895
4299.99999999811,9.85079747905082,1.00000000134478,0.511248194372021
4399.99999999848,11.8379075226134,1.00000000141016,0.520492681899404
4499.99999999884,14.0453052665094,1.00000000143538,0.528591636273767
4599.9999999992,16.4756805649358,1.00000000143123,0.536557660182099
4699.99999999957,19.1077648986875,1.00000000149159,0.543673996368129
4799.99999999993,21.9547965588003,1.0000000014901,0.549839622219813
4900.00000000029,24.9916692490723,1.00000000149494,0.556042086914181
5000.00000000066,28.199576378475,1.00000000149853,0.561377339472393
5100.00000000102,31.5921245061497,1.00000000149362,0.566190608436114
5200.00000000139,35.1157179754757,1.00000000147715,0.571139065937925
5300.00000000175,38.7863989704905,1.00000000153214,0.574572825451782
5400.00000000211,42.5799785786809,1.00000000149977,0.578632662211191
5500.00000000248,46.4534295107556,1.00000000148791,0.582144946314826
5600.00000000284,50.4364675278217,1.00000000141729,0.584666735010474
5700.00000000321,54.4662113836616,1.00000000147337,0.587475644404982
5800.00000000357,58.5480911279544,1.00000000146499,0.589683029823551
5900.00000000393,62.6770784478325,1.00000000141648,0.591737801703235
6000.0000000043,66.7949875931876,1.000000001402,0.593934380626771
6100.00000000466,70.938097680036,1.00000000137539,0.594826999458163
6200.00000000502,75.05448618417,1.00000000140254,0.596521589543597
6300.00000000539,79.1354027278773,1.00000000136736,0.597729828459736
6400.00000000575,83.1937871512304,1.00000000134747,0.598155006544916
6500.00000000612,87.1715667673348,1.00000000132518,0.599369766823567
6600.00000000648,91.1010603859198,1.00000000128847,0.599402552085922
6700.00000000684,94.949555314471,1.00000000129516,0.600210674279072
6800.00000000721,98.6986922415125,1.00000000128035,0.600570899800274
6900.00000000757,102.371967622003,1.00000000126998,0.600580488259634
7000.00000000793,105.919603506095,1.00000000120895,0.601240000981489
7100.0000000083,109.367729470762,1.0000000012117,0.600390635977184
7200.00000000866,112.70049611019,1.00000000120095,0.600770247095853
7300.00000000903,115.896060233556,1.00000000115209,0.60091322173542
7400.00000000939,118.980725038678,1.00000000114593,0.600541421425219
7500.00000000975,121.918237204884,1.00000000110613,0.600069412584823
7600.00000001012,124.728467086147,1.00000000113932,0.600125478057004
7700.00000001048,127.404524946205,1.00000000108162,0.599544777052565
7800.00000001084,129.929684720987,1.00000000108157,0.599344916206089
7900.00000001121,132.326886075189,1.00000000107196,0.598733575185562
8000.00000001157,134.575347320718,1.00000000102655,0.598394377983151
8100.00000001194,136.683692694025,1.00000000104788,0.598587565088871
8200.0000000123,138.660530622721,1.00000000098033,0.596645524552604
8300.00000001266,140.483752487192,1.00000000099487,0.598271932367447
8400.00000001303,142.181886167406,1.00000000093488,0.595814231285362
8500.00000001339,143.734347328263,1.00000000094942,0.596836400739401
8600.00000001376,145.154610757022,1.00000000093819,0.595582476249454
8700.00000001412,146.44619202184,1.00000000093868,0.594857853302285
8800.00000001448,147.599540946798,1.00000000093027,0.595193541759392
8900.00000001485,148.632182572885,1.00000000089176,0.593827242666971
9000.00000001521,149.537770915747,1.00000000086393,0.594562201415494
9100.00000001557,150.320970585311,1.00000000087343,0.594040385752282
9200.00000001594,150.992182242266,1.00000000087788,0.592689282731149
9300.0000000163,151.541946257367,1.00000000087752,0.59435521878069
9400.00000001667,151.989695725703,1.00000000082642,0.591752601674162
9500.00000001703,152.328143103119,1.0000000008206,0.592015963565371
9600.00000001739,152.567106663715,1.00000000086533,0.594689558145665
9700.00000001776,152.715508185127,1.00000000078113,0.588020524910735
9800.00000001812,152.764948190538,1.00000000078049,0.591786098316164
9900.00000001848,152.739826608166,1.000000000824,0.591461424614411
10000.0000000188,152.631514106594,1.00000000074421,0.583699238306739
10100.0000000192,152.444785802359,1.00000000080093,0.590474180548512
10200.0000000196,152.200605090354,1.00000000080417,0.589372487612902
10300.0000000199,151.884569193731,1.00000000075103,0.579212404594606
10400.0000000203,151.508370728685,1.00000000082254,0.588921575873658
10500.0000000207,151.085879853033,1.00000000083742,0.589225800588255
10600.000000021,150.608883438353,1.00000000072913,0.574067616034055
10700.0000000214,150.079921053949,1.00000000082798,0.584629107089046
10800.0000000218,149.514488718597,1.00000000088954,0.590967129559786
10900.0000000221,148.914673345126,1.00000000076931,0.571932189541471
11000.0000000225,148.264982654074,1.00000000079333,0.575840768899642
11100.0000000229,147.588392577628,1.00000000090296,0.589362898574976
11200.0000000232,146.895146163924,1.00000000081611,0.57753574722381
11300.0000000236,146.162608852129,1.00000000072074,0.561466198429756
11400.0000000239,145.405295467365,1.00000000090758,0.585404494792382
11500.0000000243,144.640251392551,1.00000000089634,0.581268361892282
11600.0000000247,143.856993753175,1.00000000078884,0.565788951801078
11700.000000025,143.047376488986,1.0000000007842,0.563218608679865
11800.0000000254,142.224382219972,1.00000000095623,0.585567785483987
11900.0000000258,141.400650275403,1.00000000087467,0.573255468419355
12000.0000000261,140.564865817146,1.00000000076486,0.561722811516964
12100.0000000265,139.710296654574,1.0000000007981,0.561763350896299
12200.0000000269,138.852935234682,1.00000000093023,0.580001989734378
12300.0000000272,137.995994733521,1.0000000008853,0.567317036388514
12400.0000000276,137.136062401565,1.00000000080037,0.562026045423227
12500.0000000279,136.266112133428,1.00000000081683,0.555915349873443
12600.0000000283,135.391571704821,1.00000000091033,0.571693779527668
12700.0000000287,134.523530865583,1.00000000096159,0.566979032490925
12800.000000029,133.656444679508,1.00000000083454,0.554863534215215
12900.0000000294,132.787540593482,1.00000000087842,0.559767947279761
13000.0000000298,131.917044096832,1.00000000082674,0.55525227566375
13100.0000000301,131.04824202692,1.00000000096648,0.570249286879126
13200.0000000305,130.188563749988,1.00000000092018,0.553052699503729
13300.0000000309,129.330117855919,1.0000000008005,0.551610989248373
13400.0000000312,128.475027826474,1.00000000089973,0.56196441417676
13500.0000000316,127.622653466126,1.00000000083283,0.550546866758644
13600.0000000319,126.774377561438,1.00000000096838,0.56333859486842
13700.0000000323,125.93523104809,1.00000000088123,0.54799877629922
13800.0000000327,125.099897909738,1.00000000087573,0.546431452267861
13900.000000033,124.270973960691,1.00000000095001,0.563468414249003
14000.0000000334,123.447579420007,1.00000000085126,0.551353957373287
14100.0000000338,122.628431805092,1.00000000089234,0.550380341473985
14200.0000000341,121.817363474771,1.00000000090891,0.551153012973067
14300.0000000345,121.012605945035,1.00000000085356,0.539653559806309
14400.0000000349,120.215113947957,1.00000000085788,0.55410748976869
14500.0000000352,119.425466555132,1.000000000928,0.562788191293697
14600.0000000356,118.641675928247,1.00000000083397,0.547371564126447
14700.0000000359,117.864561423724,1.00000000087737,0.542618197527552
14800.0000000363,117.094026687753,1.00000000091547,0.546855393259579
14900.0000000367,116.331308731133,1.0000000008701,0.542445015518749
15000.000000037,115.576937983702,1.00000000089093,0.55116454090436
15100.0000000374,114.830349955799,1.00000000091526,0.562372452845567
15200.0000000378,114.091923805047,1.00000000085534,0.551884554532701
15300.0000000381,113.359777102809,1.00000000081584,0.5393091780578
15400.0000000385,112.63449220445,1.00000000085379,0.544359560449191
15500.0000000389,111.917318977706,1.00000000085491,0.54834919515802
15600.0000000392,111.20818124264,1.00000000086271,0.548885606044458
15700.0000000396,110.508110670658,1.00000000087521,0.556814554205082
15800.0000000399,109.816127260111,1.00000000083689,0.559468006569318
15900.0000000403,109.131944762915,1.00000000085287,0.548752177773543
16000.0000000407,108.455467016623,1.00000000082812,0.539509410391429
16100.000000041,107.786638963748,1.00000000081889,0.543079213165227
16200.0000000414,107.126115126975,1.00000000090677,0.555590973039955
16300.0000000418,106.473736447311,1.00000000086746,0.554630383481315
16400.0000000418,105.829984541234,1.00000000085433,0.551906351572468
16500.0000000404,105.194950334275,1.000000000871,0.561095061811729
16600.0000000389,104.56823634323,1.00000000081926,0.553308750082434
16700.0000000375,103.950235206244,1.00000000078679,0.541438550456766
16800.000000036,103.340435579918,1.00000000084826,0.540942406371043
16900.0000000346,102.738844078928,1.00000000084836,0.55066229263347
17000.0000000331,102.145335309049,1.00000000084973,0.557378830569968
17100.0000000317,101.559615809658,1.00000000084272,0.555322703651209
17200.0000000302,100.982027233878,1.00000000090741,0.553659113249594
17300.0000000287,100.412221127257,1.00000000087885,0.558065618805681
17400.0000000273,99.8516308259755,1.00000000084448,0.551697488941176
17500.0000000258,99.3006299879216,1.0000000007611,0.538077778516483
17600.0000000244,98.7583099963689,1.00000000083152,0.538680827967075
17700.0000000229,98.223129541493,1.0000000009225,0.547597209775996
17800.0000000215,97.695426838622,1.00000000084541,0.548344750326905
17900.00000002,97.1751722820335,1.00000000085823,0.557127867707776
18000.0000000186,96.6618336976307,1.00000000086835,0.560339085271898
18100.0000000171,96.1547702203302,1.00000000091769,0.556412323797582
18200.0000000156,95.6548693239372,1.0000000008715,0.555986948150664
18300.0000000142,95.1645134670752,1.00000000077227,0.545398657736662
18400.0000000127,94.6849615719563,1.00000000077564,0.535525927414317
18500.0000000113,94.2139506234375,1.00000000086864,0.536687982936685
18600.0000000098,93.7491798293508,1.00000000092055,0.542874654557959
18700.0000000084,93.290593841529,1.000000000845,0.542392289780651
18800.0000000069,92.8394092332107,1.00000000085018,0.54799640050509
18900.0000000055,92.3933906786481,1.00000000089946,0.563110324819059
19000.000000004,91.9515345678318,1.00000000094377,0.56587162056097
19100.0000000026,91.5148419843993,1.00000000092708,0.554700490249984
19200.0000000011,91.0854033592391,1.00000000086279,0.549659111999415
19299.9999999996,90.666127066292,1.00000000078986,0.543158799445517
19399.9999999982,90.2574471048108,1.00000000082073,0.539993757832846
19499.9999999967,89.8565866452236,1.00000000084613,0.536478235161551
19599.9999999953,89.4622793596723,1.0000000008994,0.535811220311185
19699.9999999938,89.0733706350134,1.00000000084997,0.536676137738453
19799.9999999924,88.6904183867769,1.00000000085994,0.541215087398939
19899.9999999909,88.3115434664969,1.00000000095251,0.554202323381325
19999.9999999895,87.934599494605,1.00000000096272,0.56316915926123
20099.999999988,87.5600265180343,1.00000000093827,0.565037775360517
20199.9999999865,87.19068540312,1.00000000087757,0.549040827628295
20299.9999999851,86.8282444835171,1.00000000087641,0.546297863443599
20399.9999999836,86.4748176085192,1.00000000084843,0.545954768571071
20499.9999999822,86.130884508691,1.0000000008587,0.544688178092918
20599.9999999807,85.7948461151939,1.00000000084569,0.535027878295907
20699.9999999793,85.4662528722968,1.00000000083256,0.530913140106854
20799.9999999778,85.1435432896892,1.00000000085725,0.530514950366934
20899.9999999764,84.8257250370156,1.00000000089725,0.535836116645903
20999.9999999749,84.5108441033748,1.00000000087548,0.544406012198696
21099.9999999734,84.1982126924603,1.00000000094237,0.550697486464768
21199.999999972,83.8853847019846,1.00000000096794,0.557067413327223
21299.9999999705,83.5737113173273,1.00000000092677,0.559242357974037
21399.9999999691,83.2655615596866,1.00000000087226,0.554815362154245
21499.9999999676,82.96324653355,1.00000000084118,0.543207957983218
21599.9999999662,82.667788002776,1.00000000085143,0.547740222655021
21699.9999999647,82.380251897921,1.00000000081722,0.551217448995997
21799.9999999633,82.1007653394158,1.00000000083944,0.545015134545757
21899.9999999618,81.8295998639327,1.00000000084014,0.536863600530593
21999.9999999603,81.5657178468863,1.000000000777,0.53310930368508
22099.9999999589,81.3082380368479,1.00000000086939,0.533762549609551
22199.9999999574,81.0543843848637,1.00000000092696,0.540096844207712
22299.999999956,80.8028181727606,1.00000000088156,0.544235128553535
22399.9999999545,80.5529035830588,1.00000000090881,0.553551752117573
22499.9999999531,80.3037401743702,1.00000000089831,0.553885322560206
22599.9999999516,80.0536711142266,1.0000000009487,0.556880154903872
22699.9999999502,79.8038428923102,1.00000000089351,0.558365588310918
22799.9999999487,79.5571825407915,1.00000000083771,0.55466456540316
22899.9999999473,79.3155118701616,1.00000000086311,0.550496395648929
22999.9999999458,79.0796539358583,1.00000000087823,0.551855886297213
23099.9999999443,78.8493171488512,1.00000000088564,0.557336484731927
23199.9999999429,78.6268637548974,1.00000000079933,0.550922128137494
23299.9999999414,78.4132569821744,1.00000000078957,0.540553098897709
23399.99999994,78.2081477282487,1.00000000083101,0.537137110606349
23499.9999999385,78.0086258469539,1.00000000088416,0.541745308968938
23599.9999999371,77.8136154654451,1.00000000083618,0.537977278164944
23699.9999999356,77.6225400602162,1.00000000084444,0.543352112002012
23799.9999999342,77.4328037670421,1.00000000091452,0.550124308187314
23899.9999999327,77.2441410056524,1.00000000088105,0.557168833730411
23999.9999999312,77.0559557316131,1.00000000093606,0.56182589539141
24099.9999999298,76.866045092878,1.00000000093798,0.561847921245232
24199.9999999283,76.6749987679874,1.00000000092011,0.556035057571841
24299.9999999269,76.4849570844352,1.0000000008473,0.554438508576852
24399.9999999254,76.2979961124324,1.00000000089043,0.557722558323261
24499.999999924,76.1139752477303,1.00000000087116,0.556364447089018
24599.9999999225,75.9327337669891,1.00000000088544,0.55668458283287
24699.9999999211,75.75538573813,1.00000000088716,0.558767668494243
24799.9999999196,75.5835883391988,1.00000000087871,0.556127845217642
24899.9999999181,75.420037277444,1.00000000081803,0.543384449677352
24999.9999999167,75.2660828415852,1.00000000079026,0.53936220141981
25099.9999999152,75.118799650052,1.00000000088127,0.54304929324503
25199.9999999138,74.9758624402507,1.00000000089206,0.546788247494357
25299.9999999123,74.8365726578096,1.00000000086309,0.546318703632804
25399.9999999109,74.7001336939449,1.00000000086083,0.54961211760147
25499.9999999094,74.5641900187871,1.00000000091177,0.559588185883486
25599.999999908,74.4266971440949,1.00000000094796,0.565402041806553
25699.9999999065,74.2872948012853,1.00000000091996,0.571185004026392
25799.9999999051,74.1468488561926,1.00000000090718,0.569395289053971
25899.9999999036,74.0065947404499,1.00000000091231,0.563701549842943
25999.9999999021,73.8674622412183,1.00000000089826,0.561919523644175
26099.9999999007,73.7290195164231,1.00000000087127,0.561994966131957
26199.9999998992,73.5916532231817,1.00000000090103,0.564744499340516
26299.9999998978,73.4545176271477,1.00000000089789,0.570899317084396
26399.9999998963,73.318095565529,1.00000000090586,0.56635788422743
26499.9999998949,73.1837126989062,1.00000000091933,0.561310257386198
26599.9999998934,73.053456652322,1.00000000089315,0.55980698565909
26699.999999892,72.9282758652094,1.00000000089816,0.559059372206491
26799.9999998905,72.8096530976584,1.00000000081076,0.549314014616831
26899.999999889,72.699141532776,1.00000000081201,0.543556427571369
26999.9999998876,72.5965444861303,1.00000000083991,0.545466611259437
27099.9999998861,72.4991715216363,1.00000000087462,0.551538636538777
27199.9999998847,72.4045288742776,1.00000000091346,0.555982628361921
27299.9999998832,72.3104407478651,1.00000000088385,0.560152126967026
27399.9999998818,72.2166986815703,1.00000000090413,0.566774700318814
27499.9999998803,72.1213422815303,1.00000000094622,0.574902267796789
27599.9999998789,72.0226108531938,1.00000000096856,0.574297831493405
27699.9999998774,71.9206307488069,1.00000000093681,0.577117420775127
27799.9999998759,71.8181100823265,1.00000000085142,0.574470660111768
27899.9999998745,71.7178128195215,1.00000000087182,0.575116700757463
27999.999999873,71.6183239292163,1.00000000091304,0.575857889988903
28099.9999998716,71.5193793086145,1.00000000089176,0.575880031614627
28199.9999998701,71.4208976543959,1.00000000092407,0.577118399007883
28299.9999998687,71.3214105264048,1.00000000094054,0.581325075306691
28399.9999998672,71.2217943182854,1.00000000092641,0.583947649952979
28499.9999998658,71.1227610789019,1.00000000093625,0.582581702093261
28599.9999998643,71.0253648625122,1.00000000086689,0.576571355435656
28699.9999998629,70.9312466816049,1.00000000089653,0.571314885187827
28799.9999998614,70.8407436790872,1.00000000089327,0.567501614937364
28899.9999998599,70.7541203870804,1.00000000090209,0.565832041609247
28999.9999998585,70.6727928185121,1.00000000086398,0.562544626501601
