Time,AGPnorm,Energy,Entropy
0,0,1,-1.18326566484663e-17
99.9999999999986,9.016268401515e-06,0.999999999999219,0.000415880487325408
199.999999999993,0.000745679856815492,0.999999999999693,0.000657007068522403
300,0.00187091925902055,0.999999999999767,0.00116470696633158
400.000000000022,0.00254719306006473,0.999999999999185,0.00202983657562357
500.000000000045,0.00310443391080673,0.99999999999998,0.00272512069038497
600.000000000068,0.00460008886244107,0.999999999999353,0.0038276205674355
700.000000000091,0.00571485313497533,0.999999999999514,0.00492728040090124
800.000000000113,0.00719534474554444,0.999999999999903,0.00608192078383005
900.000000000136,0.0089396310457279,0.999999999999149,0.00753874721514812
1000.00000000016,0.0105117550052145,0.999999999999894,0.00887014345086231
1100.0000000001,0.0128376222055914,0.999999999999527,0.0104321339400382
1200,0.0150729171294595,0.999999999999341,0.0120857921016625
1299.99999999991,0.0173169533867166,0.999999999999973,0.0137168294540896
1399.99999999982,0.0199403895984119,0.999999999999196,0.0155967154233802
1499.99999999973,0.0224896382029083,0.999999999999767,0.0174132910055047
1599.99999999964,0.0254879735629367,0.999999999999702,0.0193589277934635
1699.99999999955,0.0285590569092066,0.999999999999197,0.0214480907670409
1799.99999999946,0.0316675260772415,0.99999999999998,0.0234831676540258
1899.99999999937,0.0352591030447585,0.999999999999327,0.0257120826309205
1999.99999999928,0.0386985747251105,0.999999999999602,0.0279461511945376
2099.99999999919,0.0422065985514318,0.999999999999833,0.030246306535224
2199.99999999909,0.0459068847701936,0.999999999999126,0.0327065204559895
2299.999999999,0.0498361738075739,0.999999999999943,0.0351206404111609
2399.99999999891,0.0542696629702581,0.999999999999502,0.0376771917222941
2499.99999999882,0.0584956944991999,0.999999999999396,0.0402983984442609
2599.99999999873,0.0625133576908813,0.999999999999904,0.0429420802904411
2699.99999999864,0.0668207535616893,0.999999999999168,0.0457458577508866
2799.99999999855,0.071419144327642,0.999999999999886,0.048543094806269
2899.99999999846,0.0763618717333182,0.999999999999667,0.0514404089888121
2999.99999999837,0.081162250225595,0.999999999999176,0.0544444493456299
3099.99999999828,0.0857801191404881,0.999999999999911,0.0574416835768477
3199.99999999819,0.0907829062257774,0.999999999999313,0.060601091394157
3299.99999999809,0.0959001871288878,0.999999999999796,0.0638012937162156
3399.999999998,0.101030759531258,0.99999999999979,0.0670738959301252
3499.99999999791,0.106138378871914,0.999999999999035,0.0704749547253302
3599.99999999782,0.111377565972874,0.999999999999885,0.0738783498468256
3699.99999999773,0.117023283409402,0.999999999999505,0.0774399063173278
3799.99999999764,0.122549516226674,0.999999999999606,0.0810889611309626
3899.99999999755,0.127727831918736,0.999999999999863,0.0847932397973286
3999.99999999746,0.133037293484626,0.999999999999059,0.0886407172111761
4099.99999999738,0.138762699435508,0.999999999999885,0.0925424967180547
4199.99999999775,0.144787350056795,0.999999999999673,0.0965987867494724
4299.99999999811,0.150555065691613,0.999999999999277,0.100790363767692
4399.99999999848,0.155833942534892,0.999999999999882,0.105024997404721
4499.99999999884,0.161437926374784,0.999999999999223,0.109445192040335
4599.9999999992,0.167441007941138,0.999999999999927,0.113987266971318
4699.99999999957,0.173505037572273,0.999999999999796,0.11869932960043
4799.99999999993,0.179240686100177,0.999999999998997,0.123597439969891
4900.00000000029,0.184740627927067,0.999999999999854,0.128580410193399
5000.00000000066,0.190697380699819,0.999999999999523,0.133825244088842
5100.00000000102,0.196772870832561,1.00000000000002,0.139285853488244
5200.00000000139,0.202658480416117,1.00000000000004,0.144945780497842
5300.00000000175,0.208187444687202,0.999999999999223,0.150892838018083
5400.00000000211,0.213931263245773,1.00000000000026,0.157050949832641
5500.00000000248,0.220228748733419,1.00000000000053,0.163579624553522
5600.00000000284,0.226097908029824,1.00000000000101,0.170451358757994
5700.00000000321,0.231994154195837,1.00000000000197,0.177541866917841
5800.00000000357,0.237547174157753,1.00000000000225,0.185022153698318
5900.00000000393,0.243561018667157,1.00000000000437,0.192784687561829
6000.0000000043,0.25096460389987,1.00000000000617,0.200926723358257
6100.00000000466,0.256784853636106,1.00000000000817,0.20935104790599
6200.00000000502,0.264548286207304,1.00000000001212,0.217834467699026
6300.00000000539,0.273084366273173,1.00000000001471,0.226566223217144
6400.00000000575,0.282318325017148,1.00000000001993,0.235384784079191
6500.00000000612,0.297437803581792,1.0000000000241,0.244315515045958
6600.00000000648,0.311496407611441,1.0000000000292,0.253248548720838
6700.00000000684,0.33338808086173,1.00000000003592,0.26204235211254
6800.00000000721,0.363738240847536,1.0000000000422,0.270812553507655
6900.00000000757,0.398879156772392,1.00000000004847,0.279529617009886
7000.00000000793,0.453334028257132,1.00000000005537,0.288056797644062
7100.0000000083,0.517452609546473,1.00000000006465,0.296445335218974
7200.00000000866,0.603249191728686,1.00000000007132,0.304652435496258
7300.00000000903,0.719208099920517,1.00000000007605,0.312788119712789
7400.00000000939,0.855897607880956,1.00000000008531,0.320795262821843
7500.00000000975,1.03785185213491,1.00000000009588,0.32842239304645
7600.00000001012,1.25806786680118,1.0000000000998,0.336019791065993
7700.00000001048,1.52522685926819,1.00000000011006,0.343399714301725
7800.00000001084,1.85996955410892,1.00000000011642,0.350686027269528
7900.00000001121,2.24835595604228,1.00000000012601,0.357834849367094
8000.00000001157,2.71847218818291,1.00000000013261,0.364648419166589
8100.00000001194,3.27210284570079,1.0000000001398,0.371354439427345
8200.0000000123,3.90890176700548,1.00000000014685,0.377953934132852
8300.00000001266,4.66034699839345,1.00000000015481,0.384303225614466
8400.00000001303,5.51245709157834,1.00000000016443,0.390556720015211
8500.00000001339,6.48733931175108,1.00000000017112,0.396544107417203
8600.00000001376,7.59849605862647,1.00000000017025,0.402428346234552
8700.00000001412,8.83609778330326,1.00000000018489,0.4082237415626
8800.00000001448,10.2347381648443,1.00000000018778,0.413685452070087
8900.00000001485,11.7862601649452,1.00000000019306,0.419085448378351
9000.00000001521,13.4995232706826,1.00000000020048,0.424283216618634
9100.00000001557,15.3983599627858,1.00000000020466,0.429334668849505
9200.00000001594,17.4677742349159,1.00000000021295,0.434322764374374
9300.0000000163,19.7350986353208,1.00000000021419,0.439038263542025
9400.00000001667,22.2019890823242,1.00000000021387,0.443633066463483
9500.00000001703,24.862588629228,1.0000000002303,0.448100272472038
9600.00000001739,27.7456630561135,1.00000000023335,0.452353820316793
9700.00000001776,30.8377582757361,1.00000000022487,0.456674479503099
9800.00000001812,34.1502256607511,1.00000000023349,0.460643748754223
9900.00000001848,37.6949577337256,1.00000000025054,0.464454939206289
10000.0000000188,41.4560572503865,1.00000000024677,0.46840750440218
10100.0000000192,45.4592024598979,1.00000000025095,0.471893903361186
10200.0000000196,49.6971453044551,1.00000000024607,0.475524261550419
10300.0000000199,54.1636530230364,1.00000000024382,0.478903298018927
10400.0000000203,58.8771953348388,1.00000000026214,0.482083150574778
10500.0000000207,63.8196709109222,1.00000000027065,0.485363576607984
10600.000000021,69.0047454588953,1.0000000002583,0.488358366662492
10700.0000000214,74.4341281468432,1.00000000025733,0.491305472811833
10800.0000000218,80.0886092467004,1.00000000026475,0.494148900714528
10900.0000000221,85.9864136755716,1.00000000026563,0.496782208571286
11000.0000000225,92.1143194534936,1.00000000026645,0.499493409633813
11100.0000000229,98.4698758944378,1.00000000027322,0.501903059699681
11200.0000000232,105.062359293931,1.00000000026475,0.504339095903156
11300.0000000236,111.866806030884,1.00000000026388,0.506839299368219
11400.0000000239,118.895155851372,1.00000000027376,0.508752668293007
11500.0000000243,126.142796547474,1.00000000027825,0.510958257514552
11600.0000000247,133.5919081028,1.0000000002763,0.513040430417981
11700.000000025,141.255564204198,1.00000000027855,0.514851700597585
11800.0000000254,149.110305291015,1.00000000027264,0.517063254185142
11900.0000000258,157.159162918312,1.00000000027815,0.518539440890852
12000.0000000261,165.404500913615,1.00000000026962,0.520209818211601
12100.0000000265,173.818102007058,1.0000000002687,0.522075814005454
12200.0000000269,182.413405676634,1.00000000027671,0.523277081043204
12300.0000000272,191.173037571262,1.00000000027855,0.524921495026618
12400.0000000276,200.08818130678,1.00000000027616,0.526425236638322
12500.0000000279,209.168937533123,1.00000000028214,0.527382688100952
12600.0000000283,218.382012952362,1.00000000027114,0.528944866306869
12700.0000000287,227.736731469609,1.00000000027224,0.530129539503769
12800.000000029,237.225073680905,1.00000000026914,0.531027115723298
12900.0000000294,246.82665919533,1.00000000026776,0.532316320351205
13000.0000000298,256.555844792621,1.00000000027495,0.533185625028513
13100.0000000301,266.382988956929,1.00000000027527,0.534193761855782
13200.0000000305,276.306187366168,1.00000000026532,0.535058382922355
13300.0000000309,286.330530443531,1.00000000027771,0.535613394793379
13400.0000000312,296.426649620927,1.00000000026998,0.536667622703007
13500.0000000316,306.607592111753,1.00000000026714,0.537345693362013
13600.0000000319,316.852540382117,1.00000000026387,0.538020567472226
13700.0000000323,327.151088265472,1.00000000025815,0.538609450385241
13800.0000000327,337.514160043837,1.00000000026622,0.539007225046622
13900.000000033,347.910092951421,1.00000000026493,0.539809611822727
14000.0000000334,358.347657276599,1.00000000025615,0.540299793029627
14100.0000000338,368.816270619963,1.00000000026297,0.540522034545544
14200.0000000341,379.297363133923,1.00000000026407,0.541104007610654
14300.0000000345,389.807535051557,1.00000000026399,0.541421322334119
14400.0000000349,400.314989970256,1.00000000025282,0.541763224252635
14500.0000000352,410.822503769682,1.00000000026633,0.542139660052649
14600.0000000356,421.330545574345,1.00000000025927,0.542135711972829
14700.0000000359,431.815256880471,1.0000000002538,0.542349139387961
14800.0000000363,442.290694372798,1.00000000025083,0.54296020724461
14900.0000000367,452.735855994468,1.00000000024874,0.543127259064785
15000.000000037,463.143588046752,1.00000000024242,0.543053454211969
15100.0000000374,473.520896739015,1.00000000024572,0.542944424131669
15200.0000000378,483.845798041688,1.00000000024815,0.543290401884205
15300.0000000381,494.127241603719,1.00000000024445,0.543347932725138
15400.0000000385,504.351715721006,1.000000000245,0.54348459699249
15500.0000000389,514.507898999154,1.00000000024123,0.543603057902652
15600.0000000392,524.607856207386,1.00000000024606,0.54327604155708
15700.0000000396,534.627978577603,1.00000000024014,0.543289220194509
15800.0000000399,544.574906597377,1.00000000023502,0.543292125755172
15900.0000000403,554.443762469235,1.00000000023127,0.543373802009351
16000.0000000407,564.216929118494,1.00000000024021,0.54332502504715
16100.000000041,573.910837307676,1.00000000023388,0.543300371586926
16200.0000000414,583.504462274062,1.00000000022835,0.543103334779829
16300.0000000418,592.998754899478,1.00000000023154,0.542896542650467
16400.0000000418,602.39607405853,1.00000000023017,0.542658306592939
16500.0000000404,611.679123265405,1.00000000022808,0.542899784322653
16600.0000000389,620.862538208108,1.00000000021919,0.542743231356979
16700.0000000375,629.929111782382,1.00000000022182,0.542710248375198
16800.000000036,638.878756080647,1.00000000021798,0.542691280497431
16900.0000000346,647.714841082251,1.00000000021504,0.542236715304283
17000.0000000331,656.424245821519,1.00000000022209,0.542028916394848
17100.0000000317,665.015077222827,1.0000000002156,0.541712352899129
17200.0000000302,673.479756168165,1.00000000021424,0.541641195771139
17300.0000000287,681.808942570313,1.00000000021917,0.541358070706779
17400.0000000273,690.014494937921,1.00000000022201,0.541171192915394
17500.0000000258,698.080204290447,1.0000000002184,0.540997300252034
17600.0000000244,706.01423701207,1.00000000021102,0.540622410529589
17700.0000000229,713.81118782617,1.0000000002146,0.540120755168654
17800.0000000215,721.462247482758,1.00000000021569,0.539820728462834
17900.00000002,728.979590621551,1.00000000020436,0.539686123245937
18000.0000000186,736.351181233474,1.00000000020245,0.539524270272219
18100.0000000171,743.579282910194,1.00000000019967,0.539426594610352
18200.0000000156,750.664851426037,1.00000000019974,0.539013749499578
18300.0000000142,757.597225216569,1.00000000019316,0.538804556213978
18400.0000000127,764.389547368288,1.00000000019966,0.538270395485237
18500.0000000113,771.030980076303,1.00000000020495,0.537708741625688
18600.0000000098,777.522199291833,1.00000000020272,0.537581141524634
18700.0000000084,783.86731957917,1.00000000019348,0.53728647864827
18800.0000000069,790.056769179107,1.0000000001885,0.537425966399104
18900.0000000055,796.101404979061,1.00000000018696,0.53696089709891
19000.000000004,801.993206756757,1.000000000194,0.536614537377543
19100.0000000026,807.731315725709,1.00000000019174,0.536201349287281
19200.0000000011,813.322605692374,1.00000000018887,0.535665751430419
19299.9999999996,818.758910614495,1.00000000019065,0.535411288806129
19399.9999999982,824.047596626733,1.0000000001831,0.535078341861771
19499.9999999967,829.184900093147,1.00000000018313,0.535184061479652
19599.9999999953,834.167883506286,1.00000000017864,0.535005026318448
19699.9999999938,839.005554279637,1.00000000017995,0.534890717185619
19799.9999999924,843.690792879711,1.00000000018248,0.534223693413597
19899.9999999909,848.228182736049,1.0000000001829,0.533604236764029
19999.9999999895,852.617831738353,1.00000000017789,0.532933231582596
20099.999999988,856.854308603437,1.00000000017333,0.532532659233932
20199.9999999865,860.948407693793,1.00000000016918,0.532652574541004
20299.9999999851,864.893450875005,1.00000000017093,0.532784374609686
20399.9999999836,868.693981908141,1.00000000017319,0.533394513929618
20499.9999999822,872.35325031041,1.00000000016872,0.53335801184343
20599.9999999807,875.865350998582,1.00000000017609,0.532727391140135
20699.9999999793,879.239977296926,1.00000000017227,0.531479056023069
20799.9999999778,882.470808573017,1.00000000016676,0.529920132025034
20899.9999999764,885.558976990628,1.00000000016083,0.529167653897011
20999.9999999749,888.508904246011,1.00000000016304,0.528746263506083
21099.9999999734,891.315197932039,1.00000000016587,0.529825616925278
21199.999999972,893.989049653553,1.00000000016474,0.531598588599378
21299.9999999705,896.5293368959,1.00000000016,0.533034484144365
21399.9999999691,898.937966606994,1.00000000016117,0.53372316197119
21499.9999999676,901.222240385253,1.00000000016375,0.532461736093832
21599.9999999662,903.375664573133,1.00000000016301,0.530176616974821
21699.9999999647,905.402779664447,1.00000000016425,0.526805487751403
21799.9999999633,907.297978626155,1.00000000015502,0.5240375554532
21899.9999999618,909.058250189146,1.00000000015208,0.523691994135989
21999.9999999603,910.690754980373,1.00000000014896,0.525134411081989
22099.9999999589,912.195556289852,1.00000000015593,0.52910942157501
22199.9999999574,913.583583611863,1.00000000015666,0.533216010428585
22299.999999956,914.862025660355,1.0000000001588,0.536301325118901
22399.9999999545,916.033913562941,1.00000000016006,0.536769621206344
22499.9999999531,917.106575079419,1.00000000015898,0.534013593933034
22599.9999999516,918.073209966253,1.00000000015165,0.528758484302659
22699.9999999502,918.929019273766,1.00000000014532,0.522265559429519
22799.9999999487,919.666724687376,1.00000000013981,0.516855753647632
22899.9999999473,920.278468517343,1.00000000013408,0.515684890558961
22999.9999999458,920.771261044464,1.00000000013427,0.518827910136533
23099.9999999443,921.15043401483,1.00000000013894,0.525885271090027
23199.9999999429,921.43062278138,1.00000000014785,0.533759153889741
23299.9999999414,921.627908448574,1.00000000016207,0.539778109600104
23399.99999994,921.750440975979,1.0000000001679,0.542483070492794
23499.9999999385,921.807118357877,1.00000000016228,0.540257528398905
23599.9999999371,921.792292054868,1.00000000015225,0.533399053874386
23699.9999999356,921.695066232159,1.00000000014174,0.522990836610837
23799.9999999342,921.503577939352,1.00000000013196,0.511863418323249
23899.9999999327,921.20188326819,1.00000000012177,0.5044506927567
23999.9999999312,920.788537414695,1.00000000011393,0.503632607015395
24099.9999999298,920.266530244434,1.00000000012229,0.510631903905122
24199.9999999283,919.650470901701,1.00000000013388,0.522493343584686
24299.9999999269,918.963566704815,1.00000000015239,0.534605927952375
24399.9999999254,918.223669105236,1.00000000016865,0.543908312513327
24499.999999924,917.448317873575,1.00000000017385,0.548211770604579
24599.9999999225,916.642408397184,1.00000000017634,0.546263938668699
24699.9999999211,915.800596089057,1.00000000016978,0.538422297854549
24799.9999999196,914.912741903378,1.00000000015002,0.52440364035063
24899.9999999181,913.956762272189,1.00000000012934,0.507834907889579
24999.9999999167,912.915719874456,1.00000000010777,0.493138297390496
25099.9999999152,911.77601766921,1.00000000010014,0.485265011761573
25199.9999999138,910.535051337001,1.00000000009976,0.489235434322494
25299.9999999123,909.208433436216,1.00000000010997,0.502982435780885
25399.9999999109,907.814901705118,1.00000000013439,0.520701802782769
25499.9999999094,906.380397863152,1.00000000016156,0.537292607375296
25599.999999908,904.928053683616,1.00000000018776,0.548451642568676
25699.9999999065,903.470455120292,1.00000000018928,0.553128334729679
25799.9999999051,902.015980013231,1.00000000019935,0.551743669059179
25899.9999999036,900.558892166463,1.00000000018315,0.542822395999377
25999.9999999021,899.084264913928,1.00000000016375,0.527007766347741
26099.9999999007,897.572333612427,1.00000000013437,0.506143054368317
26199.9999998992,895.997597341429,1.00000000011059,0.48415903586472
26299.9999998978,894.345136696891,1.00000000008895,0.468472713018517
26399.9999998963,892.605455224766,1.00000000008185,0.465179547168004
26499.9999998949,890.785758948897,1.00000000009202,0.476602156268927
26599.9999998934,888.904109103827,1.00000000011362,0.498195155202165
26699.999999892,886.983084124938,1.0000000001482,0.52147463585167
26799.9999998905,885.049053349099,1.00000000017142,0.54000586857888
26899.999999889,883.121647296286,1.00000000019775,0.552419343510054
26999.9999998876,881.214067208385,1.00000000020206,0.557539657072178
27099.9999998861,879.332083015911,1.00000000021586,0.556481632854383
27199.9999998847,877.470579009237,1.0000000002011,0.548499774053856
27299.9999998832,875.616285735639,1.00000000017893,0.532810018375463
27399.9999998818,873.750180135405,1.0000000001517,0.51101565601196
27499.9999998803,871.848267499952,1.00000000011654,0.48379506612882
27599.9999998789,869.892156853451,1.00000000009309,0.459720936593469
27699.9999998774,867.8669228022,1.00000000007655,0.445180619846007
27799.9999998759,865.77267204331,1.00000000007678,0.447020174929198
27899.9999998745,863.618886188956,1.00000000009014,0.465177083935751
27999.999999873,861.423583091996,1.00000000012344,0.492724436446395
28099.9999998716,859.210528651458,1.00000000015266,0.518748062783938
28199.9999998701,857.0001296395,1.00000000018875,0.540016552399804
28299.9999998687,854.809817426865,1.00000000020481,0.551737940555942
28399.9999998672,852.651467980984,1.00000000022321,0.558678847906085
28499.9999998658,850.529160072991,1.00000000021953,0.558041927531106
28599.9999998643,848.440907628574,1.00000000021505,0.553678580372375
28699.9999998629,846.378331995672,1.00000000020458,0.54254309987295
