Time,AGPnorm,Energy,Entropy
0,0,1,-7.42966132706229e-17
99.9999999999986,0.00117308457763837,1.0000000000006,0.00388890833519508
199.999999999993,0.00787464615437505,0.999999999999053,0.0114353710263672
300,0.0162727130673354,0.999999999998201,0.0209665440274056
400.000000000022,0.0245517463541308,0.999999999999462,0.0329261019474722
500.000000000045,0.0345662834372198,1.00000000000026,0.0475802565628386
600.000000000068,0.0473859227761988,0.999999999999578,0.0645400241107768
700.000000000091,0.0610566271239448,0.999999999998564,0.0833816962883223
800.000000000113,0.0745819878493512,0.99999999999915,0.104565424491491
900.000000000136,0.0888138394099656,1.00000000000031,0.129400129405023
1000.00000000016,0.103683322460122,1.00000000000135,0.158835528057221
1100.0000000001,0.11897199382694,1.00000000001168,0.194550518005651
1200,0.136118062473069,1.00000000006636,0.23755303039844
1299.99999999991,0.155756871362563,1.00000000020368,0.285527628210998
1399.99999999982,0.183196959726316,1.00000000041718,0.333210681459814
1499.99999999973,0.277059913570716,1.00000000064343,0.376240106494092
1599.99999999964,0.519860486742712,1.00000000093225,0.413233299196844
1699.99999999955,0.957957143873868,1.00000000114073,0.445371027453614
1799.99999999946,1.65990694273229,1.00000000128766,0.4731806727429
1899.99999999937,2.73460313829406,1.00000000134279,0.496394457627508
1999.99999999928,4.24669604777226,1.00000000157123,0.514992146832211
2099.99999999919,6.18603760619719,1.00000000152261,0.531069427753102
2199.99999999909,8.53655452223016,1.00000000163689,0.544259389622479
2299.999999999,11.3003028052844,1.00000000168416,0.55437353013998
2399.99999999891,14.4326551770343,1.00000000166945,0.562184726004973
2499.99999999882,17.8520192899459,1.00000000162735,0.568664638232226
2599.99999999873,21.4905287524438,1.00000000164348,0.573312501220551
2699.99999999864,25.2913638453912,1.00000000161771,0.576328107299501
2799.99999999855,29.184903939588,1.00000000154765,0.578221150518457
2899.99999999846,33.0867585748436,1.00000000160919,0.579426932538208
2999.99999999837,36.9366226401896,1.00000000156138,0.579421658743378
3099.99999999828,40.6922170458989,1.00000000152699,0.57903196150289
3199.99999999819,44.3055090753862,1.00000000143402,0.57801915763341
3299.99999999809,47.7257675733117,1.00000000142146,0.576351002263237
3399.999999998,50.9201467278894,1.0000000013037,0.57382183361059
3499.99999999791,53.8767244339878,1.00000000128507,0.572626152755896
3599.99999999782,56.5760759874995,1.00000000128494,0.572495816775607
3699.99999999773,59.0014270100543,1.00000000123655,0.567945214008579
3799.99999999764,61.1473505143858,1.00000000118874,0.565230224996336
3899.99999999755,63.0090648409844,1.0000000011505,0.565959018434255
3999.99999999746,64.5956103129299,1.0000000010735,0.56402163793882
4099.99999999738,65.9187434943385,1.00000000102314,0.558399416269952
4199.99999999775,66.9778114538837,1.00000000099022,0.563654632889262
4299.99999999811,67.7909603994403,1.00000000090844,0.556281281707943
4399.99999999848,68.3612384107224,1.00000000093421,0.556816847195347
4499.99999999884,68.7356671569638,1.00000000097006,0.562684007366581
4599.9999999992,68.9064807568639,1.00000000079595,0.540466414550579
4699.99999999957,68.8960644852918,1.00000000103477,0.5689426849866
4799.99999999993,68.7646569407491,1.0000000008968,0.551022748578792
4900.00000000029,68.4642163124795,1.00000000076636,0.531261389727459
5000.00000000066,68.0616717602294,1.00000000104057,0.574085187601635
5100.00000000102,67.6081920722312,1.00000000087643,0.53960722965274
5200.00000000139,67.0231835480232,1.00000000066236,0.512137778908746
5300.00000000175,66.3713574929246,1.00000000118978,0.57617093147211
5400.00000000211,65.7291239311569,1.00000000108935,0.550220997291535
5500.00000000248,65.0113817180369,1.00000000060447,0.48707023102066
5600.00000000284,64.2197693962551,1.00000000097179,0.541501962402802
5700.00000000321,63.4565546843741,1.00000000126798,0.577699455629422
5800.00000000357,62.7052917300449,1.00000000089314,0.508007087803789
5900.00000000393,61.890509422181,1.00000000061114,0.46620634907366
6000.0000000043,61.0478233850655,1.00000000112626,0.539169520266029
6100.00000000466,60.2473041972622,1.00000000134703,0.572088023444752
6200.00000000502,59.4750527236555,1.00000000094907,0.503384427484167
6300.00000000539,58.6732141025895,1.00000000062661,0.450739743605432
6400.00000000575,57.8472025225466,1.00000000087439,0.488847727719347
6500.00000000612,57.0425822945614,1.00000000129627,0.555893157274567
6600.00000000648,56.2797336924688,1.00000000114138,0.544589898537462
6700.00000000684,55.5315219648535,1.00000000087301,0.479161099254194
6800.00000000721,54.7745721807508,1.00000000070567,0.452087928247871
6900.00000000757,54.0147329506593,1.00000000086464,0.480486227087629
7000.00000000793,53.2708260823315,1.00000000114269,0.530943610656821
7100.0000000083,52.5547875877908,1.00000000121442,0.544964258353363
7200.00000000866,51.8610139817477,1.00000000094987,0.506719549006692
7300.00000000903,51.1777006379719,1.00000000072994,0.467194586228482
7400.00000000939,50.5044154861224,1.00000000075719,0.468903279319377
7500.00000000975,49.8429219241164,1.00000000090264,0.490516192776524
7600.00000001012,49.1957097336786,1.00000000097432,0.509233258552941
7700.00000001048,48.5653875082939,1.00000000117109,0.53183167880831
7800.00000001084,47.9515360093183,1.00000000108769,0.525184922480381
7900.00000001121,47.3539377237976,1.00000000086235,0.489245273488041
8000.00000001157,46.7752358591743,1.00000000074361,0.472729285175816
8100.00000001194,46.2153703039496,1.00000000094062,0.487836328337076
8200.0000000123,45.6699391436902,1.00000000098173,0.507124525506344
8300.00000001266,45.1410125740137,1.00000000084424,0.489545396642772
8400.00000001303,44.6283004593437,1.00000000099782,0.506723049592848
8500.00000001339,44.1246321806001,1.00000000113996,0.529599254766322
8600.00000001376,43.627893505028,1.00000000111607,0.525485092518329
8700.00000001412,43.1478434026145,1.00000000081166,0.4912581091709
8800.00000001448,42.692678126192,1.00000000076586,0.472454757882002
8900.00000001485,42.257563460925,1.00000000096326,0.492326246341373
9000.00000001521,41.8317209873096,1.00000000105718,0.506035882233408
9100.00000001557,41.4158396461284,1.00000000092807,0.509270809513602
9200.00000001594,41.0190394662617,1.00000000078289,0.482217152918224
9300.0000000163,40.6388175207334,1.00000000089655,0.500118244782161
9400.00000001667,40.263101382267,1.00000000110092,0.527199077756069
9500.00000001703,39.8857921236062,1.00000000118517,0.534708666558478
9600.00000001739,39.5141747402365,1.00000000096438,0.513564964350356
9700.00000001776,39.1621949525671,1.00000000083201,0.490865884307921
9800.00000001812,38.8347249859142,1.0000000008426,0.485566109305474
9900.00000001848,38.5253569621921,1.00000000096509,0.496469559992854
10000.0000000188,38.2232145692413,1.0000000009843,0.504200773233244
10100.0000000192,37.9227735336221,1.00000000106931,0.508279383827298
10200.0000000196,37.6306385027458,1.00000000093307,0.51680044701239
10300.0000000199,37.3540857110884,1.00000000084955,0.50815294968901
10400.0000000203,37.0888103964314,1.00000000090309,0.512384422740477
10500.0000000207,36.8277121696945,1.00000000099671,0.527073837358454
10600.000000021,36.5680218327484,1.00000000109177,0.53294805153044
10700.0000000214,36.3066402351931,1.00000000109928,0.532704798019929
10800.0000000218,36.0493260034461,1.00000000097307,0.527076330007384
10900.0000000221,35.8104380364118,1.00000000082989,0.5086672404415
11000.0000000225,35.5934547538437,1.00000000083454,0.498645109769889
11100.0000000229,35.3895211149169,1.00000000099904,0.512060214904113
11200.0000000232,35.1951630291631,1.00000000090967,0.508961897058481
11300.0000000236,35.0105941773857,1.00000000095903,0.511598084721357
11400.0000000239,34.8340327441057,1.00000000093898,0.506423764260284
11500.0000000243,34.6626045380368,1.00000000099851,0.516661439676458
11600.0000000247,34.4893378671395,1.00000000109895,0.540757252695307
11700.000000025,34.3138123645743,1.00000000094848,0.544314425995282
11800.0000000254,34.1390637528493,1.00000000097857,0.544865644907698
11900.0000000258,33.9701377901039,1.00000000090838,0.534993819397712
12000.0000000261,33.8083939118559,1.00000000099957,0.530798901376519
12100.0000000265,33.6497008335411,1.0000000010238,0.53449416356867
12200.0000000269,33.4894862278608,1.00000000109688,0.537004309190879
12300.0000000272,33.3265409730519,1.00000000101971,0.535753120270882
12400.0000000276,33.1736194892179,1.00000000090544,0.533458383213751
12500.0000000279,33.0395118027153,1.00000000081118,0.520538518157106
12600.0000000283,32.9239016364222,1.00000000088372,0.511514072890189
12700.0000000287,32.8169614937879,1.00000000098082,0.517149431552967
12800.000000029,32.7091231418123,1.00000000102512,0.530320285443546
12900.0000000294,32.6044248120818,1.000000000953,0.519107907898427
13000.0000000298,32.5115621017644,1.00000000085936,0.509168689541581
13100.0000000301,32.4305204708878,1.000000000928,0.522913496486373
13200.0000000305,32.3542621321267,1.00000000096849,0.538138005390484
13300.0000000309,32.278521768174,1.00000000094745,0.535741161671592
13400.0000000312,32.19458214981,1.00000000109286,0.548962446674153
13500.0000000316,32.1001133536893,1.00000000104885,0.553477224100851
13600.0000000319,31.9977597421911,1.00000000106776,0.560709047317924
13700.0000000323,31.8908163800096,1.00000000098014,0.563222624740772
13800.0000000327,31.783694990312,1.00000000094346,0.563719427105292
13900.000000033,31.6800891479993,1.00000000088159,0.555470955712804
14000.0000000334,31.5809811567727,1.00000000092262,0.544904197072325
14100.0000000338,31.4863759371366,1.00000000103274,0.539698838178567
14200.0000000341,31.3939601779563,1.0000000010536,0.541489579840689
14300.0000000345,31.3011123383272,1.00000000111382,0.54801024003021
14400.0000000349,31.2111398050024,1.00000000099752,0.548291217968351
14500.0000000352,31.1323222884395,1.0000000008957,0.544697007874355
14600.0000000356,31.0698995200709,1.00000000092301,0.537008434864202
14700.0000000359,31.0204614681272,1.00000000098072,0.534755688292045
14800.0000000363,30.9765743402348,1.00000000097957,0.536569139771431
14900.0000000367,30.9382702168726,1.00000000099526,0.52963129430721
15000.000000037,30.9036662909958,1.00000000093521,0.525922410694977
15100.0000000374,30.8724774467039,1.00000000090252,0.523506091618785
15200.0000000378,30.8493069466006,1.00000000093551,0.527345828036409
15300.0000000381,30.8319947146861,1.00000000099373,0.537918946958622
15400.0000000385,30.8148141389913,1.00000000104828,0.550888351813123
15500.0000000389,30.7934104256056,1.0000000010655,0.560235314768212
15600.0000000392,30.7676546446998,1.00000000105084,0.563363950214713
15700.0000000396,30.7407107404547,1.00000000096386,0.564982782183812
15800.0000000399,30.7164212531997,1.00000000091674,0.56437624318483
15900.0000000403,30.6930692371017,1.00000000096082,0.563240323371932
16000.0000000407,30.6650652916861,1.00000000099581,0.571840290141303
16100.000000041,30.628154409325,1.00000000110204,0.569788572158037
16200.0000000414,30.5780151121183,1.00000000112168,0.564571389431768
16300.0000000418,30.5158044455448,1.00000000114815,0.572002936885921
16400.0000000418,30.4430767424326,1.00000000100569,0.575514232243483
16500.0000000404,30.366748189375,1.00000000093332,0.578795225836412
16600.0000000389,30.2930427615511,1.00000000089085,0.573385310914877
16700.0000000375,30.2253448393091,1.0000000008887,0.565049753852589
16800.000000036,30.164456993832,1.00000000091961,0.561884577222682
16900.0000000346,30.1080506538749,1.00000000099405,0.560486946369416
17000.0000000331,30.0548278292438,1.00000000107016,0.559540899662739
17100.0000000317,30.002998792858,1.00000000105469,0.562855382496047
17200.0000000302,29.9521080709064,1.00000000108433,0.563739551657734
17300.0000000287,29.9053130040848,1.00000000097165,0.562386784450587
17400.0000000273,29.8687083107518,1.00000000089577,0.563003602149342
17500.0000000258,29.8448208729584,1.00000000092924,0.560159332012792
17600.0000000244,29.8301001305624,1.00000000099591,0.55685315958241
17700.0000000229,29.8236406347904,1.00000000093742,0.551477620478752
17800.0000000215,29.823354364262,1.00000000099977,0.547346181385197
17900.00000002,29.8240663900167,1.00000000099258,0.540498089150336
18000.0000000186,29.8265844033599,1.00000000095643,0.542496131487313
18100.0000000171,29.8370412476474,1.00000000092216,0.543668231753177
18200.0000000156,29.8548654541282,1.00000000094211,0.542625772346732
18300.0000000142,29.8750649483276,1.0000000010168,0.547831694352363
18400.0000000127,29.893845025335,1.00000000102524,0.554301713527011
18500.0000000113,29.9104779745378,1.00000000105575,0.552402798791417
18600.0000000098,29.9252563524007,1.00000000102894,0.550783999548505
18700.0000000084,29.9383527206968,1.00000000097211,0.560807078809892
18800.0000000069,29.9496572020909,1.000000000993,0.572704421165178
18900.0000000055,29.9603475812561,1.0000000009367,0.574941852706625
19000.000000004,29.9707539902875,1.00000000101203,0.583709606019301
19100.0000000026,29.9814714337369,1.00000000098659,0.595681013215282
19200.0000000011,29.9891696967338,1.00000000106674,0.599483347677715
19299.9999999996,29.9884570050913,1.00000000106341,0.605942988470336
19399.9999999982,29.9812659185272,1.00000000106119,0.609182981925012
19499.9999999967,29.9705862063013,1.00000000095434,0.612804603168817
19599.9999999953,29.9575394937757,1.00000000102241,0.613813383459649
19699.9999999938,29.9404465382344,1.00000000103836,0.618047621868773
19799.9999999924,29.9191818023112,1.00000000098374,0.611306743214139
19899.9999999909,29.8941281717433,1.0000000010224,0.60872681463204
19999.9999999895,29.8628695000179,1.00000000104809,0.602016105269796
20099.999999988,29.8258266820827,1.00000000107119,0.599761308490838
20199.9999999865,29.7826482759886,1.00000000106055,0.602025551645373
20299.9999999851,29.731275886804,1.00000000110252,0.611020409974669
20399.9999999836,29.6717958802854,1.0000000010866,0.615257599202098
20499.9999999822,29.6074040319643,1.00000000101948,0.614608580397912
20599.9999999807,29.5422327224459,1.00000000096939,0.615347876574867
20699.9999999793,29.4799436658162,1.00000000094289,0.613052792529864
20799.9999999778,29.4213757525057,1.00000000098746,0.615812782738991
20899.9999999764,29.3676391503245,1.00000000098434,0.619933144561332
20999.9999999749,29.3178909948871,1.00000000098188,0.612722492194745
21099.9999999734,29.2723763493137,1.00000000102886,0.607109640055446
21199.999999972,29.2302671866885,1.00000000111249,0.611340787098962
21299.9999999705,29.1915844754997,1.00000000097894,0.604545600618539
21399.9999999691,29.1546420623248,1.00000000108125,0.599385000827262
21499.9999999676,29.1205144393137,1.00000000102357,0.585653066658557
21599.9999999662,29.0893883302044,1.00000000100224,0.585507837646342
21699.9999999647,29.0656431029332,1.00000000095274,0.580601653897568
21799.9999999633,29.050949388766,1.00000000095714,0.581981476143536
21899.9999999618,29.0459513650314,1.00000000097263,0.589551734387354
21999.9999999603,29.0498723233418,1.00000000093974,0.584220440557231
22099.9999999589,29.0602731744102,1.00000000103432,0.578691497315126
22199.9999999574,29.0731599048869,1.00000000100281,0.578323067564187
22299.999999956,29.0898266455602,1.00000000102847,0.573878228734268
22399.9999999545,29.1102283932848,1.00000000102455,0.566404429902916
22499.9999999531,29.1358179000826,1.00000000097646,0.563329419304143
22599.9999999516,29.1660721752816,1.00000000093721,0.562232388194918
22699.9999999502,29.201120766295,1.0000000009854,0.568481527679775
22799.9999999487,29.2376687612764,1.00000000104836,0.56750754660503
22899.9999999473,29.2745425170123,1.00000000101702,0.568663857597577
22999.9999999458,29.3130450525731,1.00000000103689,0.570055192826164
23099.9999999443,29.3505194542538,1.00000000102359,0.571956883325796
23199.9999999429,29.3857908496259,1.00000000106663,0.573436567189055
23299.9999999414,29.4165753791362,1.00000000107537,0.577884900476543
23399.99999994,29.443252506804,1.00000000106385,0.581694096009997
23499.9999999385,29.467544942004,1.00000000105855,0.588344374914248
23599.9999999371,29.4904435409218,1.00000000103507,0.60007474025684
23699.9999999356,29.5118965438981,1.00000000105195,0.610200537628089
23799.9999999342,29.531570929488,1.00000000105319,0.614898325469568
23899.9999999327,29.549036546769,1.00000000100922,0.615129939319833
23999.9999999312,29.5623440910396,1.00000000102824,0.616192786902663
24099.9999999298,29.5725774112725,1.00000000104257,0.619375157004981
24199.9999999283,29.5820488758494,1.00000000102965,0.619307032736884
24299.9999999269,29.5899229851041,1.00000000100882,0.618405649048494
24399.9999999254,29.5972954639144,1.00000000103757,0.613841424589955
24499.999999924,29.6033011321738,1.00000000102823,0.60837183616326
24599.9999999225,29.6046073835091,1.00000000111402,0.604717926268327
24699.9999999211,29.6013217055158,1.00000000108021,0.616221719420571
24799.9999999196,29.5954393681961,1.0000000011161,0.623035954290889
24899.9999999181,29.5880524573836,1.00000000100041,0.616933397129003
24999.9999999167,29.5810085698013,1.00000000102484,0.617101775720219
25099.9999999152,29.5723116882941,1.00000000106453,0.625303372559592
25199.9999999138,29.5604860783074,1.00000000102524,0.624966585295955
25299.9999999123,29.5477521864056,1.00000000097883,0.616085492600484
25399.9999999109,29.5352305290759,1.00000000103024,0.613522879297232
25499.9999999094,29.5211499493235,1.0000000010861,0.615663068027423
25599.999999908,29.5042912000761,1.00000000106909,0.615360847772206
25699.9999999065,29.4833129992901,1.00000000111275,0.621849306207703
25799.9999999051,29.4586071452691,1.00000000112149,0.620910501745848
25899.9999999036,29.4322056879227,1.00000000095334,0.622393338107022
25999.9999999021,29.4042392164611,1.00000000107712,0.630558412669925
26099.9999999007,29.3743468446385,1.00000000108796,0.626020937171395
26199.9999998992,29.3439499847726,1.00000000101968,0.624976584943883
26299.9999998978,29.3117858371222,1.00000000110605,0.631993001247219
26399.9999998963,29.2771780434528,1.00000000105595,0.624859534106791
26499.9999998949,29.241389991217,1.0000000010139,0.612673025613124
26599.9999998934,29.2051404624822,1.000000001064,0.615175080085561
26699.999999892,29.1664541283087,1.00000000111593,0.621189817653072
26799.9999998905,29.1232642834906,1.00000000112408,0.626342561463724
26899.999999889,29.0768847819469,1.00000000114956,0.624208787825603
26999.9999998876,29.0274929874675,1.00000000111416,0.623272167746568
27099.9999998861,28.9748198421322,1.00000000115273,0.628035927360307
27199.9999998847,28.9189431443706,1.00000000112785,0.633557611646116
27299.9999998832,28.8605319428203,1.0000000011638,0.634080475195302
27399.9999998818,28.8006505596515,1.00000000116192,0.636044237259629
27499.9999998803,28.7401099504187,1.00000000099916,0.629994251578558
27599.9999998789,28.6806883559132,1.00000000097039,0.621218888551204
27699.9999998774,28.6230753878544,1.00000000099439,0.614861581841869
27799.9999998759,28.5674842783839,1.00000000104356,0.606726896791791
27899.9999998745,28.5156031059931,1.00000000101862,0.603602833199096
27999.999999873,28.4675971713619,1.00000000101083,0.606900398974165
28099.9999998716,28.4234465632469,1.00000000106434,0.614124470132623
28199.9999998701,28.3831826237291,1.00000000106434,0.614207769896611
28299.9999998687,28.345179383945,1.00000000106928,0.613384744047846
28399.9999998672,28.3104370736499,1.00000000114708,0.612894681180027
28499.9999998658,28.2791001852046,1.00000000114972,0.610726779726598
28599.9999998643,28.2489891645169,1.00000000110696,0.603823436968493
28699.9999998629,28.2228428750196,1.00000000103029,0.59356910310179
28799.9999998614,28.2002866217042,1.00000000109909,0.591648291738166
28899.9999998599,28.1809079770068,1.00000000107922,0.586969641550649
28999.9999998585,28.1681895243453,1.00000000099829,0.586588693933107
