Time,AGPnorm,Energy,Entropy
0,0,1,-9.71038658968893e-18
99.9999999999986,8.93174765706322e-06,1.00000000000176,0.000421648487363786
199.999999999993,0.000738527909830892,0.999999999999726,0.000659038389216215
300,0.00190044775278914,1.0000000000011,0.00119163559414592
400.000000000022,0.00258081771471435,1.00000000000103,0.00204707931815917
500.000000000045,0.00314624026072035,0.999999999999744,0.00277669347493795
600.000000000068,0.00464059119700265,1.0000000000018,0.00390113171653037
700.000000000091,0.00582843436857572,0.99999999999993,0.00499212888450398
800.000000000113,0.00736124003458708,1.00000000000075,0.00621228680915161
900.000000000136,0.00909104309304975,1.00000000000135,0.0076602715843228
1000.00000000016,0.0107230200706854,0.999999999999592,0.00903399600916952
1100.0000000001,0.0130953916601761,1.00000000000172,0.0106434615770101
1200,0.015387205694537,1.00000000000021,0.0122788913467926
1299.99999999991,0.0176647258996992,1.00000000000036,0.0140006716733626
1399.99999999982,0.0202930372664176,1.00000000000162,0.0158826236470203
1499.99999999973,0.0230078492573072,0.999999999999573,0.0177312905255337
1599.99999999964,0.0261113521475065,1.00000000000152,0.0197541375470355
1699.99999999955,0.0291571002542646,1.00000000000054,0.0218210495613419
1799.99999999946,0.0322877674712934,1.00000000000001,0.0239563379974025
1899.99999999937,0.0359024960747843,1.00000000000183,0.0262077624787493
1999.99999999928,0.039594288835723,0.999999999999676,0.0284610526244826
2099.99999999919,0.0432238523984528,1.00000000000119,0.0308643954398661
2199.99999999909,0.0468682348301468,1.00000000000088,0.0333080895947186
2299.999999999,0.0508545136951882,0.999999999999767,0.035813961547044
2399.99999999891,0.0553580539125698,1.00000000000193,0.0384269593089552
2499.99999999882,0.0597931832242835,0.999999999999849,0.0410550194887849
2599.99999999873,0.0639085472085207,1.00000000000075,0.0438239029968183
2699.99999999864,0.0681750636187189,1.00000000000126,0.0466231286189127
2799.99999999855,0.0729583071442901,0.999999999999677,0.0494960049465548
2899.99999999846,0.0780200676098576,1.00000000000187,0.0524912164874234
2999.99999999837,0.082892432146149,1.00000000000005,0.0554903545355351
3099.99999999828,0.0875460487284539,1.00000000000032,0.0586319586865369
3199.99999999819,0.092538812268254,1.00000000000163,0.0618035311308413
3299.99999999809,0.0979964650649629,0.999999999999705,0.0650746250411989
3399.999999998,0.103255152000025,1.00000000000163,0.0684789472138674
3499.99999999791,0.108345501413081,1.00000000000029,0.0718803878928793
3599.99999999782,0.113554456471731,0.999999999999989,0.0754294267774753
3699.99999999773,0.119279623073648,1.0000000000019,0.0790446242070554
3799.99999999764,0.125160156260855,0.999999999999779,0.0827670992304545
3899.99999999755,0.130460849437926,1.00000000000121,0.0866301718967897
3999.99999999746,0.135704766272937,1.00000000000066,0.0905010533527428
4099.99999999738,0.141442903580836,0.999999999999862,0.0945415330452575
4199.99999999775,0.147631345173846,1.00000000000201,0.0987147217363858
4299.99999999811,0.153591818943853,0.999999999999863,0.102978111106617
4399.99999999848,0.158949020640948,1.00000000000069,0.107414111634423
4499.99999999884,0.164433963278642,1.00000000000118,0.111887086203884
4599.9999999992,0.170623553322739,0.999999999999895,0.116586872559283
4699.99999999957,0.17685040473678,1.00000000000198,0.121490670003944
4799.99999999993,0.182633556522547,0.999999999999947,0.126486380360718
4900.00000000029,0.188106199650966,1.0000000000003,0.131715966822777
5000.00000000066,0.193998099669572,1.00000000000172,0.137092213133245
5100.00000000102,0.200410692452594,1.00000000000008,0.142764759098033
5200.00000000139,0.206429093658318,1.00000000000199,0.148730278445374
5300.00000000175,0.21191814088177,1.00000000000049,0.154846678065273
5400.00000000211,0.217605701513817,1.00000000000069,0.161324876156279
5500.00000000248,0.223992558291327,1.00000000000304,0.168125845278269
5600.00000000284,0.230181029677128,1.00000000000178,0.175275825337295
5700.00000000321,0.236252858217563,1.00000000000404,0.182806906697251
5800.00000000357,0.241688074681535,1.00000000000473,0.19049804067897
5900.00000000393,0.247941527612405,1.00000000000607,0.198628177102537
6000.0000000043,0.255756097591961,1.00000000001024,0.207077606276513
6100.00000000466,0.262151555477596,1.0000000000113,0.215728338624275
6200.00000000502,0.270807637812755,1.00000000001572,0.224563277419208
6300.00000000539,0.280066230863221,1.00000000002102,0.23337805625084
6400.00000000575,0.291574128710723,1.00000000002446,0.242414208088256
6500.00000000612,0.309308306735549,1.0000000000327,0.251482127922173
6600.00000000648,0.327154752035148,1.00000000003592,0.260473962277732
6700.00000000684,0.354859837536479,1.00000000004216,0.269371128743839
6800.00000000721,0.391451089599982,1.00000000005204,0.278116466577419
6900.00000000757,0.437562474110235,1.00000000005795,0.286828981737551
7000.00000000793,0.504195626785347,1.00000000006645,0.295447952215958
7100.0000000083,0.584005356077389,1.00000000007215,0.303729940926259
7200.00000000866,0.69163480881479,1.00000000008205,0.311911314418258
7300.00000000903,0.830187570481792,1.00000000008801,0.319997699322701
7400.00000000939,0.999264823570501,1.0000000000982,0.327890409317497
7500.00000000975,1.2169897980194,1.00000000010674,0.335646852259032
7600.00000001012,1.47818739415664,1.00000000011283,0.343025662047818
7700.00000001048,1.79872955231162,1.00000000012123,0.350426581157406
7800.00000001084,2.18684896220177,1.00000000013084,0.357643666629715
7900.00000001121,2.64311912574426,1.00000000014007,0.36464865579421
8000.00000001157,3.18836547763817,1.00000000014668,0.371516867541505
8100.00000001194,3.82079782992823,1.00000000015734,0.378027363011624
8200.0000000123,4.55578061307657,1.0000000001653,0.384569303831923
8300.00000001266,5.4037568710754,1.00000000016778,0.390950772857009
8400.00000001303,6.36873618979357,1.00000000017377,0.397014238702362
8500.00000001339,7.4685211216263,1.00000000018549,0.40295863467018
8600.00000001376,8.70327570857374,1.00000000018922,0.408692724356239
8700.00000001412,10.0889995679116,1.00000000019588,0.41437628688201
8800.00000001448,11.6333592383388,1.00000000020295,0.419874956390383
8900.00000001485,13.3435149240644,1.00000000020299,0.425064209031261
9000.00000001521,15.2325946739266,1.00000000021605,0.430207390091141
9100.00000001557,17.2989670917838,1.00000000021362,0.435207247716949
9200.00000001594,19.5617438573811,1.00000000022021,0.440038494110607
9300.0000000163,22.0214348323889,1.00000000023073,0.444683058040273
9400.00000001667,24.6845862654696,1.00000000022169,0.449186534040761
9500.00000001703,27.5635693333271,1.00000000022999,0.45359383600711
9600.00000001739,30.6498854591487,1.00000000023651,0.457850266169155
9700.00000001776,33.9674095779941,1.00000000024012,0.461811417096761
9800.00000001812,37.5080652024149,1.0000000002402,0.465824247024585
9900.00000001848,41.2727897018547,1.00000000024465,0.469612378173751
10000.0000000188,45.2791413840885,1.00000000024899,0.473305887064878
10100.0000000192,49.5078435559045,1.00000000024926,0.476933060542618
10200.0000000196,53.9857081456278,1.00000000024929,0.480199000638086
10300.0000000199,58.6993879336923,1.00000000026268,0.483512158844378
10400.0000000203,63.6401203481802,1.00000000026605,0.486653144096977
10500.0000000207,68.8344208834136,1.00000000026875,0.489780655566483
10600.000000021,74.2518127510983,1.00000000026978,0.492738120356728
10700.0000000214,79.9160268946567,1.0000000002693,0.495480054015502
10800.0000000218,85.8169025227026,1.00000000028392,0.498187789817852
10900.0000000221,91.9325579773632,1.00000000027954,0.500875058010709
11000.0000000225,98.2979158484491,1.00000000028509,0.503332109696766
11100.0000000229,104.875483073726,1.0000000002822,0.505713484740298
11200.0000000232,111.679126861398,1.0000000002699,0.508148080721735
11300.0000000236,118.709659938868,1.00000000027771,0.510382702888808
11400.0000000239,125.931146783705,1.00000000026817,0.512508329047279
11500.0000000243,133.383424868304,1.00000000028296,0.514352454423095
11600.0000000247,141.02830571388,1.00000000027586,0.516425700427068
11700.000000025,148.864064601637,1.00000000027331,0.518270469777055
11800.0000000254,156.907141834562,1.00000000029209,0.520054286829152
11900.0000000258,165.11052213344,1.00000000027864,0.521803870368717
12000.0000000261,173.512090634762,1.00000000028474,0.52318810617897
12100.0000000265,182.080241846799,1.00000000027462,0.524936285696751
12200.0000000269,190.796992608874,1.0000000002871,0.526279084749415
12300.0000000272,199.692854215667,1.0000000002854,0.527612516339792
12400.0000000276,208.714895672706,1.00000000027181,0.52916825722955
12500.0000000279,217.892839756683,1.00000000028243,0.530059294543283
12600.0000000283,227.207839493223,1.00000000028337,0.531331697354023
12700.0000000287,236.626228986325,1.00000000027461,0.53262977233862
12800.000000029,246.189084409328,1.0000000002774,0.533401844804796
12900.0000000294,255.842746105934,1.0000000002794,0.53447646193192
13000.0000000298,265.605197844697,1.00000000028074,0.535439103909359
13100.0000000301,275.472816673545,1.00000000027924,0.536282203903786
13200.0000000305,285.399995141205,1.00000000026748,0.537169432096032
13300.0000000309,295.431141001784,1.00000000027668,0.537663432739995
13400.0000000312,305.520478781398,1.00000000027869,0.538528424860005
13500.0000000316,315.668333993507,1.00000000026373,0.539200865667752
13600.0000000319,325.88840533968,1.00000000026386,0.539746703561225
13700.0000000323,336.128753006238,1.00000000028086,0.540359780395595
13800.0000000327,346.429765887178,1.0000000002681,0.540842340493339
13900.000000033,356.757659872974,1.00000000027126,0.541347987854428
14000.0000000334,367.097462807418,1.00000000025734,0.54180392876379
14100.0000000338,377.474465921823,1.00000000026325,0.541942644421071
14200.0000000341,387.838203994795,1.00000000026727,0.542680146897352
14300.0000000345,398.219226736013,1.00000000026242,0.54297821074766
14400.0000000349,408.59793986077,1.00000000026528,0.542915086701479
14500.0000000352,418.945257465103,1.00000000025473,0.543404275128351
14600.0000000356,429.298216764105,1.00000000025935,0.543383849898276
14700.0000000359,439.608008394138,1.00000000026043,0.543586667066369
14800.0000000363,449.892813400608,1.00000000026722,0.544136210277096
14900.0000000367,460.15051688942,1.00000000024698,0.54421926993533
15000.000000037,470.342418887533,1.00000000024705,0.543925004067815
15100.0000000374,480.50540991413,1.00000000024979,0.54383946697567
15200.0000000378,490.602133114423,1.00000000024467,0.544326200769563
15300.0000000381,500.637964691441,1.00000000024696,0.544491282856746
15400.0000000385,510.621560402769,1.00000000024623,0.544330537415105
15500.0000000389,520.511058537645,1.00000000024638,0.544333077994752
15600.0000000392,530.342450729532,1.00000000024753,0.543988613841581
15700.0000000396,540.088226095127,1.00000000024501,0.543975240007312
15800.0000000399,549.740639317825,1.00000000023752,0.544286501099756
15900.0000000403,559.319425594755,1.00000000024188,0.544085814896535
16000.0000000407,568.784667678569,1.00000000023792,0.544127491491791
16100.000000041,578.16405650332,1.00000000023881,0.543961080345507
16200.0000000414,587.441551132128,1.00000000022977,0.543659754928462
16300.0000000418,596.60231788264,1.00000000023416,0.543678465581847
16400.0000000418,605.669332588798,1.00000000023511,0.543255665697598
16500.0000000404,614.608212851933,1.00000000023169,0.543670201066348
16600.0000000389,623.439828396885,1.00000000022682,0.543299166132177
16700.0000000375,632.157604162886,1.00000000023162,0.543403989616618
16800.000000036,640.739648779923,1.0000000002216,0.54294915740941
16900.0000000346,649.212385885484,1.00000000022829,0.54270733132258
17000.0000000331,657.549247736955,1.00000000021705,0.542262717303724
17100.0000000317,665.757892997199,1.00000000022205,0.542420899302287
17200.0000000302,673.845445271099,1.00000000021299,0.542032416194483
17300.0000000287,681.782453101076,1.00000000022146,0.542068074824654
17400.0000000273,689.597422688923,1.00000000021305,0.541479328086102
17500.0000000258,697.26838687469,1.00000000021302,0.541369141248654
17600.0000000244,704.799187633679,1.00000000021745,0.54093292641234
17700.0000000229,712.198812270502,1.00000000021394,0.540570664782698
17800.0000000215,719.441053517418,1.00000000021519,0.540273222211228
17900.00000002,726.54943130817,1.00000000020679,0.540233117551855
18000.0000000186,733.511435875241,1.00000000021498,0.539890722690699
18100.0000000171,740.322023987594,1.00000000020866,0.53984398240493
18200.0000000156,746.995418524486,1.00000000020583,0.539128230269748
18300.0000000142,753.50777502951,1.00000000020734,0.538965383214282
18400.0000000127,759.879565614693,1.00000000020624,0.538490618389149
18500.0000000113,766.103050772707,1.00000000019397,0.538170225045075
18600.0000000098,772.168797410547,1.00000000019365,0.538114662285607
18700.0000000084,778.093634652439,1.00000000019956,0.537726820852375
18800.0000000069,783.858973598229,1.00000000018841,0.537871414632029
18900.0000000055,789.477962617504,1.00000000019041,0.537280492300999
19000.000000004,794.949906127205,1.00000000019222,0.536814205053225
19100.0000000026,800.261219191389,1.00000000019053,0.536274518105189
19200.0000000011,805.430232285998,1.00000000019116,0.535917541995823
19299.9999999996,810.442993310469,1.00000000018607,0.535715717753174
19399.9999999982,815.306981880991,1.00000000018747,0.535770522304672
19499.9999999967,820.027331750664,1.00000000019329,0.53564896498683
19599.9999999953,824.587962201339,1.0000000001824,0.535561662071256
19699.9999999938,829.008168354318,1.00000000018109,0.535009401369347
19799.9999999924,833.276672699438,1.00000000018046,0.534053971753552
19899.9999999909,837.396229978176,1.00000000017453,0.533610876779265
19999.9999999895,841.374482096062,1.00000000017655,0.532903223903257
20099.999999988,845.19672561239,1.00000000018009,0.533225192313335
20199.9999999865,848.881695767643,1.00000000017822,0.533786313340476
20299.9999999851,852.422099696084,1.00000000017839,0.533989720977476
20399.9999999836,855.818098216957,1.00000000017566,0.534360308277084
20499.9999999822,859.079545762117,1.0000000001699,0.533363253942897
20599.9999999807,862.193105488526,1.00000000016581,0.532238117410918
20699.9999999793,865.171791563747,1.00000000016978,0.530440991606453
20799.9999999778,868.010442824316,1.00000000017071,0.529107868788658
20899.9999999764,870.705212008312,1.00000000016503,0.529612698687052
20999.9999999749,873.268639996634,1.00000000016231,0.530628791581146
21099.9999999734,875.692172604148,1.00000000017003,0.532807675490308
21199.999999972,877.989648863011,1.00000000016886,0.534471180442169
21299.9999999705,880.162817931073,1.00000000016745,0.534815963924245
21399.9999999691,882.206365058388,1.00000000017232,0.533507636883101
21499.9999999676,884.130606175717,1.00000000016638,0.530226700325954
21599.9999999662,885.923177861619,1.00000000015701,0.526822328829681
21699.9999999647,887.587772214631,1.00000000014967,0.524108818887439
21799.9999999633,889.123674735808,1.00000000015466,0.523742983375333
21899.9999999618,890.5258037851,1.00000000015132,0.526623375771124
21999.9999999603,891.810599969066,1.00000000015267,0.530884324086472
22099.9999999589,892.980435042697,1.00000000015887,0.535426111636947
22199.9999999574,894.045449770763,1.00000000016277,0.538253288036211
22299.999999956,895.015388502118,1.00000000016373,0.538083417174404
22399.9999999545,895.881794740932,1.00000000016113,0.534400020736031
22499.9999999531,896.650461806288,1.00000000015319,0.527755075992574
22599.9999999516,897.307320822914,1.0000000001465,0.520660234403
22699.9999999502,897.844620383438,1.00000000013451,0.516117029641299
22799.9999999487,898.263045757469,1.00000000013612,0.51576645497277
22899.9999999473,898.559106741053,1.00000000014054,0.520881853464802
22999.9999999458,898.752637159378,1.00000000015096,0.528858039090838
23099.9999999443,898.855553809478,1.00000000016151,0.53718032599567
23199.9999999429,898.881482573004,1.00000000017231,0.542917047790403
23299.9999999414,898.845512853672,1.0000000001753,0.543857086316836
23399.99999994,898.742973391962,1.00000000016906,0.53988003014247
23499.9999999385,898.573862812925,1.00000000016313,0.530929827555532
23599.9999999371,898.322364462931,1.00000000014432,0.519134045052123
23699.9999999356,897.970547793884,1.00000000012573,0.508371040555329
23799.9999999342,897.51272353753,1.00000000011903,0.502352441172645
23899.9999999327,896.941457382055,1.00000000011954,0.504749569228302
23999.9999999312,896.271381129883,1.00000000012743,0.514685086195459
24099.9999999298,895.519740044802,1.0000000001442,0.527971581830242
24199.9999999283,894.70570127754,1.00000000015806,0.540144029607501
24299.9999999269,893.854114508946,1.00000000016994,0.547840472380295
24399.9999999254,892.973025225637,1.00000000018094,0.549764908634058
24499.999999924,892.066554477287,1.00000000017843,0.545000778695486
24599.9999999225,891.12586380468,1.00000000016238,0.533783881658808
24699.9999999211,890.13024457655,1.00000000014823,0.51773971793177
24799.9999999196,889.064246526311,1.00000000012207,0.500008128673455
24899.9999999181,887.906551405637,1.00000000010617,0.48721124871108
24999.9999999167,886.651183576771,1.00000000010298,0.484569062950012
25099.9999999152,885.30378297979,1.00000000010551,0.493749011534766
25199.9999999138,883.877856631993,1.00000000012751,0.511397872121337
25299.9999999123,882.40343899511,1.00000000015252,0.529997862932512
25399.9999999109,880.902170500043,1.00000000017398,0.544441017320351
25499.9999999094,879.394068847283,1.00000000019141,0.553457734521965
25599.999999908,877.891642880459,1.00000000019581,0.554791444336494
25699.9999999065,876.390512037953,1.00000000019753,0.549081858651864
25799.9999999051,874.885046126081,1.00000000018135,0.53653128912029
25899.9999999036,873.354548665426,1.00000000015041,0.516647001403466
25999.9999999021,871.775137563055,1.00000000012266,0.493818999341071
26099.9999999007,870.127605213773,1.00000000010044,0.473487203248743
26199.9999998992,868.395339108586,1.00000000008469,0.463513393317853
26299.9999998978,866.5823305775,1.00000000008401,0.46873770900366
26399.9999998963,864.700202979859,1.00000000010601,0.488018825391111
26499.9999998949,862.770629821795,1.00000000013777,0.51215446279098
26599.9999998934,860.821027987266,1.00000000017059,0.534086189567138
26699.999999892,858.871472809356,1.00000000019746,0.549207735308405
26799.9999998905,856.939968396136,1.00000000020374,0.557523232461398
26899.999999889,855.035551048001,1.00000000021799,0.558933855927822
26999.9999998876,853.154494147664,1.00000000020715,0.553418651309776
27099.9999998861,851.290137757632,1.00000000021229,0.541041964433222
27199.9999998847,849.422257951998,1.00000000017337,0.520009454664549
27299.9999998832,847.52935674782,1.00000000013858,0.494059618705982
27399.9999998818,845.590994868124,1.0000000001068,0.466955491184531
27499.9999998803,843.58797568358,1.00000000007792,0.447623809215444
27599.9999998789,841.518758809012,1.00000000007493,0.443385608270961
27699.9999998774,839.386335691112,1.00000000008961,0.456928821690092
27799.9999998759,837.208640119159,1.00000000011382,0.482866952258442
27899.9999998745,835.007646640466,1.00000000014746,0.512100437284093
27999.999999873,832.803429252913,1.00000000017014,0.534425588941999
28099.9999998716,830.616385218359,1.00000000021453,0.550465986796947
28199.9999998701,828.459483829192,1.00000000022342,0.557720834502347
28299.9999998687,826.337417615951,1.00000000022269,0.559697769454722
28399.9999998672,824.253076193789,1.00000000023706,0.556903956387955
28499.9999998658,822.195955631895,1.00000000020879,0.546075374651005
28599.9999998643,820.155253669249,1.00000000018997,0.530271769102521
28699.9999998629,818.112744781376,1.0000000001591,0.504413948801226
28799.9999998614,816.047763778709,1.00000000012863,0.474483472952507
