Time,AGPnorm,Energy,Entropy
0,0,1,-1.49760189053347e-17
99.9999999999986,4.563897576017e-05,1.00000000000116,0.00174136971506943
199.999999999993,0.00374633739112603,1.00000000000178,0.00270917236799955
300,0.00955349222225164,0.999999999999783,0.00480373128864272
400.000000000022,0.0130200903085612,1.00000000000225,0.00813927176086521
500.000000000045,0.015756128083799,1.00000000000034,0.0108534710440212
600.000000000068,0.0228775670462747,1.00000000000082,0.0151186031141282
700.000000000091,0.0284736728227915,1.00000000000196,0.0192011832819507
800.000000000113,0.0361894781855275,0.999999999999856,0.0236640070667
900.000000000136,0.0446489287708243,1.00000000000197,0.0290623114386296
1000.00000000016,0.051832539897454,1.00000000000066,0.0340366964082846
1100.0000000001,0.06186380405912,1.00000000000063,0.0400116572331975
1200,0.0720281242125527,1.000000000002,0.0461310769733247
1299.99999999991,0.0824468331590596,0.999999999999952,0.0524262438910607
1399.99999999982,0.0939473467704456,1.00000000000168,0.0595683647454498
1499.99999999973,0.105067224613705,1.00000000000096,0.0665432392036793
1599.99999999964,0.117011182695322,1.00000000000053,0.0743390345486379
1699.99999999955,0.129312335525168,1.00000000000195,0.0825729114338269
1799.99999999946,0.141422051398808,1.00000000000013,0.0909773732163549
1899.99999999937,0.154631458132614,1.00000000000147,0.100390406173047
1999.99999999928,0.167965216991029,1.00000000000115,0.110020178185802
2099.99999999919,0.180757298766673,1.0000000000004,0.120584528100099
2199.99999999909,0.193749697577221,1.00000000000199,0.132123626011448
2299.999999999,0.206689625318426,1.00000000000085,0.144321416987832
2399.99999999891,0.220142236827273,1.00000000000285,0.158396961502972
2499.99999999882,0.233122124789981,1.00000000000681,0.173904502506242
2599.99999999873,0.246219578824481,1.0000000000167,0.191202239809243
2699.99999999864,0.258955712200247,1.00000000003916,0.210542199149299
2799.99999999855,0.270681902958255,1.00000000007655,0.230408799306536
2899.99999999846,0.290814371332936,1.00000000012666,0.251238742919584
2999.99999999837,0.303276037328302,1.00000000019215,0.271768676276839
3099.99999999828,0.334429360620772,1.00000000027068,0.291725759096837
3199.99999999819,0.382334228883242,1.00000000034281,0.311844141876848
3299.99999999809,0.441688636923892,1.00000000042859,0.330830611129151
3399.999999998,0.564906835708892,1.00000000050502,0.349443340062488
3499.99999999791,0.717457051988177,1.00000000060726,0.367183607549835
3599.99999999782,0.95313534761053,1.00000000068798,0.383944076109128
3699.99999999773,1.29104302096857,1.00000000076691,0.400296308043532
3799.99999999764,1.71159798113692,1.00000000083749,0.415725919956142
3899.99999999755,2.294218910397,1.00000000091558,0.430185498662499
3999.99999999746,3.00602316543749,1.00000000097676,0.44400323446483
4099.99999999738,3.88604615997403,1.00000000102588,0.456773245635679
4199.99999999775,4.96752567243914,1.0000000010657,0.469046873744453
4299.99999999811,6.21917441527261,1.00000000107125,0.480328020382142
4399.99999999848,7.70143363088801,1.0000000012019,0.490561384307343
4499.99999999884,9.38887056557696,1.0000000012171,0.500517354646758
4599.9999999992,11.2928474042944,1.00000000124449,0.509559809489609
4699.99999999957,13.4348812665145,1.00000000125784,0.518118297159444
4799.99999999993,15.7836831188803,1.00000000123856,0.525791423677854
4900.00000000029,18.3655783853336,1.0000000012827,0.532985404078323
5000.00000000066,21.1551624156837,1.00000000134673,0.539571045629901
5100.00000000102,24.1515300651285,1.00000000129574,0.545708961831237
5200.00000000139,27.3517700503271,1.00000000134136,0.551337140860285
5300.00000000175,30.7290570694539,1.00000000129078,0.556544045462207
5400.00000000211,34.2899228657536,1.00000000136744,0.561118855117153
5500.00000000248,38.0006176237692,1.00000000130886,0.565665572557394
5600.00000000284,41.8619483136877,1.00000000131536,0.569278834736122
5700.00000000321,45.8539792785262,1.00000000133935,0.572969930699681
5800.00000000357,49.9501019931672,1.00000000128867,0.576292907188602
5900.00000000393,54.1559741992876,1.00000000129616,0.579222613740325
6000.0000000043,58.4289522566782,1.00000000126714,0.582123366528385
6100.00000000466,62.7739421772708,1.00000000125113,0.584193001911106
6200.00000000502,67.1696200121492,1.00000000127916,0.586307436011603
6300.00000000539,71.5845743125755,1.00000000122825,0.588317775729169
6400.00000000575,76.0318010485364,1.00000000125332,0.589499799439394
6500.00000000612,80.467698031549,1.00000000122095,0.591251983348358
6600.00000000648,84.8962465490348,1.00000000117652,0.592191318444012
6700.00000000684,89.30493717093,1.00000000118632,0.593452641473415
6800.00000000721,93.659041579998,1.00000000119683,0.594318206104963
6900.00000000757,97.9778651470245,1.00000000112405,0.594788753917649
7000.00000000793,102.224155993177,1.0000000011786,0.595708289907583
7100.0000000083,106.398795100773,1.00000000111725,0.595928286722962
7200.00000000866,110.499955485938,1.00000000113802,0.596031994920104
7300.00000000903,114.49419902493,1.00000000108532,0.596966000521729
7400.00000000939,118.40137555798,1.00000000107012,0.596541132957603
7500.00000000975,122.195050217612,1.00000000104715,0.59695720272221
7600.00000001012,125.87342138121,1.00000000106267,0.596668471862997
7700.00000001048,129.442937301647,1.00000000105076,0.596546152056085
7800.00000001084,132.872617507681,1.00000000104016,0.596651838266968
7900.00000001121,136.185606680548,1.00000000102434,0.595702386354076
8000.00000001157,139.361610104232,1.00000000098914,0.596237874746688
8100.00000001194,142.400652637486,1.00000000100674,0.595733424998817
8200.0000000123,145.309785992446,1.00000000095989,0.595062750150402
8300.00000001266,148.069946376723,1.00000000093581,0.595236036968763
8400.00000001303,150.695279963516,1.00000000094466,0.594544375122775
8500.00000001339,153.180352450707,1.00000000093209,0.593963335005667
8600.00000001376,155.517031016037,1.00000000092042,0.594075495504239
8700.00000001412,157.722363096104,1.0000000008733,0.593050128512918
8800.00000001448,159.774842672516,1.00000000086005,0.593246630998456
8900.00000001485,161.695147066261,1.00000000087119,0.592388350821545
9000.00000001521,163.474591113205,1.00000000086256,0.591209764033232
9100.00000001557,165.112864323,1.00000000086843,0.592275838367679
9200.00000001594,166.621813083474,1.00000000080265,0.590100263222117
9300.0000000163,167.990201686396,1.00000000077845,0.591961370703861
9400.00000001667,169.232128368485,1.0000000007882,0.589728859750704
9500.00000001703,170.345807255647,1.00000000078946,0.589648495113198
9600.00000001739,171.329580773446,1.00000000077567,0.590292813615393
9700.00000001776,172.196859964447,1.00000000074823,0.588576879550538
9800.00000001812,172.939999314027,1.00000000075453,0.589555540020965
9900.00000001848,173.571120776578,1.00000000075962,0.5894346177527
10000.0000000188,174.093082676065,1.00000000072718,0.587169145554517
10100.0000000192,174.502326173171,1.0000000007172,0.588911648602846
10200.0000000196,174.816126596282,1.00000000073055,0.588766117869734
10300.0000000199,175.027469217334,1.00000000070031,0.584472882986814
10400.0000000203,175.143799332881,1.00000000071087,0.588224278979828
10500.0000000207,175.17838193494,1.00000000074923,0.58837630364452
10600.000000021,175.123262650494,1.00000000070388,0.580624231699767
10700.0000000214,174.987189395936,1.00000000073267,0.586564080925936
10800.0000000218,174.781485403802,1.00000000074293,0.588316239204601
10900.0000000221,174.506272074041,1.00000000067295,0.576960762940177
11000.0000000225,174.157942846866,1.00000000070035,0.582015930752677
11100.0000000229,173.753230626413,1.00000000078634,0.588075947414698
11200.0000000232,173.300880373204,1.000000000693,0.577005884908569
11300.0000000236,172.78428980603,1.00000000067111,0.571033077739308
11400.0000000239,172.221205044107,1.00000000075769,0.586228119347793
11500.0000000243,171.627430754447,1.00000000073839,0.580058405887561
11600.0000000247,170.987927512004,1.00000000064736,0.566985780181995
11700.000000025,170.302453826509,1.0000000007216,0.571963694473949
11800.0000000254,169.588448527173,1.00000000079747,0.584613553100019
11900.0000000258,168.853755167775,1.00000000070816,0.574205535346818
12000.0000000261,168.085504820541,1.00000000063035,0.560502734629734
12100.0000000265,167.280517165988,1.00000000072511,0.569869623508469
12200.0000000269,166.463655122723,1.00000000084321,0.582902839297838
12300.0000000272,165.636027814354,1.00000000072334,0.568850589112696
12400.0000000276,164.785427947804,1.00000000068285,0.55684348162508
12500.0000000279,163.907130690149,1.00000000069553,0.559254093334308
12600.0000000283,163.01987690184,1.00000000083853,0.584754006578451
12700.0000000287,162.134404451409,1.00000000074667,0.565268078049159
12800.000000029,161.235619765945,1.00000000069333,0.556026204883349
12900.0000000294,160.317265149931,1.00000000062522,0.547814091390632
13000.0000000298,159.389748483393,1.00000000083418,0.576398041495604
13100.0000000301,158.467805526821,1.00000000084315,0.5714347450177
13200.0000000305,157.546912981924,1.00000000072638,0.553946775501026
13300.0000000309,156.615183159101,1.0000000006694,0.546558307475212
13400.0000000312,155.671952489785,1.00000000076141,0.550540391933245
13500.0000000316,154.732100711972,1.00000000092946,0.576927563913122
13600.0000000319,153.799704965808,1.00000000085971,0.56068559155981
13700.0000000323,152.871041745319,1.00000000073884,0.545575841142232
13800.0000000327,151.936540217417,1.00000000068896,0.545215257715813
13900.000000033,150.997576052358,1.00000000073715,0.550213380708281
14000.0000000334,150.064360606134,1.00000000085011,0.567629795441373
14100.0000000338,149.139401554095,1.00000000087242,0.561559621479704
14200.0000000341,148.220861437827,1.00000000075578,0.538524916161048
14300.0000000345,147.302483186692,1.00000000071359,0.543112894440912
14400.0000000349,146.384048067552,1.00000000074009,0.550531911349103
14500.0000000352,145.470670578684,1.00000000078649,0.552327036713977
14600.0000000356,144.564649493421,1.00000000085151,0.56100150858481
14700.0000000359,143.667298566588,1.00000000077107,0.544008903560075
14800.0000000363,142.775038547722,1.00000000074823,0.533395807569418
14900.0000000367,141.886532384747,1.00000000071481,0.546133539273726
15000.000000037,141.003098138708,1.00000000078408,0.552743494327151
15100.0000000374,140.125552785601,1.00000000077806,0.545895887057923
15200.0000000378,139.256007478748,1.00000000078663,0.548821071288545
15300.0000000381,138.394629360214,1.00000000078688,0.542761604554348
15400.0000000385,137.539091039119,1.00000000074938,0.530890340234959
15500.0000000389,136.690623761285,1.00000000074226,0.541343560687206
15600.0000000392,135.848308835046,1.00000000080669,0.555006925091577
15700.0000000396,135.013802028559,1.00000000074728,0.546256436565069
15800.0000000399,134.186603248878,1.00000000076331,0.537993931013755
15900.0000000403,133.366277568013,1.00000000081043,0.541348777664829
16000.0000000407,132.554106919773,1.00000000078571,0.538598612942228
16100.000000041,131.749212263205,1.00000000074197,0.533139317377406
16200.0000000414,130.952409228437,1.00000000075604,0.545575084136368
16300.0000000418,130.163685565453,1.00000000075659,0.553780327896485
16400.0000000418,129.382459239341,1.00000000077486,0.545016785390782
16500.0000000404,128.609272355023,1.00000000074481,0.535009328493243
16600.0000000389,127.843537548845,1.00000000075104,0.532664283867868
16700.0000000375,127.085543115106,1.00000000074727,0.540403322456821
16800.000000036,126.33590029454,1.0000000007743,0.542121566954882
16900.0000000346,125.594287599859,1.00000000074688,0.540302598698352
17000.0000000331,124.861428812828,1.00000000077567,0.550056675786018
17100.0000000317,124.13665252299,1.00000000075599,0.550711613724245
17200.0000000302,123.42016047635,1.00000000071378,0.540332021608419
17300.0000000287,122.71196094355,1.00000000074307,0.531180054844658
17400.0000000273,122.012024937636,1.00000000074347,0.531479189488236
17500.0000000258,121.320573108727,1.00000000075438,0.541366167853432
17600.0000000244,120.637047456142,1.00000000078217,0.548832891846626
17700.0000000229,119.961614320225,1.00000000072229,0.542439504148416
17800.0000000215,119.294427493047,1.0000000007976,0.548059198378033
17900.00000002,118.635630209504,1.0000000007481,0.550580732234877
18000.0000000186,117.985844368696,1.00000000069145,0.54264561716809
18100.0000000171,117.345085305452,1.00000000068498,0.531571643155932
18200.0000000156,116.713170130119,1.00000000071916,0.530571681049996
18300.0000000142,116.089845173324,1.00000000073776,0.534983311622223
18400.0000000127,115.474423716132,1.00000000077283,0.543388871579511
18500.0000000113,114.866317479508,1.00000000079251,0.552133645480769
18600.0000000098,114.265494134806,1.00000000075014,0.549336504482151
18700.0000000084,113.671936750851,1.00000000078632,0.547739354845418
18800.0000000069,113.085984044685,1.00000000076849,0.549785707471156
18900.0000000055,112.509386836778,1.00000000069392,0.539725385133688
19000.000000004,111.94360332435,1.00000000064767,0.529444602316014
19100.0000000026,111.387305606742,1.00000000070047,0.528057311175558
19200.0000000011,110.838631567641,1.00000000079304,0.535232447689182
19299.9999999996,110.297429555217,1.00000000072627,0.532175466877995
19399.9999999982,109.763644272693,1.00000000075516,0.540759833297201
19499.9999999967,109.235402624164,1.00000000079037,0.554120205523087
19599.9999999953,108.712332098587,1.00000000078727,0.555999762474626
19699.9999999938,108.195012001687,1.00000000078602,0.548915818171675
19799.9999999924,107.68456712379,1.00000000075938,0.544688462928768
19899.9999999909,107.183553012062,1.00000000067751,0.535488738198684
19999.9999999895,106.693923205502,1.00000000064802,0.533958021189226
20099.999999988,106.214337189282,1.00000000068714,0.527715441270134
20199.9999999865,105.742829070168,1.0000000007806,0.528429904367636
20299.9999999851,105.277646799723,1.00000000078786,0.529651280948397
20399.9999999836,104.818872683153,1.0000000007296,0.530303950601565
20499.9999999822,104.365879607001,1.00000000077298,0.536210503984213
20599.9999999807,103.915888429266,1.00000000083583,0.549393878930429
20699.9999999793,103.468154984169,1.0000000008126,0.559535236967354
20799.9999999778,103.024636705757,1.00000000078645,0.547031078857948
20899.9999999764,102.587376892415,1.00000000075926,0.540219257386159
20999.9999999749,102.158264183392,1.00000000073867,0.53680997498535
21099.9999999734,101.739307082523,1.000000000702,0.532376799937537
21199.999999972,101.330732997119,1.00000000070676,0.53318844393031
21299.9999999705,100.930418215049,1.00000000074595,0.530095105951575
21399.9999999691,100.537739684187,1.00000000076272,0.524684432437207
21499.9999999676,100.150808069007,1.00000000079513,0.527179016435539
21599.9999999662,99.7694534122726,1.0000000007485,0.52676375976551
21699.9999999647,99.3920403564169,1.00000000079199,0.534634216606974
21799.9999999633,99.0155422780695,1.00000000082778,0.540418744065083
21899.9999999618,98.6389032957287,1.00000000082847,0.550679604032327
21999.9999999603,98.2639313868383,1.00000000080594,0.556264784123487
22099.9999999589,97.8936588336872,1.00000000075994,0.543676009857058
22199.9999999574,97.5302315378998,1.00000000074013,0.535677547537602
22299.999999956,97.1743872579697,1.00000000073334,0.537934367929131
22399.9999999545,96.8275319763916,1.00000000072518,0.538777439681921
22499.9999999531,96.4896035405324,1.000000000739,0.538453852593089
22599.9999999516,96.1595407685914,1.00000000072865,0.536435567404855
22699.9999999502,95.8369907592157,1.00000000073979,0.529849930223727
22799.9999999487,95.520664744347,1.00000000075215,0.529089673598001
22899.9999999473,95.2097707468356,1.00000000075363,0.529577639873361
22999.9999999458,94.9029276285165,1.00000000075283,0.532081640032591
23099.9999999443,94.5981867159994,1.00000000081705,0.538809637874867
23199.9999999429,94.2934252316228,1.00000000082438,0.540831000176885
23299.9999999414,93.9871566340513,1.00000000086193,0.546958868707992
23399.99999994,93.6806269258291,1.00000000079831,0.554184238290662
23499.9999999385,93.3772177753792,1.00000000075773,0.553706424280914
23599.9999999371,93.0792414726568,1.00000000073408,0.544404949063551
23699.9999999356,92.7885968465635,1.00000000071071,0.540315146856954
23799.9999999342,92.5052552519357,1.0000000007539,0.545294005930364
23899.9999999327,92.2291139548364,1.00000000074168,0.547261538911097
23999.9999999312,91.9613698879355,1.00000000073407,0.5434982467851
24099.9999999298,91.7011943101736,1.00000000073938,0.542828119901549
24199.9999999283,91.4473209069055,1.00000000075776,0.541332814917356
24299.9999999269,91.1986255967592,1.00000000073638,0.536060074648472
24399.9999999254,90.9557392013229,1.00000000073361,0.535594542571307
24499.999999924,90.7174785259807,1.00000000076709,0.536432029427361
24599.9999999225,90.4826473085919,1.00000000074452,0.539800931321206
24699.9999999211,90.2497442166929,1.00000000076924,0.546121468042667
24799.9999999196,90.0154956798193,1.00000000082096,0.546621348630794
24899.9999999181,89.7785895239217,1.00000000085403,0.54790766148306
24999.9999999167,89.5397719090546,1.00000000082156,0.555038678002552
25099.9999999152,89.3017219733306,1.00000000074715,0.560066550091684
25199.9999999138,89.0678015638573,1.0000000007366,0.555409929412084
25299.9999999123,88.839433056201,1.00000000072683,0.552124374936731
25399.9999999109,88.6168822345889,1.00000000075611,0.550243130580214
25499.9999999094,88.4006688713038,1.00000000074237,0.550414280431397
25599.999999908,88.1903603546768,1.00000000072922,0.55230499631557
25699.9999999065,87.9873141105237,1.00000000073616,0.549608121636479
25799.9999999051,87.7912666854656,1.00000000072323,0.54753702483236
25899.9999999036,87.6006375204261,1.00000000076918,0.548183203672899
25999.9999999021,87.413841856639,1.00000000078283,0.54726633190079
26099.9999999007,87.2306896592975,1.00000000075033,0.540289978761847
26199.9999998992,87.0532036094648,1.00000000071086,0.540728795207061
26299.9999998978,86.8802219566819,1.00000000075666,0.542987926716909
26399.9999998963,86.7093921292678,1.00000000077925,0.548865823631224
26499.9999998949,86.5393524979997,1.00000000079102,0.554120222954124
26599.9999998934,86.3677865135909,1.00000000085049,0.55273697159392
26699.999999892,86.1936096122669,1.00000000084497,0.551136547828925
26799.9999998905,86.0167158581938,1.00000000081994,0.553960157894211
26899.999999889,85.8385329063216,1.00000000082377,0.556872744263884
26999.9999998876,85.6610507135264,1.0000000007956,0.561837953208349
27099.9999998861,85.4854827489313,1.00000000075864,0.56441459522805
27199.9999998847,85.3137376230696,1.00000000077088,0.561731905475216
27299.9999998832,85.1457520476943,1.00000000077113,0.559390140855839
27399.9999998818,84.9820123321795,1.0000000007698,0.555518275098815
27499.9999998803,84.8235190507665,1.00000000074425,0.554270913505433
27599.9999998789,84.6701329042959,1.00000000073675,0.555305870741166
27699.9999998774,84.5227292138879,1.00000000074981,0.553647242909072
27799.9999998759,84.3809787920241,1.00000000074587,0.552637124682943
27899.9999998745,84.2434437870792,1.00000000078182,0.551618838540252
27999.999999873,84.1099631582241,1.00000000076343,0.549387935919495
28099.9999998716,83.9791856032408,1.00000000076929,0.54709917950498
28199.9999998701,83.85237639339,1.00000000071845,0.545097388326952
28299.9999998687,83.7292578519969,1.00000000073643,0.550535608439018
28399.9999998672,83.6077969829145,1.00000000077058,0.554936136660426
28499.9999998658,83.4858573156278,1.00000000079454,0.561116663030838
28599.9999998643,83.3622880592427,1.00000000079371,0.565629108804143
28699.9999998629,83.2377451935901,1.00000000080134,0.564078540098069
28799.9999998614,83.1123009361344,1.00000000079015,0.558674415719371
28899.9999998599,82.9851294961559,1.0000000008075,0.560099563676372
28999.9999998585,82.8566929704655,1.00000000078857,0.561544603368862
