Time,AGPnorm,Energy,Entropy
0,0,1,-7.53491676933049e-17
99.9999999999986,0.000779042581458293,1.00000000000102,0.00273743696739184
199.999999999993,0.00525351198733043,1.00000000000174,0.00814324044266
300,0.0107107284401357,1.00000000000109,0.0151663502118597
400.000000000022,0.0167614244567555,1.00000000000022,0.0238128477482456
500.000000000045,0.0236111105272266,1.00000000000021,0.0342830615912446
600.000000000068,0.0329212858021696,1.00000000000146,0.0463913834670056
700.000000000091,0.0423865871023571,1.00000000000149,0.0598113409586578
800.000000000113,0.0529128727614123,1.00000000000088,0.074468224887621
900.000000000136,0.06375060697049,1.00000000000005,0.0908983481297181
1000.00000000016,0.0757261905783231,1.00000000000073,0.109207370310878
1100.0000000001,0.0880047951864522,1.00000000000176,0.130047172243589
1200,0.0996619651608684,1.00000000000232,0.153496497063885
1299.99999999991,0.112212183319492,1.00000000000593,0.181040372478614
1399.99999999982,0.122983286289417,1.00000000002152,0.213536467626347
1499.99999999973,0.135059201419118,1.00000000006801,0.250955631607188
1599.99999999964,0.158746414650201,1.00000000015424,0.290402812974
1699.99999999955,0.208385602033884,1.00000000027504,0.328835588318459
1799.99999999946,0.299400972722737,1.00000000043684,0.364175246757331
1899.99999999937,0.486922688726047,1.00000000052784,0.395969836993125
1999.99999999928,0.85801774901644,1.00000000069062,0.423851025385084
2099.99999999919,1.47908204516951,1.00000000080679,0.448256777207467
2199.99999999909,2.39864934697348,1.00000000088815,0.469485766003047
2299.999999999,3.67646433789889,1.00000000094945,0.487688437657871
2399.99999999891,5.37021210961614,1.00000000100926,0.503256177161525
2499.99999999882,7.50929936239643,1.000000001077,0.516561026805686
2599.99999999873,10.0932017214923,1.00000000111274,0.527591947934541
2699.99999999864,13.111567312533,1.00000000115681,0.536790252608555
2799.99999999855,16.5311915550787,1.000000001149,0.544507158781845
2899.99999999846,20.3095804660859,1.00000000110369,0.550875163063249
2999.99999999837,24.4067459835683,1.0000000011803,0.555553750742294
3099.99999999828,28.7767522374379,1.00000000114447,0.559163349304519
3199.99999999819,33.3502354916351,1.00000000116113,0.561940854417039
3299.99999999809,38.0489636884036,1.00000000110986,0.564383821396796
3399.999999998,42.8226980068972,1.00000000107118,0.565564918170268
3499.99999999791,47.6339224456836,1.00000000105152,0.565749901425103
3599.99999999782,52.4254803397583,1.00000000106541,0.565946494877168
3699.99999999773,57.1300363445709,1.00000000099985,0.565569943461708
3799.99999999764,61.7020145101393,1.00000000099517,0.565002683740282
3899.99999999755,66.1168633207403,1.00000000096333,0.564726303016315
3999.99999999746,70.3467127344594,1.00000000094009,0.56289844575111
4099.99999999738,74.358231602759,1.00000000088843,0.560542053368355
4199.99999999775,78.1156320836786,1.00000000091243,0.560221876533112
4299.99999999811,81.6061449228711,1.00000000090922,0.558273692291413
4399.99999999848,84.8359275683872,1.00000000080787,0.555836579181738
4499.99999999884,87.7911028196587,1.00000000085708,0.554698112302254
4599.9999999992,90.4602888705767,1.00000000079249,0.552723452557754
4699.99999999957,92.8361181900148,1.00000000077895,0.550417246492357
4799.99999999993,94.9298190779074,1.00000000073849,0.550054357320143
4900.00000000029,96.7559482922701,1.00000000068896,0.549404406168552
5000.00000000066,98.3113323210466,1.00000000069521,0.541675027179248
5100.00000000102,99.6005266143089,1.0000000006974,0.547368830326474
5200.00000000139,100.648394604536,1.00000000066656,0.547916249141762
5300.00000000175,101.457710379757,1.00000000061577,0.534420126291039
5400.00000000211,102.030244543472,1.00000000064574,0.543246993389495
5500.00000000248,102.418764515474,1.0000000007214,0.555840141168115
5600.00000000284,102.625052718808,1.00000000061546,0.531592319539876
5700.00000000321,102.611392100781,1.00000000054663,0.523445809401286
5800.00000000357,102.441629465116,1.00000000070406,0.558048768445057
5900.00000000393,102.190250384559,1.0000000006952,0.55440258688686
6000.0000000043,101.803919211487,1.00000000048954,0.507082505912985
6100.00000000466,101.238139513937,1.00000000049156,0.514363350142587
6200.00000000502,100.592157461791,1.00000000078688,0.564933233518326
6300.00000000539,99.9440466561395,1.0000000007623,0.558587648720296
6400.00000000575,99.2275833799244,1.00000000047784,0.495156180219705
6500.00000000612,98.3714457355865,1.00000000041624,0.479425524835218
6600.00000000648,97.4448648808552,1.00000000071563,0.548145302441145
6700.00000000684,96.5527037551495,1.00000000089893,0.574755224896817
6800.00000000721,95.6872970818915,1.00000000068512,0.530400971043762
6900.00000000757,94.7581014755272,1.00000000038353,0.451667171355419
7000.00000000793,93.7340694832942,1.00000000044101,0.463193519875694
7100.0000000083,92.6901052587107,1.00000000078491,0.546561162386297
7200.00000000866,91.7011125691812,1.00000000095176,0.572802897235334
7300.00000000903,90.7639852177577,1.00000000077215,0.539720592795047
7400.00000000939,89.8122204309934,1.00000000046736,0.452469508148232
7500.00000000975,88.8001528004813,1.00000000034344,0.415717300333884
7600.00000001012,87.7539830387071,1.00000000057013,0.480722515300659
7700.00000001048,86.7300209765462,1.00000000087668,0.548094629596964
7800.00000001084,85.7599611396523,1.00000000090695,0.56186695409026
7900.00000001121,84.8334975269719,1.00000000077575,0.531159516914163
8000.00000001157,83.9103107353493,1.00000000052191,0.456551448634677
8100.00000001194,82.9635885300321,1.00000000037501,0.406308078661663
8200.0000000123,82.0010486699916,1.00000000047005,0.432543571680469
8300.00000001266,81.045409190776,1.00000000073935,0.497882429286777
8400.00000001303,80.1159257774546,1.00000000086634,0.540358127726232
8500.00000001339,79.2227121488261,1.00000000084724,0.54734184828892
8600.00000001376,78.3599653469063,1.00000000076055,0.522342952547371
8700.00000001412,77.5102813317948,1.00000000057328,0.472915302027504
8800.00000001448,76.6634433279108,1.00000000048428,0.429728075005636
8900.00000001485,75.8231313838164,1.00000000047377,0.423347075040661
9000.00000001521,74.9938898259742,1.00000000054416,0.455697353055607
9100.00000001557,74.1792546616013,1.00000000067159,0.493167892319245
9200.00000001594,73.3812449556345,1.00000000079471,0.519950222110501
9300.0000000163,72.6008869131844,1.00000000082593,0.531234959382197
9400.00000001667,71.8387801144504,1.00000000082167,0.536569709438854
9500.00000001703,71.0934120248669,1.00000000070808,0.508881992345187
9600.00000001739,70.3633417410693,1.00000000048808,0.460520860076918
9700.00000001776,69.6516659025792,1.00000000046615,0.439954971598458
9800.00000001812,68.962062353168,1.00000000058927,0.444955231929112
9900.00000001848,68.2927185573253,1.00000000060017,0.470673471956898
10000.0000000188,67.6389541525705,1.00000000065613,0.486474450744716
10100.0000000192,67.001162260135,1.00000000065818,0.495272391113975
10200.0000000196,66.3769075564413,1.00000000062734,0.503525385059002
10300.0000000199,65.7615007706354,1.00000000082164,0.522003092650539
10400.0000000203,65.1501795834749,1.0000000009126,0.538558815725364
10500.0000000207,64.5453505320683,1.00000000081825,0.533867064034399
10600.000000021,63.9548629857308,1.0000000005662,0.492654036379173
10700.0000000214,63.3890141731652,1.0000000004399,0.452362298741841
10800.0000000218,62.8532418643424,1.00000000046782,0.439267021190453
10900.0000000221,62.3410919942099,1.00000000061844,0.454428144896235
11000.0000000225,61.843787066605,1.00000000069073,0.474068581865077
11100.0000000229,61.3558347308045,1.00000000073053,0.497482746638728
11200.0000000232,60.8786081852826,1.00000000058957,0.495781079480411
11300.0000000236,60.417270508619,1.00000000055983,0.487639872898867
11400.0000000239,59.9722501915563,1.00000000057546,0.492374130591522
11500.0000000243,59.5352682068567,1.00000000068205,0.508727888824143
11600.0000000247,59.0949975514645,1.00000000081861,0.527364938580813
11700.000000025,58.6470307607611,1.0000000008558,0.539909632436121
11800.0000000254,58.1968496100408,1.00000000078514,0.535158512588651
11900.0000000258,57.7562104145033,1.00000000065962,0.509557150924053
12000.0000000261,57.3380153806251,1.00000000051403,0.473571021519018
12100.0000000265,56.9518579239651,1.00000000048886,0.454363483119859
12200.0000000269,56.5966555747114,1.00000000050328,0.452652013023142
12300.0000000272,56.2622514598518,1.00000000064814,0.466022664701431
12400.0000000276,55.9365052773197,1.00000000072362,0.481961754741121
12500.0000000279,55.6143176302119,1.00000000072366,0.490359721979389
12600.0000000283,55.2961010384028,1.0000000006979,0.501415656445096
12700.0000000287,54.9844956104061,1.00000000063891,0.508391233924217
12800.000000029,54.681315923967,1.00000000064557,0.511768528187712
12900.0000000294,54.3870545391859,1.00000000060771,0.518034062849302
13000.0000000298,54.0983776790375,1.00000000062014,0.524446550998812
13100.0000000301,53.8117752481512,1.00000000066301,0.523659537273616
13200.0000000305,53.5228078862345,1.00000000071986,0.521649057512219
13300.0000000309,53.2287892802742,1.00000000078865,0.530600885375639
13400.0000000312,52.9266964392658,1.00000000083582,0.541267613399156
13500.0000000316,52.6211102180237,1.00000000073277,0.542627019299841
13600.0000000319,52.3245669191695,1.00000000062898,0.522296204179104
13700.0000000323,52.0506262964319,1.00000000052353,0.495250200342501
13800.0000000327,51.8058961096588,1.00000000051038,0.471966262242612
13900.000000033,51.5889887786764,1.00000000055761,0.472833818700407
14000.0000000334,51.3919292023328,1.00000000064179,0.481021917937145
14100.0000000338,51.2071064597995,1.00000000062144,0.480056829127414
14200.0000000341,51.0293097376895,1.00000000064108,0.487963782048801
14300.0000000345,50.8565521824923,1.00000000065261,0.497247040911273
14400.0000000349,50.6928416275002,1.00000000058682,0.496710478465839
14500.0000000352,50.5426613462429,1.00000000059942,0.498938468918297
14600.0000000356,50.3989919073634,1.00000000070031,0.51303264049995
14700.0000000359,50.2494568092994,1.00000000074696,0.529202127448947
14800.0000000363,50.0857468695069,1.00000000075955,0.541571493903431
14900.0000000367,49.9087559323482,1.00000000071772,0.546282131306258
15000.000000037,49.7252734534447,1.00000000065892,0.548214342122691
15100.0000000374,49.5422607076627,1.00000000061504,0.538811075276205
15200.0000000378,49.3658140087333,1.00000000052669,0.526714341547355
15300.0000000381,49.196380481574,1.00000000060444,0.520397378740733
15400.0000000385,49.0277659190068,1.00000000065595,0.519392278231654
15500.0000000389,48.8536034325975,1.00000000075533,0.530851927438448
15600.0000000392,48.6699724982351,1.00000000079931,0.544899823371467
15700.0000000396,48.477822688708,1.00000000081751,0.552369197333602
15800.0000000399,48.285512476905,1.00000000072625,0.545606364747905
15900.0000000403,48.1052962794883,1.00000000057108,0.528461667331449
16000.0000000407,47.9470981734411,1.00000000051494,0.507342095009723
16100.000000041,47.8157926295518,1.00000000052838,0.493404076821452
16200.0000000414,47.7101296313925,1.00000000055765,0.483882309025169
16300.0000000418,47.6242330194702,1.00000000062207,0.485071215174097
16400.0000000418,47.5490345605621,1.00000000068259,0.490754372337994
16500.0000000404,47.4767779274002,1.00000000067946,0.493302920574553
16600.0000000389,47.407998632633,1.00000000065628,0.493559539447045
16700.0000000375,47.3446672258413,1.00000000061869,0.496965835668609
16800.000000036,47.2873734423557,1.00000000066301,0.507901175916633
16900.0000000346,47.2337556696837,1.00000000068399,0.522487283255619
17000.0000000331,47.1829935210734,1.00000000064417,0.532514414934998
17100.0000000317,47.1385315180095,1.00000000062155,0.535362855166512
17200.0000000302,47.0995131274153,1.00000000062494,0.539678722567795
17300.0000000287,47.0626414968437,1.0000000006667,0.54411832567606
17400.0000000273,47.0204028642633,1.00000000067527,0.543538109940799
17500.0000000258,46.9652249526946,1.00000000076982,0.549486983421157
17600.0000000244,46.8930157638615,1.00000000076673,0.551826062737247
17700.0000000229,46.8026569652341,1.00000000077916,0.547322718347847
17800.0000000215,46.698045160613,1.00000000073635,0.551462792934571
17900.00000002,46.5851618818162,1.00000000071226,0.56620400622159
18000.0000000186,46.4689546593583,1.00000000068148,0.569383317578452
18100.0000000171,46.3535462319264,1.00000000056194,0.56004230846678
18200.0000000156,46.2423442303071,1.00000000059603,0.55713657558376
18300.0000000142,46.1372914879899,1.00000000060413,0.554091130875308
18400.0000000127,46.0364820960842,1.0000000006284,0.545907187259155
18500.0000000113,45.9369581686173,1.00000000069974,0.545467078656797
18600.0000000098,45.8340768658437,1.00000000073667,0.550747848307249
18700.0000000084,45.7249712732918,1.00000000077883,0.561711602363152
18800.0000000069,45.6086525780922,1.00000000081004,0.566767900704681
18900.0000000055,45.4878175601553,1.0000000007533,0.567515533799849
19000.000000004,45.3706125842914,1.00000000063312,0.5588973037068
19100.0000000026,45.2665279929013,1.00000000059355,0.542980259453666
19200.0000000011,45.1822466921839,1.00000000051447,0.532067172578923
19299.9999999996,45.1214486452456,1.00000000055114,0.519283248974097
19399.9999999982,45.0834445346135,1.0000000005515,0.508527138573806
19499.9999999967,45.0621551991652,1.00000000065248,0.502752934468891
19599.9999999953,45.0497673589966,1.00000000066581,0.508832737821854
19699.9999999938,45.0440746766985,1.000000000652,0.511862145116262
19799.9999999924,45.0446389375096,1.00000000063121,0.50698255021785
19899.9999999909,45.0500298006861,1.00000000069523,0.504068139683117
19999.9999999895,45.0575959319632,1.00000000066188,0.505987428663221
20099.999999988,45.0699408800982,1.00000000064167,0.507307663326704
20199.9999999865,45.0900378462965,1.00000000063057,0.503764560197985
20299.9999999851,45.119151984966,1.00000000060659,0.507848086447887
20399.9999999836,45.1521067747152,1.00000000065719,0.525830569052788
20499.9999999822,45.1803792747025,1.0000000007216,0.54609005879437
20599.9999999807,45.1987484244197,1.00000000072073,0.553533156821002
20699.9999999793,45.206941311161,1.00000000072362,0.562089139816841
20799.9999999778,45.2089486514299,1.00000000068317,0.567888764485876
20899.9999999764,45.2097393816394,1.00000000065019,0.566737734885404
20999.9999999749,45.2106005465394,1.0000000006708,0.565358266462247
21099.9999999734,45.2091854956581,1.00000000069118,0.569424718385214
21199.999999972,45.2040661928223,1.0000000006887,0.580119484045694
21299.9999999705,45.1956333121761,1.00000000067072,0.585343320910452
21399.9999999691,45.1840678990592,1.0000000006679,0.584315799047451
21499.9999999676,45.1654633409588,1.00000000067447,0.583024714243892
21599.9999999662,45.137591155134,1.00000000070404,0.580504686667713
21699.9999999647,45.1010004507702,1.00000000070318,0.577782110495164
21799.9999999633,45.0563896715596,1.00000000069677,0.570105169918868
21899.9999999618,45.0032416760075,1.00000000070628,0.556025421825886
21999.9999999603,44.9416593758995,1.00000000069427,0.553944645651067
22099.9999999589,44.8705746636118,1.00000000076273,0.569906454671374
22199.9999999574,44.7900554989814,1.00000000076205,0.581649671311368
22299.999999956,44.7018099331698,1.00000000072371,0.583654738282472
22399.9999999545,44.6101355687227,1.00000000064471,0.581793997069247
22499.9999999531,44.5194004151217,1.00000000060485,0.580371544504954
22599.9999999516,44.431898666621,1.00000000059609,0.581736191188499
22699.9999999502,44.3486418546799,1.00000000059659,0.584148021632818
22799.9999999487,44.2691475236584,1.00000000060009,0.585693377050132
22899.9999999473,44.1923614803708,1.00000000064216,0.582188060935257
22999.9999999458,44.1181961212893,1.0000000006494,0.580077334108289
23099.9999999443,44.0448634827336,1.0000000006847,0.582290190955148
23199.9999999429,43.9713213616844,1.0000000007235,0.579536724061379
23299.9999999414,43.895235571734,1.00000000076424,0.577181813000163
23399.99999994,43.8157671889756,1.00000000075064,0.573556681419129
23499.9999999385,43.7324983474465,1.0000000007942,0.571595760437715
23599.9999999371,43.6460471602141,1.00000000072674,0.567805352985243
23699.9999999356,43.5605637028424,1.00000000070063,0.564396886404994
23799.9999999342,43.4819584179485,1.00000000062202,0.560599017755396
23899.9999999327,43.41592027033,1.00000000058239,0.556955244641476
23999.9999999312,43.3667874328854,1.00000000053624,0.546033653142683
24099.9999999298,43.336057284754,1.00000000056073,0.539172895969794
24199.9999999283,43.3230988088316,1.00000000057476,0.536344300625802
24299.9999999269,43.3259695053513,1.0000000006181,0.527828815104867
24399.9999999254,43.3403836364525,1.00000000065835,0.52455120254694
24499.999999924,43.3637757981877,1.00000000067192,0.524558496982868
24599.9999999225,43.3941468140687,1.00000000066713,0.521597016572074
24699.9999999211,43.4302441014511,1.00000000067555,0.520074878430305
24799.9999999196,43.4698013694281,1.00000000069728,0.521308926066635
24899.9999999181,43.5125136395091,1.00000000066995,0.52180588694581
24999.9999999167,43.5610472656077,1.00000000062018,0.520366628544357
25099.9999999152,43.6166432456568,1.00000000061445,0.514760659736545
25199.9999999138,43.6787097512984,1.00000000061604,0.512711223227755
25299.9999999123,43.7443193463736,1.00000000066425,0.517841138607301
25399.9999999109,43.8095635688525,1.00000000067731,0.527742999427825
25499.9999999094,43.8703129755522,1.00000000070938,0.538353481209476
25599.999999908,43.9258126471593,1.0000000007378,0.550932239592438
25699.9999999065,43.976913687047,1.00000000068859,0.561092190248126
25799.9999999051,44.0237554904404,1.00000000069892,0.566212697782186
25899.9999999036,44.0667721603802,1.00000000072148,0.570863353841877
25999.9999999021,44.105590283527,1.00000000070389,0.578596008047677
26099.9999999007,44.1397048822132,1.00000000067722,0.578570178292826
26199.9999998992,44.1694708383063,1.00000000067683,0.582520837879062
26299.9999998978,44.1957271135965,1.00000000064679,0.582360188475093
26399.9999998963,44.2182371636178,1.00000000069684,0.584660313819579
26499.9999998949,44.2362346482263,1.00000000069694,0.586006897213359
26599.9999998934,44.2496032373982,1.00000000068719,0.582042780079758
26699.999999892,44.2579203782874,1.00000000066807,0.582596734504871
26799.9999998905,44.2615429692392,1.00000000071405,0.581251687678002
26899.999999889,44.2616606711847,1.00000000067023,0.582419614661189
26999.9999998876,44.2599423449425,1.00000000066032,0.585987285329652
27099.9999998861,44.2575421721091,1.00000000070064,0.581052873085148
27199.9999998847,44.2541529607751,1.00000000067418,0.582393851511772
27299.9999998832,44.2478916782173,1.00000000070779,0.584365669183039
27399.9999998818,44.2375702337135,1.00000000069343,0.58393354576149
27499.9999998803,44.2230163397453,1.00000000069104,0.583580572281272
27599.9999998789,44.2059189509785,1.00000000064116,0.578512078833026
27699.9999998774,44.1855464769742,1.00000000070383,0.575481785802826
27799.9999998759,44.1614750230348,1.00000000069484,0.57631907049381
27899.9999998745,44.1339551543283,1.00000000068646,0.572880062234243
27999.999999873,44.1023626728905,1.00000000072616,0.578916257135708
28099.9999998716,44.0656740797686,1.00000000070046,0.58155087439835
28199.9999998701,44.0248732337944,1.00000000068989,0.58511519541408
28299.9999998687,43.9810599217365,1.00000000070823,0.590568488032859
28399.9999998672,43.9353386444252,1.00000000061804,0.59045736901794
28499.9999998658,43.8903182131464,1.00000000064749,0.586596557332767
28599.9999998643,43.845162267613,1.0000000006563,0.589467399327606
28699.9999998629,43.7993359586205,1.00000000066798,0.590455955574218
28799.9999998614,43.7522918079895,1.00000000062417,0.583700650449587
28899.9999998599,43.705089171435,1.00000000066181,0.576666054937527
28999.9999998585,43.6561172919338,1.00000000068651,0.575399294234895
