Time,AGPnorm,Energy,Entropy
0,0,1,-7.27406632544841e-17
99.9999999999986,0.000338381442301627,0.999999999998437,0.00136730082390237
199.999999999993,0.00238552161809532,0.99999999999992,0.00414381238479768
300,0.0049369439340274,1.000000000002,0.0078431681849917
400.000000000022,0.00765987643187162,1.00000000000117,0.0125107059460076
500.000000000045,0.0111226605852856,0.999999999998734,0.0181125901131768
600.000000000068,0.0155471734514514,0.999999999998873,0.0244864823383387
700.000000000091,0.0205329693563292,1.00000000000133,0.0315343615004161
800.000000000113,0.0258563335303122,1.000000000002,0.0392340681877366
900.000000000136,0.0316356888358137,0.999999999999737,0.047625480506762
1000.00000000016,0.0383536486427656,0.999999999998332,0.0566110996855373
1100.0000000001,0.0453538502470372,1.00000000000017,0.0662856032742792
1200,0.0523580824254171,1.00000000000219,0.0767313144057305
1299.99999999991,0.0597077574015577,1.00000000000089,0.0879675560653621
1399.99999999982,0.0678876236133603,0.999999999998646,0.0999514648409589
1499.99999999973,0.0758306546222498,0.999999999999116,0.112839785610232
1599.99999999964,0.0840106365926332,1.00000000000177,0.126897767042113
1699.99999999955,0.0920398593766242,1.0000000000021,0.14234098467268
1799.99999999946,0.100374336560398,1.00000000000079,0.159252065786031
1899.99999999937,0.108660163599532,1.00000000000157,0.177966278395971
1999.99999999928,0.117377054497792,1.00000000000798,0.198827076256712
2099.99999999919,0.127648481499885,1.00000000001921,0.222059313496537
2199.99999999909,0.139315873598494,1.00000000003337,0.247029159310954
2299.999999999,0.15522298983083,1.00000000005623,0.273077233783081
2399.99999999891,0.185769968602353,1.00000000009088,0.299136773349911
2499.99999999882,0.249487525705015,1.0000000001356,0.324545461397497
2599.99999999873,0.362976081987886,1.00000000016696,0.34879464785823
2699.99999999864,0.555592124328367,1.00000000021381,0.371081831285596
2799.99999999855,0.870633929443377,1.00000000026382,0.391344300703337
2899.99999999846,1.35634682279474,1.00000000032641,0.409693036224229
2999.99999999837,2.05700060581196,1.00000000034502,0.426724534596185
3099.99999999828,3.02543525727057,1.00000000037632,0.441869074849861
3199.99999999819,4.31595314987706,1.00000000039937,0.455355166111914
3299.99999999809,5.96314978357108,1.00000000042934,0.467234403464537
3399.999999998,7.99430955945271,1.00000000045671,0.478149061621188
3499.99999999791,10.45266366565,1.00000000046775,0.48784667522916
3599.99999999782,13.3715355952084,1.00000000051738,0.496126328080715
3699.99999999773,16.7470760673181,1.00000000052177,0.503325522361963
3799.99999999764,20.5558085352045,1.0000000005295,0.50996979627611
3899.99999999755,24.8057611170144,1.00000000054266,0.51582198749565
3999.99999999746,29.509916263007,1.00000000050868,0.521000635947547
4099.99999999738,34.6400458342324,1.00000000051377,0.524736434008292
4199.99999999775,40.1311008862813,1.0000000005339,0.528153699185106
4299.99999999811,45.9475219590642,1.00000000055152,0.531697034686061
4399.99999999848,52.092785537131,1.00000000055506,0.533754379504197
4499.99999999884,58.5374371425039,1.00000000053793,0.535318696852074
4599.9999999992,65.2063368242601,1.00000000054832,0.536984144192182
4699.99999999957,72.0305366274936,1.00000000053634,0.538276620342814
4799.99999999993,79.0045973150675,1.00000000053749,0.538961310050311
4900.00000000029,86.1101933244331,1.00000000051358,0.539246942215181
5000.00000000066,93.2891783915125,1.00000000050134,0.539457628324272
5100.00000000102,100.466377372004,1.00000000053124,0.539514481828564
5200.00000000139,107.61537249247,1.00000000049459,0.538970962328898
5300.00000000175,114.734862443492,1.00000000047527,0.539073945158589
5400.00000000211,121.791840106955,1.00000000047748,0.538305230484331
5500.00000000248,128.727192659548,1.0000000005039,0.536626338711339
5600.00000000284,135.502520883153,1.00000000047612,0.536329874776145
5700.00000000321,142.116592001127,1.00000000043549,0.535807345354051
5800.00000000357,148.563370898205,1.00000000044424,0.533587711485687
5900.00000000393,154.806312562989,1.00000000044063,0.531960106548173
6000.0000000043,160.806799783538,1.00000000042853,0.531520464548418
6100.00000000466,166.554782377968,1.00000000042015,0.530789321115579
6200.00000000502,172.058101796224,1.00000000040499,0.528472757612889
6300.00000000539,177.306564794571,1.0000000004097,0.52669192583162
6400.00000000575,182.272904455295,1.00000000041206,0.525986434271216
6500.00000000612,186.944116150985,1.00000000038761,0.525393531166872
6600.00000000648,191.326356070751,1.00000000039337,0.522570120454755
6700.00000000684,195.430263830883,1.0000000003788,0.520027311970576
6800.00000000721,199.244043021455,1.00000000036632,0.520372142701036
6900.00000000757,202.761663742706,1.00000000036707,0.521428787457057
7000.00000000793,205.984078712498,1.00000000034815,0.519112983322964
7100.0000000083,208.92106934188,1.00000000036803,0.513411463963708
7200.00000000866,211.576690251399,1.00000000035242,0.510945799333438
7300.00000000903,213.952641531449,1.00000000033807,0.516047521168351
7400.00000000939,216.060521538286,1.00000000036496,0.521258728815305
7500.00000000975,217.916732031628,1.00000000033889,0.518275795870754
7600.00000001012,219.522069111089,1.00000000031844,0.506366112313865
7700.00000001048,220.858381955454,1.00000000028943,0.497259504519587
7800.00000001084,221.928161727932,1.00000000030794,0.504701702204745
7900.00000001121,222.770205772441,1.00000000030971,0.521538422609119
8000.00000001157,223.435770526166,1.00000000033763,0.529528714332316
8100.00000001194,223.939319072773,1.00000000031635,0.519612553261667
8200.0000000123,224.243049497884,1.00000000028178,0.494452369929191
8300.00000001266,224.301967209917,1.00000000023966,0.477257179671722
8400.00000001303,224.125123253869,1.00000000024597,0.490075596514101
8500.00000001339,223.78516297396,1.00000000030908,0.519841053109116
8600.00000001376,223.360604802386,1.00000000036494,0.540966268516094
8700.00000001412,222.884108231009,1.00000000035979,0.539043899617834
8800.00000001448,222.324787271925,1.00000000030554,0.509317791844104
8900.00000001485,221.61414366096,1.00000000022085,0.466117540021369
9000.00000001521,220.705846848946,1.00000000017773,0.445335866842357
9100.00000001557,219.624834152433,1.00000000022248,0.472398693568128
9200.00000001594,218.455082139183,1.00000000030756,0.517319657619081
9300.0000000163,217.280857115347,1.00000000039699,0.545966583196922
9400.00000001667,216.146581806896,1.00000000042415,0.5513426328368
9500.00000001703,215.035885170858,1.00000000038286,0.530043187757044
9600.00000001739,213.881721329459,1.00000000028346,0.478017946757038
9700.00000001776,212.606558565014,1.00000000017036,0.419473636684857
9800.00000001812,211.180840697273,1.00000000013834,0.403675201068824
9900.00000001848,209.647492216375,1.0000000002156,0.447405653546025
10000.0000000188,208.081846973828,1.00000000034676,0.504712247189892
10100.0000000192,206.549332985826,1.00000000043249,0.541412966692409
10200.0000000196,205.086841233318,1.00000000045758,0.554224477216114
10300.0000000199,203.696985999202,1.0000000004703,0.546957091505824
10400.0000000203,202.346007747214,1.00000000037899,0.512720781870344
10500.0000000207,200.973463626848,1.00000000025911,0.448259281472272
10600.000000021,199.523386350226,1.0000000001534,0.379352833239457
10700.0000000214,197.978246023356,1.00000000011412,0.355350170242678
10800.0000000218,196.367955647683,1.00000000018319,0.39514359892232
10900.0000000221,194.74082335358,1.00000000029744,0.463247009325836
11000.0000000225,193.137367201406,1.00000000040953,0.51498258817808
11100.0000000229,191.586475060286,1.00000000045743,0.540049549942237
11200.0000000232,190.103902831039,1.00000000047745,0.547194593958678
11300.0000000236,188.688883857242,1.00000000044301,0.542651892584401
11400.0000000239,187.320873912403,1.00000000040543,0.519859801077108
11500.0000000243,185.965679395351,1.00000000032114,0.470081471578927
11600.0000000247,184.587660346376,1.00000000020687,0.401544670847704
11700.000000025,183.167044983681,1.00000000015104,0.344404740206386
11800.0000000254,181.70888025604,1.00000000012639,0.330839830892665
11900.0000000258,180.233783602558,1.0000000001862,0.365866456323439
12000.0000000261,178.762711879651,1.0000000002634,0.429018689421319
12100.0000000265,177.310101042196,1.00000000036684,0.484369343247223
12200.0000000269,175.885961545882,1.0000000004123,0.514273687689605
12300.0000000272,174.498138678504,1.00000000045885,0.525711755324677
12400.0000000276,173.152060254159,1.00000000047334,0.532841421089346
12500.0000000279,171.848118025201,1.00000000044102,0.535368729482799
12600.0000000283,170.579505387548,1.00000000038626,0.523556357484672
12700.0000000287,169.332809862621,1.00000000033871,0.493586175428953
12800.000000029,168.092417846613,1.00000000027155,0.448601240915121
12900.0000000294,166.84811040606,1.00000000022634,0.398258245096972
13000.0000000298,165.599494132649,1.00000000019272,0.357128020496263
13100.0000000301,164.355115332012,1.00000000016655,0.340353182137395
13200.0000000305,163.126250120526,1.00000000017483,0.355851253355876
13300.0000000309,161.919575406517,1.0000000002242,0.389538468058997
13400.0000000312,160.734507025659,1.00000000027876,0.436464197374604
13500.0000000316,159.566549615251,1.00000000033215,0.480332994796008
13600.0000000319,158.412061193986,1.00000000035229,0.504071063749329
13700.0000000323,157.269767405985,1.00000000036762,0.506396477774943
13800.0000000327,156.140054991227,1.00000000039311,0.502560364772498
13900.000000033,155.024512805749,1.00000000042012,0.509055975722376
14000.0000000334,153.925438949621,1.00000000042172,0.524616213518282
14100.0000000338,152.844200797082,1.00000000041615,0.534254529946354
14200.0000000341,151.780036296602,1.00000000037876,0.524596553761887
14300.0000000345,150.730329667357,1.00000000030985,0.493652106685642
14400.0000000349,149.693324122049,1.00000000023141,0.448645339306355
14500.0000000352,148.671712296499,1.00000000018131,0.405121718396549
14600.0000000356,147.672638451631,1.00000000017401,0.373397641290534
14700.0000000359,146.703403942487,1.00000000019771,0.359668742398018
14800.0000000363,145.768333767648,1.00000000023432,0.363500301233446
14900.0000000367,144.86803300653,1.00000000025088,0.386948524505599
15000.000000037,143.998544887688,1.00000000026579,0.415466047572628
15100.0000000374,143.152032412506,1.00000000028756,0.440286283736362
15200.0000000378,142.3181041804,1.00000000033109,0.465727060305716
15300.0000000381,141.489211313234,1.00000000034751,0.491490934522922
15400.0000000385,140.663243078374,1.00000000032226,0.504240425695089
15500.0000000389,139.843470857742,1.0000000003053,0.498918448807798
15600.0000000392,139.032989126639,1.00000000027031,0.482744496492798
15700.0000000396,138.229857830752,1.00000000030033,0.474076503574933
15800.0000000399,137.427518324043,1.00000000036646,0.483168634067295
15900.0000000403,136.619719766688,1.00000000041506,0.503086526487208
16000.0000000407,135.805387960857,1.0000000004344,0.525400758593372
16100.000000041,134.988642989453,1.00000000046033,0.537878374249111
16200.0000000414,134.175083863482,1.00000000040008,0.533603304014687
16300.0000000418,133.37012950195,1.00000000036475,0.511954156113699
16400.0000000418,132.579412913164,1.00000000028917,0.476355449512242
16500.0000000404,131.81107433276,1.0000000001958,0.435191287558262
16600.0000000389,131.076372875841,1.00000000017423,0.397175024011441
16700.0000000375,130.385182513942,1.00000000014941,0.371189226337875
16800.000000036,129.741524677185,1.00000000019278,0.360370980593866
16900.0000000346,129.141082358931,1.0000000002311,0.367296114194109
17000.0000000331,128.576101237923,1.00000000027234,0.384337761816709
17100.0000000317,128.037936222358,1.0000000002869,0.408132660634432
17200.0000000302,127.519560847797,1.00000000031253,0.432982942084005
17300.0000000287,127.01195395629,1.00000000032444,0.4551831605953
17400.0000000273,126.507827083621,1.00000000033935,0.470908050060409
17500.0000000258,125.999783024695,1.00000000036838,0.483645261085964
17600.0000000244,125.484633875965,1.00000000036743,0.495124929501516
17700.0000000229,124.962427494649,1.0000000003352,0.502701717113871
17800.0000000215,124.437610503531,1.00000000030515,0.505134537390563
17900.00000002,123.917815759045,1.00000000026354,0.500044600599864
18000.0000000186,123.408741993676,1.00000000025057,0.490121969417141
18100.0000000171,122.911421681271,1.0000000002646,0.479993627295786
18200.0000000156,122.419069582871,1.00000000028335,0.474988749830845
18300.0000000142,121.921974069319,1.00000000033456,0.475237907212596
18400.0000000127,121.410991046509,1.0000000003856,0.484164389955839
18500.0000000113,120.881651655973,1.00000000043029,0.496737493563454
18600.0000000098,120.33370479763,1.00000000042533,0.51146470548714
18700.0000000084,119.770661526981,1.00000000041032,0.52619516881876
18800.0000000069,119.198279819759,1.00000000041105,0.535932067572685
18900.0000000055,118.623853351007,1.00000000038015,0.533881735862862
19000.000000004,118.055324711105,1.00000000033634,0.51851721208117
19100.0000000026,117.500558979754,1.00000000026979,0.491746000530152
19200.0000000011,116.96892425811,1.00000000022875,0.458867082382139
19299.9999999996,116.470024632353,1.00000000019708,0.429320308841916
19399.9999999982,116.012406582557,1.00000000019108,0.408997058212442
19499.9999999967,115.602517938002,1.00000000018639,0.393568544592201
19599.9999999953,115.243451356251,1.00000000018653,0.38243760992501
19699.9999999938,114.933980087285,1.00000000020883,0.378597182660908
19799.9999999924,114.667263703563,1.00000000025532,0.383492191752365
19899.9999999909,114.43126443572,1.00000000028315,0.402315414237544
19999.9999999895,114.210795567938,1.00000000031128,0.426304005546377
20099.999999988,113.994541697348,1.0000000003372,0.448334575380448
20199.9999999865,113.779364386288,1.00000000034348,0.463559664384846
20299.9999999851,113.566292489133,1.00000000031351,0.472711534182476
20399.9999999836,113.358250275825,1.00000000030511,0.477029381152972
20499.9999999822,113.157406160769,1.00000000027848,0.477942316361118
20599.9999999807,112.961451068468,1.00000000028421,0.481022533589323
20699.9999999793,112.764219604998,1.00000000031319,0.488800854316215
20799.9999999778,112.557418652635,1.0000000003455,0.500243698097786
20899.9999999764,112.332827094565,1.00000000036236,0.511730310169898
20999.9999999749,112.085119781304,1.00000000035849,0.521085846057686
21099.9999999734,111.815146575164,1.00000000035981,0.527904745073635
21199.999999972,111.528503202597,1.00000000034432,0.532180331310964
21299.9999999705,111.233487730424,1.00000000031674,0.529378356564646
21399.9999999691,110.937765964403,1.00000000028774,0.521667619893888
21499.9999999676,110.646037733043,1.00000000026045,0.512376301238155
21599.9999999662,110.359694976637,1.00000000024786,0.504990797924068
21699.9999999647,110.077522703485,1.0000000002708,0.500334895125619
21799.9999999633,109.797375322706,1.00000000028868,0.494123397447615
21899.9999999618,109.515408879506,1.00000000031049,0.487815765385088
21999.9999999603,109.227417671834,1.00000000032765,0.486966222363108
22099.9999999589,108.928724339379,1.00000000034652,0.49165934762084
22199.9999999574,108.613865074521,1.00000000037597,0.50186874948732
22299.999999956,108.279168666716,1.00000000041805,0.516412891718227
22399.9999999545,107.924510625911,1.00000000043551,0.530483188478871
22499.9999999531,107.553261796207,1.00000000042759,0.539968647806544
22599.9999999516,107.171224396985,1.00000000038783,0.543575490258478
22699.9999999502,106.785413757363,1.00000000037235,0.540042464763109
22799.9999999487,106.403330109179,1.00000000034123,0.527601810779263
22899.9999999473,106.032590459074,1.00000000027142,0.505820027450119
22999.9999999458,105.68188410239,1.00000000024476,0.481216375238009
23099.9999999443,105.360537370174,1.00000000021044,0.458532555245692
23199.9999999429,105.077548301041,1.00000000019169,0.436137280297187
23299.9999999414,104.83959307336,1.0000000001808,0.418961600347215
23399.99999994,104.650571348204,1.00000000017751,0.407746558031387
23499.9999999385,104.510026846842,1.00000000020333,0.398313100795231
23599.9999999371,104.413593247672,1.00000000023064,0.395647112736662
23699.9999999356,104.355252331844,1.00000000025952,0.39740939108218
23799.9999999342,104.327711228975,1.00000000027048,0.402075359098225
23899.9999999327,104.324064555888,1.00000000027328,0.409420128693825
23999.9999999312,104.336941445467,1.00000000031027,0.418339008408407
24099.9999999298,104.358991166702,1.00000000031472,0.430493542983456
24199.9999999283,104.382722877952,1.00000000034362,0.445400575826702
24299.9999999269,104.402032443374,1.00000000033153,0.460490333371586
24399.9999999254,104.413565863833,1.00000000032591,0.471249287004319
24499.999999924,104.416644362293,1.00000000032603,0.479942500934363
24599.9999999225,104.412176119633,1.00000000033737,0.489060885066788
24699.9999999211,104.401528584592,1.0000000003211,0.499760171228603
24799.9999999196,104.387519751186,1.00000000029772,0.508194537290735
24899.9999999181,104.373328306777,1.00000000029243,0.512067682383694
24999.9999999167,104.362200652504,1.0000000002899,0.513203729831703
25099.9999999152,104.355360243153,1.00000000028758,0.513637538189297
25199.9999999138,104.350469449074,1.00000000027837,0.514996507121724
25299.9999999123,104.342554227612,1.00000000029462,0.51763008313157
25399.9999999109,104.32501239726,1.00000000032929,0.521012786340645
25499.9999999094,104.291668771514,1.00000000033491,0.523680910336562
25599.999999908,104.238592717372,1.00000000033359,0.525679002923638
25699.9999999065,104.164538169207,1.00000000034829,0.524870215904047
25799.9999999051,104.070623073181,1.00000000035577,0.521246100197422
25899.9999999036,103.957484074584,1.0000000003487,0.515114362042546
25999.9999999021,103.825112900126,1.00000000033696,0.512068920190509
26099.9999999007,103.674160573179,1.0000000003589,0.517445389197824
26199.9999998992,103.507344669332,1.00000000036175,0.527503950679056
26299.9999998978,103.329541248586,1.00000000033181,0.531917663940265
26399.9999998963,103.146490964925,1.00000000030321,0.528170699281977
26499.9999998949,102.963396213261,1.00000000029495,0.521976486733854
26599.9999998934,102.78386637059,1.00000000028295,0.517310414576953
26699.999999892,102.60992146063,1.00000000027078,0.516178743954454
26799.9999998905,102.442247173405,1.00000000025937,0.51653902922561
26899.999999889,102.280282922498,1.00000000026348,0.518311242639415
26999.9999998876,102.122193749655,1.00000000026635,0.520665130672782
27099.9999998861,101.964873509616,1.00000000028355,0.522061334890227
27199.9999998847,101.805274633944,1.00000000029704,0.522236119284558
27299.9999998832,101.641198877201,1.00000000030624,0.522623823750774
27399.9999998818,101.470823799352,1.00000000031514,0.521918641941457
27499.9999998803,101.292402738463,1.00000000032345,0.51953967788319
27599.9999998789,101.1040482378,1.00000000033299,0.516554644983739
27699.9999998774,100.903830776012,1.00000000036228,0.514446116052075
27799.9999998759,100.690426357545,1.00000000038575,0.515200400011457
27899.9999998745,100.462528855008,1.00000000040917,0.51908855976754
27999.999999873,100.219422108595,1.000000000413,0.525940987109406
28099.9999998716,99.9625325827439,1.00000000041471,0.533471163439218
28199.9999998701,99.6952347563409,1.0000000003969,0.539450987455849
28299.9999998687,99.4219985944601,1.00000000037779,0.541432807214847
28399.9999998672,99.1476814015674,1.00000000034408,0.539438357547578
28499.9999998658,98.8773130732827,1.00000000032957,0.531734892755875
28599.9999998643,98.616513156254,1.00000000028167,0.5184666476089
28699.9999998629,98.3714000403793,1.00000000024772,0.502707198036704
28799.9999998614,98.1482348621756,1.00000000023078,0.485588108055093
28899.9999998599,97.953372081227,1.00000000020408,0.468889130271462
28999.9999998585,97.792676027363,1.00000000019417,0.454106673455498
