Time,AGPnorm,Energy,Entropy
0,0,1,4.00428312976847e-19
99.9999999999986,0.0135671450924234,1.00000000000082,0.0351662248132904
199.999999999993,0.0351332682410047,1.00000000000109,0.103727393653192
300,0.0644747081540699,1.00000000007363,0.221883854618848
400.000000000022,0.123482237945448,1.00000000164702,0.397490853417922
500.000000000045,0.502905184166232,1.00000000404861,0.520283175777687
600.000000000068,1.64018362992613,1.00000000496052,0.579326264064357
700.000000000091,3.48967484038969,1.00000000509271,0.599156009411912
800.000000000113,5.57704949776678,1.000000004653,0.603183480262107
900.000000000136,7.57288364998492,1.00000000425844,0.594518269769766
1000.00000000016,9.13528155717847,1.00000000400324,0.585583708211537
1100.0000000001,10.2148716335172,1.00000000330309,0.571010047372394
1200,10.7835099481933,1.00000000313265,0.569781597141971
1299.99999999991,10.9302369834426,1.00000000289596,0.558933110207976
1399.99999999982,10.7976383913199,1.00000000251167,0.523479166663242
1499.99999999973,10.5218042985501,1.00000000217364,0.50573410545912
1599.99999999964,10.1519012134538,1.00000000377981,0.571210404886037
1699.99999999955,9.72400809662654,1.00000000253194,0.485415133139171
1799.99999999946,9.31622348308626,1.0000000032196,0.509601264784251
1899.99999999937,8.89590180774983,1.00000000294992,0.483403853395102
1999.99999999928,8.49689278605735,1.00000000373312,0.54235740993523
2099.99999999919,8.13622531102068,1.00000000262237,0.460727903764623
2199.99999999909,7.77900021444831,1.00000000315723,0.530140017522747
2299.999999999,7.45015744312251,1.00000000326005,0.532258106283843
2399.99999999891,7.18102293225829,1.0000000023547,0.458362181521401
2499.99999999882,6.91195497002965,1.00000000311648,0.533417079259672
2599.99999999873,6.66283251391837,1.00000000364731,0.555676633535448
2699.99999999864,6.42734866900049,1.00000000285632,0.518783230029292
2799.99999999855,6.26428090637672,1.00000000228312,0.469720405408128
2899.99999999846,6.09942130268885,1.00000000361442,0.541407574444365
2999.99999999837,5.94504639713594,1.00000000306611,0.53573790275905
3099.99999999828,5.78672135055504,1.00000000331378,0.569761143395902
3199.99999999819,5.62847317347424,1.00000000384727,0.555904029700063
3299.99999999809,5.52099798978487,1.0000000022038,0.478302982779619
3399.999999998,5.47203263055086,1.0000000035627,0.524928061000728
3499.99999999791,5.40442178335449,1.00000000344278,0.550542765670524
3599.99999999782,5.33728097778159,1.0000000031789,0.568683111052491
3699.99999999773,5.26850448867794,1.00000000329962,0.57977357361358
3799.99999999764,5.17615572361945,1.00000000308499,0.601886327116981
3899.99999999755,5.08355585498602,1.00000000380483,0.59069880742451
3999.99999999746,4.99014346599824,1.00000000373361,0.572417449557648
4099.99999999738,4.93135279837173,1.00000000250462,0.52144162270144
4199.99999999775,4.9536763394467,1.00000000270183,0.511072049223129
4299.99999999811,4.97639048834734,1.0000000039096,0.555276998514496
4399.99999999848,4.98399807378616,1.00000000325326,0.55828847807834
4499.99999999884,4.9821098242561,1.00000000357954,0.592555237600866
4599.9999999992,4.96801085448716,1.00000000322977,0.604943233164659
4699.99999999957,4.95961227971695,1.00000000338029,0.619210502830057
4799.99999999993,4.93303418238992,1.0000000034433,0.629090679510687
4900.00000000029,4.89744945282245,1.00000000316933,0.607872132101967
5000.00000000066,4.84861079346059,1.00000000369005,0.633717718512572
5100.00000000102,4.79556345973582,1.0000000036759,0.642837697907495
5200.00000000139,4.73757346262881,1.00000000374107,0.634815179357596
5300.00000000175,4.67906060538213,1.00000000407421,0.612554519961417
5400.00000000211,4.62637627261812,1.00000000325331,0.57089918980172
5500.00000000248,4.62925675665992,1.00000000263408,0.533243971198272
5600.00000000284,4.70269619857807,1.00000000310978,0.538345900977054
5700.00000000321,4.78685128816154,1.00000000382775,0.568586919717334
5800.00000000357,4.85420849480195,1.00000000379221,0.586370316436643
5900.00000000393,4.91254742466207,1.00000000363751,0.597442891322663
6000.0000000043,4.95575231853355,1.00000000362465,0.60684543877134
6100.00000000466,4.99352804169118,1.00000000381447,0.633069066543626
6200.00000000502,5.01644504188947,1.00000000382915,0.635968778287394
6300.00000000539,5.02820928069496,1.00000000359499,0.647539400448721
6400.00000000575,5.02781283006493,1.00000000409434,0.652430282931499
6500.00000000612,5.0278882216135,1.00000000368484,0.641076600840029
6600.00000000648,5.0392606758973,1.00000000357249,0.647222996092537
6700.00000000684,5.04522502317569,1.00000000399398,0.649396740369313
6800.00000000721,5.03730173144007,1.00000000410312,0.633222520425481
6900.00000000757,5.0327403129731,1.00000000365468,0.645661824402344
7000.00000000793,5.03069216214899,1.00000000368051,0.656041490024352
7100.0000000083,5.01645636158784,1.00000000377672,0.669042388744426
7200.00000000866,4.9982436569632,1.00000000376815,0.648530826800344
7300.00000000903,4.98012642201696,1.00000000371281,0.647192973409502
7400.00000000939,4.95629448341812,1.00000000429913,0.658688347583478
7500.00000000975,4.92145125542614,1.00000000400473,0.671539107350855
7600.00000001012,4.8790770939711,1.00000000380448,0.668532535414306
7700.00000001048,4.83680242954087,1.00000000380842,0.680470724345315
7800.00000001084,4.79694504352157,1.00000000412531,0.665961727797744
7900.00000001121,4.75983767921307,1.00000000449839,0.668204335165849
8000.00000001157,4.72339621465167,1.00000000443587,0.635767939490803
8100.00000001194,4.68978970013355,1.00000000382014,0.592482698868718
8200.0000000123,4.68778485452137,1.00000000322046,0.562214759065269
8300.00000001266,4.74876194132052,1.0000000034968,0.547419852483413
8400.00000001303,4.86827366933785,1.00000000364956,0.556506196030689
8500.00000001339,5.01183847482032,1.00000000443371,0.57674598377557
8600.00000001376,5.1556475524121,1.00000000435834,0.588775129895073
8700.00000001412,5.28683070015053,1.00000000407985,0.592745477938807
8800.00000001448,5.4094194728948,1.00000000454743,0.599355259470828
8900.00000001485,5.52578048076943,1.00000000401506,0.611302103666068
9000.00000001521,5.62574611230413,1.00000000447404,0.634459032353543
9100.00000001557,5.72038345212577,1.00000000434523,0.646246924851809
9200.00000001594,5.80975953370255,1.00000000444824,0.655107241641415
9300.0000000163,5.89301376871087,1.00000000422994,0.66346822818281
9400.00000001667,5.95998051755818,1.00000000474133,0.665288996793966
9500.00000001703,6.0126660346048,1.00000000481298,0.666765419381356
9600.00000001739,6.05275703766777,1.00000000434297,0.69163704335059
9700.00000001776,6.10160150815722,1.00000000447779,0.68465164350799
9800.00000001812,6.15095138489452,1.00000000428731,0.686374528763856
9900.00000001848,6.19129283658166,1.0000000048395,0.701573398783892
10000.0000000188,6.22520622882422,1.00000000443267,0.698027487219789
10100.0000000192,6.26087830333588,1.00000000511289,0.694818001430387
10200.0000000196,6.28985882132071,1.00000000466028,0.685671230359674
10300.0000000199,6.31466630021221,1.00000000476416,0.695096569867156
10400.0000000203,6.32658221715674,1.00000000474772,0.684899760075683
10500.0000000207,6.33904049567544,1.00000000458115,0.699829048605295
10600.000000021,6.35142256873839,1.00000000484772,0.692525735219137
10700.0000000214,6.36047281034065,1.00000000477036,0.69115618470821
10800.0000000218,6.38323498245503,1.00000000454977,0.678398944331953
10900.0000000221,6.41856494117882,1.00000000431804,0.674503130658897
11000.0000000225,6.46686950566279,1.00000000475315,0.673705769452716
11100.0000000229,6.52198097199751,1.00000000469489,0.67622031564333
11200.0000000232,6.56832684889228,1.00000000519156,0.690507662002082
11300.0000000236,6.61415626848928,1.00000000458149,0.670304310872985
11400.0000000239,6.65265618459833,1.00000000507453,0.67252794970817
11500.0000000243,6.69326933950815,1.00000000449638,0.675677223642687
11600.0000000247,6.74436402267479,1.00000000518752,0.691416307076573
11700.000000025,6.78481643314025,1.00000000508303,0.681092498016599
11800.0000000254,6.82378699670576,1.00000000467998,0.703380426516198
11900.0000000258,6.85776057816047,1.00000000524597,0.68890461178847
12000.0000000261,6.8864205219628,1.00000000488376,0.678232849611156
12100.0000000265,6.91864938481977,1.00000000440811,0.670396139275345
12200.0000000269,6.96383134472605,1.00000000478683,0.673998427759878
12300.0000000272,7.0158438599831,1.00000000464879,0.680550920262133
12400.0000000276,7.06804922296637,1.00000000545791,0.690256310167726
12500.0000000279,7.10851021107849,1.00000000531357,0.700593922826625
12600.0000000283,7.15322270659369,1.00000000469513,0.699599086761752
12700.0000000287,7.19697775726344,1.00000000515141,0.698043908373724
12800.000000029,7.24681066556901,1.0000000050516,0.693937731959312
12900.0000000294,7.30614389716172,1.00000000480907,0.678315143430732
13000.0000000298,7.36319624249328,1.0000000054408,0.725880733634197
13100.0000000301,7.40060538720035,1.0000000050501,0.712456801994648
13200.0000000305,7.43618604985085,1.00000000519424,0.698359469999562
13300.0000000309,7.47080202793373,1.00000000507975,0.699713141472647
13400.0000000312,7.50889298351632,1.00000000534616,0.712704966791813
13500.0000000316,7.55196932210464,1.0000000050476,0.694105343630545
13600.0000000319,7.58692750249351,1.00000000547106,0.69426170042071
13700.0000000323,7.61869082159334,1.00000000474557,0.696792822061094
13800.0000000327,7.65144712174904,1.0000000055597,0.706632792639312
13900.000000033,7.67943661625179,1.00000000443719,0.694075968871479
14000.0000000334,7.7097734934709,1.00000000489904,0.696068245819134
14100.0000000338,7.74129404343718,1.00000000493473,0.706667984891711
14200.0000000341,7.77019924923982,1.00000000532196,0.704791133576387
14300.0000000345,7.79205107114767,1.00000000518588,0.701209629679387
14400.0000000349,7.81246625831116,1.00000000559691,0.672314173670849
14500.0000000352,7.83834778641068,1.00000000617937,0.687334961627231
14600.0000000356,7.85322914203641,1.00000000547245,0.709641736462111
14700.0000000359,7.8576418440407,1.00000000580716,0.710193328781332
14800.0000000363,7.86036141123203,1.00000000513226,0.710353122248029
14900.0000000367,7.85999590436521,1.00000000608971,0.713194226994885
15000.000000037,7.85194787420563,1.00000000574711,0.72225764210388
15100.0000000374,7.83696062766625,1.00000000528543,0.718513346645404
15200.0000000378,7.81767489385063,1.00000000550532,0.722816403818397
15300.0000000381,7.79494671659195,1.00000000488958,0.710891732715561
15400.0000000385,7.77672093786926,1.00000000546981,0.722169162805482
15500.0000000389,7.76014561813912,1.00000000536013,0.708842128492046
15600.0000000392,7.74768147911458,1.00000000571018,0.70462018374357
15700.0000000396,7.74355527403465,1.00000000568417,0.708837524158171
15800.0000000399,7.74074607917541,1.00000000562079,0.712744778345703
15900.0000000403,7.74603276199457,1.00000000522933,0.710142716667786
16000.0000000407,7.74869605027455,1.00000000563058,0.710485119213149
16100.000000041,7.75913232077168,1.00000000586143,0.691049882383492
16200.0000000414,7.77489526055608,1.00000000541199,0.668161786482934
16300.0000000418,7.81211998418402,1.00000000601601,0.641357829316314
16400.0000000418,7.87675664452546,1.00000000571298,0.625347460899
16500.0000000404,8.00204414603223,1.00000000471151,0.618065603742464
16600.0000000389,8.18952302254454,1.00000000483819,0.628390984097743
16700.0000000375,8.45587541752004,1.00000000554629,0.629208049000638
16800.000000036,8.76221646065885,1.00000000615044,0.63473572148354
16900.0000000346,9.11797998776947,1.00000000574136,0.63294454504739
17000.0000000331,9.4753302948202,1.00000000567424,0.635416559155738
17100.0000000317,9.85805323455346,1.00000000577012,0.644435933020617
17200.0000000302,10.2163860538092,1.00000000574091,0.642547611247459
17300.0000000287,10.5900723823434,1.0000000061942,0.654168323006092
17400.0000000273,10.950713490212,1.00000000644028,0.642517914973497
17500.0000000258,11.3119602883799,1.00000000672682,0.647206828878761
17600.0000000244,11.6769703245591,1.00000000582015,0.657124930599231
17700.0000000229,12.0435014297927,1.0000000062132,0.653331396652832
17800.0000000215,12.4220137724058,1.00000000626005,0.65474961075024
17900.00000002,12.7990304083617,1.00000000586948,0.653672938193843
18000.0000000186,13.1841382639489,1.00000000641172,0.663406120823013
18100.0000000171,13.5629202288498,1.00000000615083,0.680201819852155
18200.0000000156,13.9452314467128,1.0000000060388,0.683043731180302
18300.0000000142,14.3302076816318,1.00000000634077,0.688683458732474
18400.0000000127,14.7178327344347,1.00000000588435,0.698867432571302
18500.0000000113,15.1245002572586,1.0000000060666,0.705129697573929
18600.0000000098,15.5199610769268,1.00000000620346,0.702480851318187
18700.0000000084,15.9153260839417,1.00000000697623,0.701915810849881
18800.0000000069,16.3062407567134,1.00000000578961,0.720810693312381
18900.0000000055,16.6910270895401,1.00000000695643,0.726389116908446
19000.000000004,17.0713476213622,1.00000000627934,0.720533448745575
19100.0000000026,17.4381453437847,1.00000000668114,0.709857967602529
19200.0000000011,17.8026850835191,1.0000000067356,0.707165042132673
19299.9999999996,18.1506832277737,1.00000000671373,0.729208128761996
19399.9999999982,18.5090528737002,1.00000000649698,0.733965883358677
19499.9999999967,18.8750972974732,1.00000000623392,0.72465297507512
19599.9999999953,19.2471782739966,1.00000000676424,0.723307279599787
19699.9999999938,19.6162180876965,1.00000000696404,0.745508830221575
19799.9999999924,19.9843808832272,1.00000000599906,0.733082845888756
19899.9999999909,20.3855081085401,1.00000000660293,0.747849720698659
19999.9999999895,20.79564771707,1.00000000744299,0.738530061269082
20099.999999988,21.2253108632211,1.0000000067777,0.743842653195536
20199.9999999865,21.6945165522372,1.00000000662896,0.72427201693999
20299.9999999851,22.1749276850774,1.00000000655673,0.740361040837344
20399.9999999836,22.6427465975373,1.00000000624604,0.741100143138889
20499.9999999822,23.0822615792557,1.00000000747842,0.738006089429569
20599.9999999807,23.4999887855215,1.00000000682907,0.737332500146575
20699.9999999793,23.9215935105134,1.00000000697213,0.740792904740141
20799.9999999778,24.3654670170497,1.00000000651851,0.730366251947853
20899.9999999764,24.8214099398287,1.0000000072039,0.736978896446204
20999.9999999749,25.2812407948101,1.00000000725785,0.735050245941272
21099.9999999734,25.7408137428453,1.00000000691942,0.739514404299095
21199.999999972,26.1937874548337,1.00000000710927,0.731066331428782
21299.9999999705,26.655472473581,1.00000000671114,0.72890366196337
21399.9999999691,27.1017879554124,1.00000000727912,0.738505532535246
21499.9999999676,27.5690494579755,1.00000000640703,0.720846864891783
21599.9999999662,28.041051945156,1.00000000694828,0.734936134304395
21699.9999999647,28.535134348056,1.00000000742564,0.742740090798326
21799.9999999633,29.0303070323471,1.0000000072053,0.742300663430555
21899.9999999618,29.526482074603,1.00000000741791,0.734173515063151
21999.9999999603,30.0036440305114,1.00000000737697,0.734990222631987
22099.9999999589,30.4747728576524,1.00000000748974,0.729570593524469
22199.9999999574,30.9511187005502,1.00000000714869,0.722210996390003
22299.999999956,31.4497127907495,1.00000000731469,0.72360370566352
22399.9999999545,31.9608829490554,1.00000000740817,0.721817979021753
22499.9999999531,32.4707329618099,1.00000000761057,0.733289963395396
22599.9999999516,32.992886517979,1.00000000720904,0.72722880069885
22699.9999999502,33.5180009005737,1.00000000699999,0.736000875605447
22799.9999999487,34.0710473441077,1.00000000742415,0.737835816562827
22899.9999999473,34.6185845653724,1.00000000811794,0.738962654788368
22999.9999999458,35.147806519928,1.00000000792546,0.729260066684559
23099.9999999443,35.6592730794397,1.00000000782248,0.734350724513941
23199.9999999429,36.1979962834859,1.00000000757447,0.713031420723764
23299.9999999414,36.7582042605048,1.00000000791683,0.738998716082552
23399.99999994,37.3045515593409,1.00000000761231,0.747669911883444
23499.9999999385,37.860768898524,1.00000000799676,0.736345509520517
23599.9999999371,38.3957037900893,1.00000000766569,0.739443237281188
23699.9999999356,38.9038348153819,1.00000000811094,0.73946320793657
23799.9999999342,39.4019927341115,1.00000000749622,0.726174954417277
23899.9999999327,39.9390199094448,1.00000000739975,0.722318820803547
23999.9999999312,40.5237867340808,1.00000000785262,0.723698808335198
24099.9999999298,41.1263487052672,1.00000000758348,0.740405114954262
24199.9999999283,41.7337457879219,1.00000000838915,0.736618730095093
24299.9999999269,42.3317201945812,1.00000000819643,0.739588089986755
24399.9999999254,42.9343878406091,1.00000000778604,0.737907509127187
24499.999999924,43.5693689370595,1.0000000074041,0.719451554508229
24599.9999999225,44.2059990506316,1.00000000870768,0.746813025822943
24699.9999999211,44.8265350082067,1.00000000791488,0.74112140986376
24799.9999999196,45.458919182116,1.00000000794642,0.736027699377757
24899.9999999181,46.0925935003593,1.00000000873679,0.738148691320774
24999.9999999167,46.7178010438108,1.0000000080022,0.743728476484623
25099.9999999152,47.3611861280928,1.00000000799365,0.737384860383135
25199.9999999138,48.0087929931495,1.00000000796883,0.73589204183104
25299.9999999123,48.6519853381895,1.00000000761632,0.737217181309103
25399.9999999109,49.3079166082154,1.00000000793592,0.731283178702509
25499.9999999094,49.9563767950103,1.00000000768465,0.742739598395796
25599.999999908,50.6121458746642,1.00000000807655,0.747206134465277
25699.9999999065,51.2919683216662,1.00000000810646,0.744388332819211
25799.9999999051,51.9794240201719,1.00000000717128,0.738615839477359
25899.9999999036,52.696553481267,1.00000000817313,0.737261202915966
25999.9999999021,53.4302294042879,1.00000000777997,0.743845081690546
26099.9999999007,54.1855859682835,1.00000000806209,0.74805458488607
26199.9999998992,54.9309007678537,1.00000000856562,0.752941043207485
26299.9999998978,55.6542812585091,1.00000000792142,0.746739544445089
26399.9999998963,56.3642593737773,1.00000000812328,0.745641530669621
26499.9999998949,57.0804916067833,1.00000000825951,0.747170548369015
26599.9999998934,57.8026578542469,1.0000000087633,0.751062616006561
26699.999999892,58.5370674459184,1.0000000083235,0.74448572633847
26799.9999998905,59.2822692598038,1.00000000749415,0.744815751623648
26899.999999889,60.0288476797155,1.00000000822808,0.746505845163177
26999.9999998876,60.7642014913868,1.00000000853596,0.749244198147721
27099.9999998861,61.5037331173614,1.00000000849908,0.742733098885585
27199.9999998847,62.2637926787495,1.00000000795161,0.735753702603231
27299.9999998832,63.0311437255766,1.00000000851786,0.742551919502725
27399.9999998818,63.7948423787551,1.00000000943326,0.736435323332682
27499.9999998803,64.5767919771189,1.00000000793791,0.733027083827154
27599.9999998789,65.3879650940396,1.0000000085844,0.7471249878016
27699.9999998774,66.200298087702,1.00000000852529,0.743319318604614
27799.9999998759,67.0045003155089,1.00000000806057,0.742050258344972
27899.9999998745,67.8129516342268,1.00000000806087,0.748537821934912
27999.999999873,68.6230257228417,1.00000000859377,0.737137393517327
28099.9999998716,69.46208293586,1.00000000850854,0.732999190186035
28199.9999998701,70.3209820549723,1.00000000904622,0.732092957149996
28299.9999998687,71.1716208101056,1.00000000955691,0.749873120797203
28399.9999998672,72.0013830534706,1.00000000899161,0.740158096952027
28499.9999998658,72.8399259572444,1.00000000837592,0.734712398965944
28599.9999998643,73.692003961128,1.00000000883777,0.740854520105284
28699.9999998629,74.5314206698169,1.00000000821716,0.752508222036564
28799.9999998614,75.3672284068348,1.0000000089828,0.743649655272894
28899.9999998599,76.2196180998838,1.00000000947021,0.748890942586828
28999.9999998585,77.0919884475567,1.00000000919816,0.752012592669008
29099.999999857,77.9715263044264,1.00000000850686,0.742410764139825
