Time,AGPnorm,Energy,Entropy
0,0,1,-7.43423765063916e-17
99.9999999999986,0.000258973402711386,0.999999999999011,0.00104009965166679
199.999999999993,0.00172677005834013,0.999999999998216,0.00314722381963685
300,0.00360912531775164,0.999999999999012,0.00591061508306653
400.000000000022,0.00556485470538619,1.00000000000003,0.00938684740195243
500.000000000045,0.00792872089982712,0.999999999999494,0.0136855573301825
600.000000000068,0.0111978138473673,0.999999999998355,0.0185793111505169
700.000000000091,0.0148067023768014,0.999999999998523,0.0239004507402658
800.000000000113,0.0188651764621564,0.999999999999803,0.0296498797301998
900.000000000136,0.0229692006898886,0.99999999999986,0.0359920605918757
1000.00000000016,0.0279931209835133,0.999999999998769,0.0428312445716045
1100.0000000001,0.0331357250789291,0.999999999998191,0.0500843122485507
1200,0.0387463327247779,0.999999999999395,0.0577360508829577
1299.99999999991,0.0442975239349869,0.999999999999998,0.0659489211114051
1399.99999999982,0.0504620693922101,0.999999999999284,0.0746870676685864
1499.99999999973,0.056798243666649,0.999999999998216,0.0839573158543495
1599.99999999964,0.063347649244971,0.999999999998827,0.0936972029758656
1699.99999999955,0.0700136373649264,0.999999999999984,0.104139922110513
1799.99999999946,0.0765263484383795,0.999999999999715,0.115297972592891
1899.99999999937,0.0836846391453733,0.999999999998793,0.127289356242819
1999.99999999928,0.0905072013187192,0.999999999998622,0.140083797216019
2099.99999999919,0.0979269819178788,1.00000000000051,0.153967316022557
2199.99999999909,0.104669583580022,1.00000000000149,0.169146051578172
2299.999999999,0.111866855592397,1.0000000000027,0.185739348016964
2399.99999999891,0.119271835888208,1.0000000000051,0.203819515933016
2499.99999999882,0.129515361135044,1.00000000001286,0.223214732545313
2599.99999999873,0.142013106808688,1.00000000002319,0.244017178684381
2699.99999999864,0.157455995302941,1.00000000003913,0.265524005777005
2799.99999999855,0.184364880808795,1.00000000005474,0.287412221541336
2899.99999999846,0.238519913916941,1.00000000007797,0.308790844780402
2999.99999999837,0.332632192093935,1.00000000010639,0.329586174192518
3099.99999999828,0.47825248793255,1.00000000012622,0.349380545176798
3199.99999999819,0.707276966161142,1.00000000015858,0.367938763122272
3299.99999999809,1.06515560605652,1.0000000001847,0.385016449711831
3399.999999998,1.58747875176782,1.00000000020584,0.400731943162715
3499.99999999791,2.30087837180134,1.00000000023753,0.415268897433825
3599.99999999782,3.24929881556114,1.00000000025035,0.428540941115644
3699.99999999773,4.4914950088226,1.00000000026939,0.440508076130557
3799.99999999764,6.06706799020604,1.00000000029719,0.451137498556588
3899.99999999755,7.99446302429154,1.00000000031077,0.461173000211399
3999.99999999746,10.3057637160551,1.00000000033064,0.470165753209827
4099.99999999738,13.0438096588721,1.00000000033909,0.478153137354127
4199.99999999775,16.23270482005,1.00000000034186,0.485138574441178
4299.99999999811,19.8626879977132,1.00000000036008,0.491783178808828
4399.99999999848,23.9404948112745,1.00000000036512,0.497540997980842
4499.99999999884,28.4823987252743,1.00000000038469,0.50237021252981
4599.9999999992,33.4912331021391,1.00000000036267,0.506844922693639
4699.99999999957,38.9324759659666,1.00000000038312,0.510736778005581
4799.99999999993,44.7830887723843,1.0000000003731,0.514082182955932
4900.00000000029,51.0400481302601,1.00000000039166,0.516908946154341
5000.00000000066,57.6876251443663,1.00000000038791,0.519310975158068
5100.00000000102,64.6844218819614,1.00000000040533,0.521221343807929
5200.00000000139,71.9796841289962,1.00000000037228,0.523163781179242
5300.00000000175,79.5592876325917,1.00000000038502,0.524511261648421
5400.00000000211,87.4003727860383,1.00000000038852,0.525553785066768
5500.00000000248,95.4629749475593,1.00000000039006,0.526315084517355
5600.00000000284,103.688235176264,1.0000000003669,0.526858171630882
5700.00000000321,112.047333202603,1.00000000038168,0.527392197164443
5800.00000000357,120.523032094333,1.00000000038309,0.52753992257842
5900.00000000393,129.08105042246,1.0000000003793,0.526778656851455
6000.0000000043,137.670890617828,1.00000000035691,0.526498645965339
6100.00000000466,146.250566240383,1.0000000003713,0.526940211120588
6200.00000000502,154.807151353828,1.00000000036966,0.52612136613706
6300.00000000539,163.317666616362,1.00000000036117,0.524551421351224
6400.00000000575,171.74370395162,1.00000000035868,0.523677926054757
6500.00000000612,180.045348675544,1.00000000033942,0.524040654242974
6600.00000000648,188.205340234711,1.00000000033059,0.522927453159944
6700.00000000684,196.216462208905,1.00000000032096,0.521005335476408
6800.00000000721,204.052504299216,1.00000000032256,0.519386220733229
6900.00000000757,211.68325615822,1.00000000032596,0.519168298381917
7000.00000000793,219.088266928419,1.00000000032282,0.518736481541925
7100.0000000083,226.266066795254,1.00000000031931,0.516952868851008
7200.00000000866,233.206539801687,1.00000000030794,0.514835563405112
7300.00000000903,239.891284614281,1.00000000029396,0.513607965477931
7400.00000000939,246.303268812479,1.00000000028734,0.512991553431207
7500.00000000975,252.43702731255,1.00000000029486,0.512243327382508
7600.00000001012,258.296704228271,1.00000000028368,0.510578253556197
7700.00000001048,263.872681224351,1.0000000002844,0.508512320882689
7800.00000001084,269.155167111741,1.000000000275,0.507925118136678
7900.00000001121,274.141979813024,1.00000000026576,0.507821592833499
8000.00000001157,278.839413628404,1.00000000026516,0.507143790037611
8100.00000001194,283.24676974555,1.00000000026198,0.504674714390173
8200.0000000123,287.356708876365,1.00000000026051,0.501065427437064
8300.00000001266,291.163109975678,1.00000000025583,0.499094641079535
8400.00000001303,294.673677526387,1.00000000025121,0.500349027649636
8500.00000001339,297.90624005838,1.00000000026002,0.503879494646295
8600.00000001376,300.869207736665,1.00000000025368,0.505901721263926
8700.00000001412,303.564981858945,1.00000000024614,0.503009180650279
8800.00000001448,305.98505992692,1.00000000023328,0.495481129672312
8900.00000001485,308.124951518627,1.00000000022048,0.486965413477191
9000.00000001521,309.984337088439,1.00000000021134,0.48434665445442
9100.00000001557,311.575141124355,1.00000000021009,0.492503281866359
9200.00000001594,312.928511800945,1.00000000022533,0.504921255408659
9300.0000000163,314.080121798654,1.00000000023643,0.513003328861085
9400.00000001667,315.051980862436,1.00000000023346,0.511267420974473
9500.00000001703,315.83339504458,1.00000000022825,0.497325287121772
9600.00000001739,316.390333515805,1.00000000019648,0.476951666792059
9700.00000001776,316.691165189245,1.00000000018434,0.462767404119464
9800.00000001812,316.739396701286,1.00000000016872,0.46704190110957
9900.00000001848,316.580018764867,1.00000000018893,0.487986235185606
10000.0000000188,316.275589008528,1.00000000023425,0.511592936870282
10100.0000000192,315.885143688475,1.00000000024831,0.526786825277766
10200.0000000196,315.435378285758,1.00000000025527,0.526820817382975
10300.0000000199,314.913193301012,1.00000000023872,0.50961907926056
10400.0000000203,314.270450668901,1.0000000001906,0.476816703698423
10500.0000000207,313.445343329044,1.00000000014259,0.441362945040953
10600.000000021,312.40578229055,1.00000000011724,0.426295297080028
10700.0000000214,311.172541917324,1.0000000001398,0.443996573444542
10800.0000000218,309.813414307481,1.00000000019365,0.480198219007017
10900.0000000221,308.405092881442,1.00000000025198,0.513573209621664
11000.0000000225,307.007865427769,1.00000000029177,0.534682993605611
11100.0000000229,305.652309023516,1.00000000029345,0.540407449797505
11200.0000000232,304.330983107343,1.00000000028262,0.529175409452237
11300.0000000236,303.004763893163,1.00000000023004,0.497933459802893
11400.0000000239,301.608334565946,1.00000000017223,0.4489897355116
11500.0000000243,300.081956267539,1.0000000001115,0.399221955541746
11600.0000000247,298.399383327957,1.00000000008969,0.375909730386204
11700.000000025,296.584974268766,1.00000000010567,0.397295952331031
11800.0000000254,294.693857203369,1.00000000017683,0.445458748031049
11900.0000000258,292.786123415873,1.00000000023195,0.492269695924532
12000.0000000261,290.912799462479,1.00000000029688,0.523603530057744
12100.0000000265,289.107109159998,1.00000000031991,0.539247942046483
12200.0000000269,287.383186399958,1.00000000033547,0.543681850472435
12300.0000000272,285.730821838609,1.00000000031043,0.535310200780184
12400.0000000276,284.120125328488,1.00000000026259,0.507484196220888
12500.0000000279,282.504304808257,1.00000000020968,0.458951292739097
12600.0000000283,280.834970214395,1.00000000014847,0.398086131907453
12700.0000000287,279.078849437367,1.00000000009304,0.344184012758765
12800.000000029,277.231397307075,1.00000000007174,0.32386619745097
12900.0000000294,275.315528998168,1.00000000009386,0.349614879361522
13000.0000000298,273.368297574232,1.00000000015835,0.403263144387738
13100.0000000301,271.424872934832,1.00000000022866,0.457507385701884
13200.0000000305,269.511219312837,1.00000000027351,0.496986937697736
13300.0000000309,267.646575369867,1.000000000312,0.519945392655304
13400.0000000312,265.8443237874,1.0000000003409,0.530767990018458
13500.0000000316,264.11057433221,1.00000000034304,0.534438196169268
13600.0000000319,262.44173081835,1.00000000031412,0.532125744108281
13700.0000000323,260.823821607844,1.00000000028535,0.518771966516768
13800.0000000327,259.233993860579,1.00000000025709,0.488906121892778
13900.000000033,257.64503654611,1.00000000021162,0.442532028062587
14000.0000000334,256.033096859449,1.00000000015958,0.386389458919452
14100.0000000338,254.384193100437,1.00000000011148,0.334502654857716
14200.0000000341,252.698742484815,1.0000000000829,0.304780937517315
14300.0000000345,250.990149569371,1.00000000008602,0.306258030036571
14400.0000000349,249.277713720501,1.00000000011585,0.337745727513072
14500.0000000352,247.576797761059,1.00000000016435,0.388910594260433
14600.0000000356,245.894568811018,1.00000000021479,0.440881109565887
14700.0000000359,244.233690942163,1.0000000002626,0.478647147600509
14800.0000000363,242.596824371804,1.00000000027858,0.498087815880306
14900.0000000367,240.987837322338,1.0000000003105,0.504844602368763
15000.000000037,239.411066548857,1.00000000031335,0.508533639561044
15100.0000000374,237.870218298253,1.00000000032608,0.515517441128972
15200.0000000378,236.366832612358,1.00000000031967,0.523287495116369
15300.0000000381,234.898581965673,1.00000000028467,0.524631639069904
15400.0000000385,233.458498074879,1.00000000026526,0.513848129768601
15500.0000000389,232.035973663162,1.00000000022852,0.488655557870099
15600.0000000392,230.620322464961,1.00000000020023,0.450909952762688
15700.0000000396,229.204462603509,1.00000000016317,0.40748635677883
15800.0000000399,227.78740418748,1.00000000014347,0.366666753751932
15900.0000000403,226.374221361436,1.0000000001233,0.334693479777913
16000.0000000407,224.97407572663,1.00000000011691,0.317426338327606
16100.000000041,223.596866977369,1.00000000011381,0.321449605936991
16200.0000000414,222.250080825148,1.00000000013151,0.340866339099884
16300.0000000418,220.936272087963,1.0000000001553,0.368642390652878
16400.0000000418,219.651583014894,1.00000000019226,0.403048387052941
16500.0000000404,218.387314533696,1.00000000022921,0.443044860662355
16600.0000000389,217.135183248884,1.00000000025727,0.477517844791643
16700.0000000375,215.890475172879,1.00000000025433,0.497258489027436
16800.000000036,214.6521538758,1.0000000002453,0.49925087640486
16900.0000000346,213.42062155607,1.00000000024084,0.488761924040542
17000.0000000331,212.196385496495,1.00000000025038,0.477539355968703
17100.0000000317,210.979376276909,1.00000000026119,0.476463400976472
17200.0000000302,209.769648328807,1.00000000029672,0.48852251094198
17300.0000000287,208.568151449456,1.00000000030759,0.508857040859775
17400.0000000273,207.377032319888,1.00000000030082,0.526083961461098
17500.0000000258,206.198615616314,1.00000000030217,0.531481351055744
17600.0000000244,205.034086393379,1.00000000028046,0.523128809004139
17700.0000000229,203.882987385574,1.00000000024356,0.501046880849484
17800.0000000215,202.74495034825,1.00000000018928,0.467398436447921
17900.00000002,201.621920974524,1.00000000015201,0.426503460729117
18000.0000000186,200.519654168249,1.0000000001177,0.385853162158822
18100.0000000171,199.447185124466,1.00000000010516,0.35370946000466
18200.0000000156,198.413270208891,1.00000000010965,0.334070528989681
18300.0000000142,197.423075135406,1.00000000012952,0.32688269668582
18400.0000000127,196.477486875727,1.00000000014691,0.331611458184018
18500.0000000113,195.575125398611,1.00000000016495,0.350120258641758
18600.0000000098,194.712458181453,1.00000000018344,0.375475264628675
18700.0000000084,193.883609992615,1.00000000019741,0.401350774484709
18800.0000000069,193.079227226133,1.00000000021092,0.42397747794855
18900.0000000055,192.286761537504,1.00000000024399,0.444815080559022
19000.000000004,191.494461530611,1.00000000025984,0.464597096494042
19100.0000000026,190.693927069155,1.00000000027316,0.483507064023308
19200.0000000011,189.883215417366,1.00000000026672,0.4988817769873
19299.9999999996,189.065511234241,1.00000000024692,0.504022602611936
19399.9999999982,188.247897430193,1.00000000021591,0.496304596279725
19499.9999999967,187.437022096844,1.00000000019936,0.479085929658311
19599.9999999953,186.63694937981,1.00000000017885,0.460679976891424
19699.9999999938,185.846359018239,1.00000000019169,0.447836909453737
19799.9999999924,185.058874874568,1.00000000022004,0.446993072939338
19899.9999999909,184.265332327408,1.000000000254,0.457838486270528
19999.9999999895,183.458042699682,1.00000000028199,0.475262934949902
20099.999999988,182.633960330912,1.00000000031094,0.495911848538394
20199.9999999865,181.79524474022,1.00000000032709,0.515731147173566
20299.9999999851,180.94709286598,1.00000000030712,0.528360269697453
20399.9999999836,180.095318529286,1.00000000030671,0.531612947402384
20499.9999999822,179.245138775507,1.00000000027163,0.525852088702065
20599.9999999807,178.401026119378,1.00000000025079,0.510718619982631
20699.9999999793,177.567870454875,1.00000000021905,0.487191236211868
20799.9999999778,176.751185722943,1.00000000018802,0.458145218833749
20899.9999999764,175.958063321978,1.00000000015202,0.427447314836965
20999.9999999749,175.198181589884,1.00000000013004,0.39786791487854
21099.9999999734,174.482017223835,1.0000000001054,0.370513411612023
21199.999999972,173.819460530849,1.00000000010272,0.347570626068907
21299.9999999705,173.216593190424,1.00000000010699,0.332784708567639
21399.9999999691,172.673819671245,1.00000000012341,0.329789100960413
21499.9999999676,172.185021131038,1.00000000016094,0.339862284814256
21599.9999999662,171.739792310076,1.00000000018412,0.359832433735801
21699.9999999647,171.327474736395,1.00000000020721,0.382677750300334
21799.9999999633,170.938357068822,1.00000000021399,0.404176552039052
21899.9999999618,170.565807515688,1.00000000021989,0.423045094047631
21999.9999999603,170.204861535822,1.00000000022725,0.439561066427655
22099.9999999589,169.849122312238,1.00000000022546,0.453140096808684
22199.9999999574,169.492541541017,1.00000000023557,0.46382538831611
22299.999999956,169.128888050404,1.00000000023846,0.47228119051245
22399.9999999545,168.751929060672,1.00000000024093,0.47978286837765
22499.9999999531,168.357367992612,1.00000000023956,0.486732533433786
22599.9999999516,167.942869484028,1.00000000024705,0.494073534763594
22699.9999999502,167.508107606137,1.00000000025471,0.502255818368664
22799.9999999487,167.055703162419,1.00000000024925,0.510107280040695
22899.9999999473,166.591411450185,1.00000000023227,0.514290192766715
22999.9999999458,166.121715357323,1.00000000020747,0.511119061654023
23099.9999999443,165.654278544776,1.00000000019576,0.501155567894197
23199.9999999429,165.194786793213,1.00000000017282,0.489913600992386
23299.9999999414,164.745988834533,1.00000000017652,0.481587507698329
23399.99999994,164.306246287496,1.00000000017284,0.477539589700217
23499.9999999385,163.86997218305,1.00000000020166,0.474781792892061
23599.9999999371,163.430218703725,1.00000000022414,0.472311980152552
23699.9999999356,162.98010351186,1.00000000023241,0.471153876021147
23799.9999999342,162.516445119983,1.00000000024389,0.472718145335913
23899.9999999327,162.03637992761,1.00000000025628,0.476262996875628
23999.9999999312,161.538610772395,1.00000000027942,0.482396115804963
24099.9999999298,161.021680787226,1.00000000028993,0.493609849562948
24199.9999999283,160.485337677238,1.00000000031447,0.507888903556853
24299.9999999269,159.931725543848,1.00000000031296,0.522654933524187
24399.9999999254,159.364640145051,1.00000000030995,0.532971822227848
24499.999999924,158.789188880842,1.00000000029307,0.536673438383722
24599.9999999225,158.210118071208,1.00000000026649,0.533555163698465
24699.9999999211,157.633074890141,1.00000000025165,0.523230227377216
24799.9999999196,157.063938257583,1.00000000021654,0.506314173429191
24899.9999999181,156.509759768538,1.00000000018351,0.483339459745383
24999.9999999167,155.978707295931,1.00000000015825,0.456749925978761
25099.9999999152,155.480097954502,1.00000000013127,0.429941672284878
25199.9999999138,155.023529707443,1.00000000011927,0.407828064049204
25299.9999999123,154.616732194328,1.00000000011583,0.389959518355304
25399.9999999109,154.264723296978,1.00000000011351,0.375708649924496
25499.9999999094,153.969634427225,1.00000000013058,0.365312385130233
25599.999999908,153.732277534881,1.00000000013838,0.357338024943482
25699.9999999065,153.552224618759,1.000000000137,0.353687499751776
25799.9999999051,153.427655288187,1.00000000015109,0.354811552601194
25899.9999999036,153.353539730891,1.00000000016156,0.361166088013677
25999.9999999021,153.320402762925,1.00000000017787,0.374108883612344
26099.9999999007,153.315516083208,1.000000000207,0.391258868984174
26199.9999998992,153.324320079188,1.0000000002195,0.409875008911368
26299.9999998978,153.333117003459,1.00000000024834,0.426690679642986
26399.9999998963,153.332249691988,1.00000000025696,0.442024263674347
26499.9999998949,153.316922480794,1.00000000026186,0.45598535853546
26599.9999998934,153.28668450269,1.00000000023862,0.468560792735909
26699.999999892,153.244196334752,1.00000000024538,0.478816720438514
26799.9999998905,153.193527860723,1.0000000002315,0.485946707016142
26899.999999889,153.139127322831,1.0000000002157,0.489530565299473
26999.9999998876,153.085489519769,1.00000000019581,0.490581509285752
27099.9999998861,153.035989411123,1.00000000018862,0.490106202667083
27199.9999998847,152.991403317194,1.00000000019306,0.489152966583164
27299.9999998832,152.948954401806,1.00000000019595,0.48870083811974
27399.9999998818,152.902783906405,1.00000000020573,0.489752863892739
27499.9999998803,152.845344633215,1.00000000023712,0.493187828700572
27599.9999998789,152.769286077337,1.00000000025144,0.500564706998993
27699.9999998774,152.668764320943,1.00000000024107,0.507443388898055
27799.9999998759,152.540164891469,1.00000000026026,0.511669795993276
27899.9999998745,152.382764513829,1.00000000027736,0.512007443311772
27999.999999873,152.197649641176,1.00000000026428,0.509413003629158
28099.9999998716,151.987368770198,1.00000000025207,0.508124237596315
28199.9999998701,151.755231462527,1.00000000025428,0.511377400536996
28299.9999998687,151.50520102163,1.00000000024859,0.51804791277213
28399.9999998672,151.242217755724,1.00000000023149,0.52222560227362
28499.9999998658,150.971873976016,1.00000000021497,0.519384278257212
28599.9999998643,150.700040404522,1.00000000020853,0.511231291882381
28699.9999998629,150.431733035698,1.00000000018908,0.501899424074794
28799.9999998614,150.170818769065,1.00000000016866,0.494972878551503
28899.9999998599,149.919317474949,1.00000000017211,0.491873275708474
