Time,AGPnorm,Energy,Entropy
0,0,1,-7.48686537177326e-17
99.9999999999986,0.00207391972521977,1.00000000000047,0.00642953677908145
199.999999999993,0.0145468267664311,1.00000000000196,0.0186588947664839
300,0.0286837388412819,1.00000000000223,0.0345760432540952
400.000000000022,0.0433971903511375,1.00000000000101,0.0546529834717351
500.000000000045,0.060434876315043,0.999999999999463,0.0791535601098565
600.000000000068,0.081886326149544,1.00000000000114,0.108533910866672
700.000000000091,0.101390334371168,1.00000000000302,0.144314604569144
800.000000000113,0.120909156237093,1.00000000001914,0.189938664811433
900.000000000136,0.139259875553156,1.00000000016705,0.250011298432132
1000.00000000016,0.156323313673384,1.00000000056888,0.31590487076979
1100.0000000001,0.232988512894055,1.0000000011177,0.37697114358072
1200,0.450214126124806,1.000000001695,0.428187417886259
1299.99999999991,0.885346807818487,1.00000000209162,0.470902402864681
1399.99999999982,1.6513054143612,1.00000000246668,0.504801346863616
1499.99999999973,2.82473680855214,1.00000000279271,0.531698024582279
1599.99999999964,4.4133545020654,1.00000000299465,0.553113308749254
1699.99999999955,6.39973301898528,1.00000000304152,0.56941568230802
1799.99999999946,8.74302817713872,1.00000000288007,0.580834704405479
1899.99999999937,11.3351285702425,1.00000000293131,0.588743641706754
1999.99999999928,14.058541582752,1.00000000282617,0.595114184874724
2099.99999999919,16.851875625076,1.00000000275884,0.598148248646081
2199.99999999909,19.6550812207209,1.00000000273979,0.599060201712222
2299.999999999,22.3745600312958,1.00000000259391,0.598711904320962
2399.99999999891,24.9199623011622,1.00000000248469,0.597613900373354
2499.99999999882,27.2511173232021,1.00000000237598,0.597126523531961
2599.99999999873,29.3593228510864,1.00000000223941,0.594500848849291
2699.99999999864,31.2252820784363,1.00000000213422,0.590621719954812
2799.99999999855,32.8223670407557,1.0000000020208,0.587778617194874
2899.99999999846,34.1388364268414,1.00000000204859,0.586439961860022
2999.99999999837,35.1878155883732,1.00000000180238,0.584858837805649
3099.99999999828,35.9908512582062,1.00000000177277,0.583115229348463
3199.99999999819,36.5597145169851,1.00000000179973,0.585688527281758
3299.99999999809,36.9043314971207,1.00000000178891,0.579602833839367
3399.999999998,37.054943765239,1.00000000164329,0.57955924688705
3499.99999999791,37.0318229567935,1.00000000171294,0.581142263926491
3599.99999999782,36.8772428262721,1.00000000160654,0.56565761296233
3699.99999999773,36.6109590934504,1.00000000175687,0.575221937219224
3799.99999999764,36.2521067140201,1.00000000154413,0.556233656304406
3899.99999999755,35.8190447757882,1.00000000185037,0.572519577918321
3999.99999999746,35.3346292454188,1.00000000146787,0.546182170912841
4099.99999999738,34.8073400411478,1.00000000203983,0.576053981762835
4199.99999999775,34.2667526466909,1.00000000157164,0.544053523189593
4299.99999999811,33.6873775013611,1.00000000184062,0.56031102820001
4399.99999999848,33.1183983133953,1.00000000174187,0.539899166566358
4499.99999999884,32.5301020126606,1.00000000156685,0.521341175920417
4599.9999999992,31.9460116373037,1.0000000021206,0.567632308873229
4699.99999999957,31.3772698868405,1.00000000160178,0.519756992558497
4799.99999999993,30.8004918734981,1.00000000167648,0.5224958212958
4900.00000000029,30.2356097725186,1.00000000220831,0.555590972794552
5000.00000000066,29.6877390647487,1.00000000160249,0.500500612482884
5100.00000000102,29.1454610688151,1.00000000175529,0.529637504004863
5200.00000000139,28.6138866678122,1.00000000189966,0.531855147794632
5300.00000000175,28.0999680315494,1.00000000189196,0.52016044324082
5400.00000000211,27.6003143339924,1.00000000151877,0.501628007776186
5500.00000000248,27.1118468321361,1.00000000175367,0.539777010165686
5600.00000000284,26.6385969685184,1.0000000017452,0.523206235891119
5700.00000000321,26.1811428438455,1.00000000182183,0.509746089862488
5800.00000000357,25.7403874239547,1.00000000153692,0.505316995554956
5900.00000000393,25.3148081918348,1.0000000018198,0.547404340119575
6000.0000000043,24.9027012095009,1.00000000171534,0.532455919618442
6100.00000000466,24.5083643775685,1.00000000171035,0.514400242786673
6200.00000000502,24.128117884068,1.0000000018557,0.509206869008953
6300.00000000539,23.764878025936,1.00000000158827,0.515993106619637
6400.00000000575,23.4165509547499,1.00000000197294,0.548728075247553
6500.00000000612,23.0775791067078,1.00000000170049,0.538589072903804
6600.00000000648,22.756908117057,1.00000000161101,0.506202126697078
6700.00000000684,22.4509154845776,1.00000000181034,0.51779830400186
6800.00000000721,22.1564449691932,1.00000000181845,0.504980837154082
6900.00000000757,21.8762969675138,1.00000000173124,0.522847581612165
7000.00000000793,21.6057394423956,1.00000000192119,0.541387229512722
7100.0000000083,21.3395689305483,1.00000000182673,0.540256419768954
7200.00000000866,21.0896499148135,1.00000000169758,0.526079942409922
7300.00000000903,20.8533039926224,1.00000000178498,0.522225213289784
7400.00000000939,20.6291004381843,1.00000000182608,0.520141724620306
7500.00000000975,20.4156613753909,1.00000000182618,0.509218817730904
7600.00000001012,20.2125061539514,1.00000000176529,0.539096993699116
7700.00000001048,20.0154184523944,1.00000000172573,0.557846320627733
7800.00000001084,19.8238857649896,1.00000000178812,0.540366980797785
7900.00000001121,19.6393008365933,1.00000000184973,0.545387011486581
8000.00000001157,19.4610573989784,1.00000000173081,0.545769215047937
8100.00000001194,19.2959313663622,1.00000000172309,0.529918530496411
8200.0000000123,19.1414021995715,1.00000000182198,0.539879500935393
8300.00000001266,18.9990292467258,1.00000000167918,0.530286274003523
8400.00000001303,18.8680046298689,1.00000000172029,0.534330759374935
8500.00000001339,18.7354821910293,1.0000000020043,0.562618896071416
8600.00000001376,18.6043582964887,1.00000000168805,0.559722618011805
8700.00000001412,18.4853775283161,1.00000000177302,0.547590454141558
8800.00000001448,18.3681925554962,1.00000000194213,0.556593348475005
8900.00000001485,18.2457316225898,1.00000000191805,0.572560098209321
9000.00000001521,18.1265440687472,1.00000000172657,0.558080756769675
9100.00000001557,18.0176467221662,1.00000000175445,0.544008467171449
9200.00000001594,17.9195815945337,1.00000000185657,0.550921279430124
9300.0000000163,17.8336676738341,1.00000000174638,0.542923758657704
9400.00000001667,17.7565917006218,1.00000000181238,0.549546265142755
9500.00000001703,17.6828093823125,1.00000000184593,0.566741523735702
9600.00000001739,17.6034951929515,1.00000000205837,0.569258102770409
9700.00000001776,17.5240495670091,1.00000000178346,0.563530266808499
9800.00000001812,17.4576362745462,1.0000000015412,0.547164870423088
9900.00000001848,17.3983955889146,1.00000000192661,0.562954223605749
10000.0000000188,17.333174193805,1.0000000019894,0.574147908319823
10100.0000000192,17.2608921911074,1.00000000199039,0.580329056104101
10200.0000000196,17.1840776658083,1.00000000194485,0.586919798158784
10300.0000000199,17.1096919856784,1.0000000018415,0.577416058556679
10400.0000000203,17.0439966533724,1.00000000187057,0.565206796750999
10500.0000000207,16.9896268433581,1.00000000177899,0.57064061745391
10600.000000021,16.9473257087403,1.00000000183568,0.557246697613707
10700.0000000214,16.914026911026,1.00000000188336,0.556436779554376
10800.0000000218,16.8826138047878,1.00000000196394,0.572585098696422
10900.0000000221,16.8493328324973,1.000000002019,0.584984009422148
11000.0000000225,16.8140848967548,1.00000000184404,0.578393069977061
11100.0000000229,16.782589826213,1.00000000188549,0.57253730977215
11200.0000000232,16.7521499822985,1.00000000192156,0.577807267599506
11300.0000000236,16.7263278839854,1.00000000181232,0.570436608946438
11400.0000000239,16.7031839558216,1.00000000191843,0.573902439800408
11500.0000000243,16.6776473585671,1.0000000019413,0.582782664889001
11600.0000000247,16.6450255892242,1.00000000193487,0.593159660188701
11700.000000025,16.6088377854524,1.00000000188685,0.583734116570264
11800.0000000254,16.5686367840174,1.00000000206354,0.578787223832787
11900.0000000258,16.5240119791767,1.00000000199817,0.582972033136463
12000.0000000261,16.4801891909535,1.00000000188735,0.586840178048227
12100.0000000265,16.4395727654972,1.00000000187359,0.58331773829482
12200.0000000269,16.4060084000849,1.00000000187268,0.578433988574488
12300.0000000272,16.3815564668718,1.00000000195286,0.575477087000083
12400.0000000276,16.3675066436425,1.00000000183979,0.555530423534055
12500.0000000279,16.3625573339724,1.00000000192256,0.558085933662255
12600.0000000283,16.3609842170453,1.00000000207256,0.577839720606028
12700.0000000287,16.357284896551,1.00000000208464,0.587974996862012
12800.000000029,16.3518808579712,1.00000000191693,0.586003578035271
12900.0000000294,16.3460453261751,1.00000000199702,0.584495292616754
13000.0000000298,16.3420473956499,1.00000000192595,0.586691941387532
13100.0000000301,16.3413141542281,1.00000000196814,0.58669893492685
13200.0000000305,16.339571709863,1.00000000213893,0.593645663427073
13300.0000000309,16.3386630734049,1.00000000199432,0.589911444301071
13400.0000000312,16.3439319509998,1.00000000187563,0.591632566320386
13500.0000000316,16.3488289381866,1.00000000203456,0.613116131528114
13600.0000000319,16.3447840142525,1.00000000217819,0.623981533994365
13700.0000000323,16.3324094964188,1.00000000207882,0.619547895823493
13800.0000000327,16.3174358480163,1.00000000191869,0.614080506357448
13900.000000033,16.3073188426747,1.0000000019097,0.611091602125943
14000.0000000334,16.2982541921663,1.00000000197673,0.615654324120003
14100.0000000338,16.2870723705473,1.00000000209803,0.625462119915751
14200.0000000341,16.2677811177941,1.00000000219406,0.624636234075059
14300.0000000345,16.2400823003115,1.00000000211783,0.624039622799307
14400.0000000349,16.2072681956935,1.00000000206497,0.631154233507062
14500.0000000352,16.1762688680824,1.00000000207709,0.625344120661817
14600.0000000356,16.1519896728965,1.00000000192314,0.612690795908361
14700.0000000359,16.1371313303731,1.00000000196545,0.608368556107709
14800.0000000363,16.1329027471455,1.00000000189688,0.603249126941419
14900.0000000367,16.1399540114553,1.00000000196492,0.602322506471538
15000.000000037,16.1538932201387,1.00000000199886,0.597496953004296
15100.0000000374,16.1694721146498,1.00000000209195,0.608181036889667
15200.0000000378,16.1836855738148,1.00000000212423,0.608709464207889
15300.0000000381,16.197633593386,1.00000000202644,0.614228173242655
15400.0000000385,16.2117736301931,1.00000000216407,0.618137447120637
15500.0000000389,16.2259040218571,1.00000000200536,0.610504791389152
15600.0000000392,16.2415820020549,1.00000000209646,0.612388555184051
15700.0000000396,16.259528322204,1.00000000206973,0.61565926546106
15800.0000000399,16.2774577474953,1.00000000206438,0.618142073259128
15900.0000000403,16.2961755849249,1.00000000221034,0.625384279497669
16000.0000000407,16.3164080982199,1.00000000210993,0.628141618327181
16100.000000041,16.3354520529722,1.00000000227715,0.631331399303918
16200.0000000414,16.3488278426245,1.00000000220679,0.627538679644303
16300.0000000418,16.3601686006881,1.00000000214618,0.620318657669586
16400.0000000418,16.3707162410634,1.00000000208124,0.616936083225191
16500.0000000404,16.3813743536168,1.00000000224898,0.639278473218429
16600.0000000389,16.3923453096409,1.00000000216531,0.639481008060486
16700.0000000375,16.4019351136823,1.0000000020656,0.640061178866904
16800.000000036,16.4104234981682,1.00000000207594,0.639495627651226
16900.0000000346,16.4168400529839,1.00000000221102,0.640802013998704
17000.0000000331,16.4218712269731,1.00000000205938,0.636525020875018
17100.0000000317,16.4243597732392,1.00000000222686,0.648532975070377
17200.0000000302,16.4232203457021,1.00000000211571,0.653710038547673
17300.0000000287,16.4194721034096,1.00000000221594,0.656433479712975
17400.0000000273,16.4099127041139,1.00000000221954,0.65477395297336
17500.0000000258,16.3975247668211,1.00000000215151,0.662032418069241
17600.0000000244,16.382183166393,1.00000000217403,0.656992713889405
17700.0000000229,16.3631679683826,1.00000000231855,0.663340260487259
17800.0000000215,16.339900756181,1.00000000226655,0.659899369014546
17900.00000002,16.3138540494805,1.00000000225489,0.660065218844034
18000.0000000186,16.288128123204,1.0000000022299,0.658807816461375
18100.0000000171,16.2645872732312,1.00000000206157,0.658663061202269
18200.0000000156,16.2452527374101,1.00000000230012,0.650103499463686
18300.0000000142,16.2315113235819,1.00000000212267,0.636609085948813
18400.0000000127,16.2252113071496,1.00000000213808,0.632354777849348
18500.0000000113,16.227107063188,1.00000000219371,0.633516519846156
18600.0000000098,16.2372033255752,1.00000000204313,0.625352903126994
18700.0000000084,16.2570878957642,1.00000000211757,0.614735743272128
18800.0000000069,16.281992672385,1.00000000223702,0.610491649501165
18900.0000000055,16.311467785066,1.00000000232367,0.619661864945818
19000.000000004,16.3401187658351,1.00000000230143,0.623857276805683
19100.0000000026,16.3672917354055,1.00000000239369,0.630604602494651
19200.0000000011,16.3945145611048,1.00000000216239,0.626949481460952
19299.9999999996,16.4240748044105,1.00000000226937,0.628150766402077
19399.9999999982,16.4544294546436,1.00000000219338,0.625026707431614
19499.9999999967,16.4841694355403,1.00000000228273,0.628149385113375
19599.9999999953,16.5168132999474,1.00000000224503,0.616279897952522
19699.9999999938,16.5509990406147,1.00000000223491,0.619792084370976
19799.9999999924,16.5865478496754,1.00000000229078,0.626850514553879
19899.9999999909,16.6206651937103,1.00000000230456,0.633182235938213
19999.9999999895,16.6532055600795,1.00000000228952,0.629455482546505
20099.999999988,16.6852120904862,1.00000000235073,0.640714258506824
20199.9999999865,16.7196163397079,1.00000000224037,0.646768177124805
20299.9999999851,16.7520876345839,1.00000000254959,0.649565654688829
20399.9999999836,16.7786517401203,1.00000000247962,0.647906391311042
20499.9999999822,16.7992872878685,1.00000000244196,0.648588234300008
20599.9999999807,16.819600038677,1.00000000232726,0.658905758604657
20699.9999999793,16.8386633848246,1.00000000230135,0.658440303831069
20799.9999999778,16.8597772333827,1.00000000240188,0.659254021002397
20899.9999999764,16.8833978929219,1.00000000236983,0.661322067144327
20999.9999999749,16.9094899175734,1.00000000237435,0.654886040917826
21099.9999999734,16.9359517864406,1.00000000236306,0.660793969907807
21199.999999972,16.9629818828514,1.00000000238148,0.670718258357271
21299.9999999705,16.9886783770349,1.00000000243947,0.676335205243177
21399.9999999691,17.0120016940996,1.00000000247417,0.672491666346461
21499.9999999676,17.0330083746744,1.00000000254485,0.675295701806118
21599.9999999662,17.0489481114839,1.00000000250775,0.678074866335114
21699.9999999647,17.0628361496927,1.0000000024535,0.675901103106127
21799.9999999633,17.0773489066111,1.00000000249491,0.679905620904403
21899.9999999618,17.0933038983303,1.0000000024329,0.676492670043764
21999.9999999603,17.1100128163285,1.00000000243235,0.6750318015245
22099.9999999589,17.1269566126586,1.00000000253376,0.67927954479698
22199.9999999574,17.1439803583494,1.00000000250427,0.683203566068223
22299.999999956,17.1589504319431,1.00000000246628,0.680785878251486
22399.9999999545,17.1712359298491,1.00000000248757,0.673390162591469
22499.9999999531,17.1803520383431,1.00000000251408,0.67365871955265
22599.9999999516,17.1861513348639,1.00000000258595,0.674924366220535
22699.9999999502,17.1916183001986,1.00000000240131,0.668235701906225
22799.9999999487,17.1989748271612,1.00000000251569,0.674500335704072
22899.9999999473,17.2006327376651,1.00000000285768,0.6814677142034
22999.9999999458,17.1994968753835,1.00000000245995,0.682304899742403
23099.9999999443,17.1980497830695,1.00000000241939,0.682899826110458
23199.9999999429,17.1960438228035,1.00000000247489,0.674516637994434
23299.9999999414,17.1919021569396,1.00000000245322,0.664327166815816
23399.99999994,17.1845400693584,1.00000000260289,0.675940784864445
23499.9999999385,17.1745610631647,1.00000000268242,0.681861553163001
23599.9999999371,17.1616891176392,1.00000000256555,0.674663452152665
23699.9999999356,17.1483487258309,1.00000000248587,0.670706072443305
23799.9999999342,17.1345098584943,1.00000000258729,0.677217127231803
23899.9999999327,17.1221563806436,1.00000000252709,0.674432030861782
23999.9999999312,17.110325171116,1.00000000245726,0.673582786112498
24099.9999999298,17.0991495873537,1.00000000258744,0.670102269933466
24199.9999999283,17.0905184660465,1.00000000247458,0.66772834611734
24299.9999999269,17.087321759421,1.00000000257523,0.664933785067753
24399.9999999254,17.088158965314,1.00000000247686,0.659774802087935
24499.999999924,17.0935156146461,1.00000000262061,0.661108968768266
24599.9999999225,17.1041287757604,1.00000000253264,0.661012093805467
24699.9999999211,17.1221339944636,1.0000000024467,0.652764997139308
24799.9999999196,17.1485508492856,1.00000000245994,0.655765845460196
24899.9999999181,17.1829275052857,1.00000000247762,0.651735084232574
24999.9999999167,17.2248127020753,1.00000000243326,0.645012206840074
25099.9999999152,17.2710523758769,1.00000000262272,0.642433022155959
25199.9999999138,17.3192142889165,1.00000000250744,0.630534514049264
25299.9999999123,17.3689117999991,1.00000000275929,0.637411999508765
25399.9999999109,17.4178990547874,1.00000000263222,0.638297756961776
25499.9999999094,17.4669948487476,1.00000000272318,0.630281790820045
25599.999999908,17.5154376232456,1.00000000281091,0.632019731274754
25699.9999999065,17.5651667863888,1.00000000261412,0.62311351619449
25799.9999999051,17.6178632726983,1.00000000263181,0.626877228293959
25899.9999999036,17.6727172458811,1.00000000262558,0.622044240547078
25999.9999999021,17.7284551605993,1.00000000266794,0.626802983102691
26099.9999999007,17.7871682231474,1.00000000248703,0.629640271939765
26199.9999998992,17.8480481973588,1.00000000267601,0.627696316199597
26299.9999998978,17.9068434585301,1.00000000268028,0.631168515103636
26399.9999998963,17.96917783581,1.00000000257226,0.628954229412974
26499.9999998949,18.0367448084921,1.00000000251358,0.633522953907676
26599.9999998934,18.1037372137416,1.00000000271561,0.634062746700873
26699.999999892,18.1718927883643,1.00000000262342,0.640573532015852
26799.9999998905,18.238549180032,1.00000000274231,0.649539761223802
26899.999999889,18.3025417164219,1.00000000270284,0.649235110723931
26999.9999998876,18.3652913613805,1.00000000277516,0.654032099332594
27099.9999998861,18.420510565694,1.00000000280168,0.651873783754582
27199.9999998847,18.4719319161544,1.00000000270029,0.655282429821844
27299.9999998832,18.5206682433781,1.00000000285669,0.667658849359192
27399.9999998818,18.5668040038254,1.00000000266172,0.662900514231133
27499.9999998803,18.6170931183679,1.00000000253061,0.66108947356719
27599.9999998789,18.6699832516109,1.00000000272491,0.666674838622967
27699.9999998774,18.7207595731608,1.00000000266134,0.668306673974711
27799.9999998759,18.7727241228069,1.00000000273027,0.673316909358376
27899.9999998745,18.8231070762834,1.00000000286447,0.675409218982692
27999.999999873,18.8720251010153,1.00000000277298,0.678625232215041
28099.9999998716,18.9239474465399,1.00000000276696,0.682130002818571
28199.9999998701,18.9749809806347,1.00000000282309,0.688845729516637
28299.9999998687,19.0267006198321,1.00000000283576,0.692188141240672
28399.9999998672,19.0793563166564,1.00000000275407,0.686070761049195
28499.9999998658,19.1321926961064,1.00000000282606,0.698879280105739
28599.9999998643,19.1840957921107,1.00000000291359,0.69776312885044
28699.9999998629,19.2321916342654,1.00000000279739,0.700319744345194
28799.9999998614,19.2772838608814,1.00000000278752,0.697634803640199
28899.9999998599,19.3221432939707,1.00000000286117,0.692546108431926
28999.9999998585,19.3643499513189,1.00000000300618,0.700669808402653
