Time,AGPnorm,Energy,Entropy
0,0,1,7.20770963358357e-18
99.9999999999986,0.00380687057931542,0.9999999999997,0.0125748551480624
199.999999999993,0.0109670487691035,1.00000000000016,0.036512917270455
300,0.0228198779167315,0.99999999999972,0.0713833326083928
400.000000000022,0.0356039479888389,1.00000000000086,0.115491019405273
500.000000000045,0.0496860218613961,1.00000000000583,0.173494184865696
600.000000000068,0.0675035811198953,1.00000000007335,0.251064541564366
700.000000000091,0.0975107357737358,1.0000000003442,0.344523003937439
800.000000000113,0.295973708863524,1.00000000077482,0.428704096196184
900.000000000136,0.877305772266851,1.00000000114505,0.489431719406936
1000.00000000016,2.17154660572411,1.00000000132436,0.527464638684586
1100.0000000001,4.28599840951085,1.00000000159573,0.549383963196383
1200,7.19622932027835,1.00000000156543,0.559847063962894
1299.99999999991,10.7173754328815,1.00000000152649,0.564167710600446
1399.99999999982,14.5933531512168,1.00000000160273,0.56209457948949
1499.99999999973,18.5538533211381,1.00000000146174,0.556868924994857
1599.99999999964,22.379245630701,1.00000000133651,0.548547466088393
1699.99999999955,25.8783452134263,1.00000000130844,0.542957426398761
1799.99999999946,28.9514571833043,1.00000000131395,0.533616916749623
1899.99999999937,31.5021187271661,1.00000000120726,0.530695676621455
1999.99999999928,33.5135910841325,1.00000000112651,0.512148952742306
2099.99999999919,34.9929981574809,1.00000000112962,0.531030745201111
2199.99999999909,35.9715384169526,1.00000000091984,0.487841160779902
2299.999999999,36.4557372256295,1.00000000096498,0.525949338757285
2399.99999999891,36.6712326202095,1.00000000103388,0.523731199042367
2499.99999999882,36.482840862262,1.00000000062789,0.436016168382205
2599.99999999873,36.0230388783939,1.000000001102,0.542967088438913
2699.99999999864,35.5744616683193,1.00000000112117,0.543049616431288
2799.99999999855,34.9323037259579,1.0000000004658,0.382264065497601
2899.99999999846,34.0743287457483,1.00000000086613,0.465954745368296
2999.99999999837,33.2693542458427,1.00000000137585,0.571219284586322
3099.99999999828,32.5821896169077,1.00000000108617,0.522995596524721
3199.99999999819,31.8164922256171,1.00000000042774,0.337679034561834
3299.99999999809,30.9455433456295,1.00000000062257,0.379194130206958
3399.999999998,30.0864359401816,1.00000000116295,0.520569955054162
3499.99999999791,29.3194334052904,1.00000000129389,0.557727761582024
3599.99999999782,28.6466225464816,1.00000000113762,0.53252574937281
3699.99999999773,27.9660761043881,1.00000000060155,0.373999430856349
3799.99999999764,27.2761744904852,1.0000000004433,0.306578733950366
3899.99999999755,26.6210458491198,1.0000000007947,0.426420313175089
3999.99999999746,25.9758280308487,1.00000000111258,0.526636805020321
4099.99999999738,25.3493105113505,1.00000000105072,0.50024072319215
4199.99999999775,24.7540626594087,1.00000000126433,0.545929299544855
4299.99999999811,24.2029226869533,1.00000000114134,0.559560832885716
4399.99999999848,23.6774660135549,1.00000000062923,0.436515086069131
4499.99999999884,23.2037983855316,1.00000000036563,0.308558621229644
4599.9999999992,22.8336380998917,1.00000000065387,0.335498671553146
4699.99999999957,22.5211361840609,1.00000000095321,0.44488092930051
4799.99999999993,22.177658298218,1.0000000011475,0.523746310846716
4900.00000000029,21.7972401809817,1.0000000010892,0.543646729397947
5000.00000000066,21.4298342875922,1.00000000072714,0.483152069479474
5100.00000000102,21.0711168818667,1.00000000092138,0.480170216949684
5200.00000000139,20.6894318573511,1.00000000129087,0.525827621592709
5300.00000000175,20.3023355137532,1.00000000129928,0.571810912486649
5400.00000000211,19.9320557853339,1.00000000108787,0.549278925612795
5500.00000000248,19.5898452734524,1.00000000058617,0.440627487178781
5600.00000000284,19.3321521089562,1.00000000037698,0.337322647283674
5700.00000000321,19.221016669009,1.0000000004496,0.311530332326065
5800.00000000357,19.2320919310673,1.00000000078197,0.377632568112789
5900.00000000393,19.2532395652375,1.00000000102981,0.469796671429465
6000.0000000043,19.2259243589181,1.00000000097787,0.525305829059899
6100.00000000466,19.1542635145963,1.00000000092193,0.520620916347076
6200.00000000502,19.0365134942569,1.00000000107507,0.529349377798108
6300.00000000539,18.871711615315,1.00000000105691,0.548506523826703
6400.00000000575,18.6862734068082,1.00000000087411,0.529189738779055
6500.00000000612,18.5122734117436,1.00000000076709,0.513463254774871
6600.00000000648,18.3465556812206,1.00000000082105,0.517383122343522
6700.00000000684,18.1751931964005,1.00000000090759,0.523564797521767
6800.00000000721,17.9864280980891,1.00000000098396,0.522456566577721
6900.00000000757,17.7705070044031,1.00000000119544,0.535478306558272
7000.00000000793,17.5338272036817,1.00000000128761,0.556435905257845
7100.0000000083,17.2927329821895,1.00000000124439,0.577648987241336
7200.00000000866,17.0570577670387,1.00000000108621,0.557254363847914
7300.00000000903,16.8366013157538,1.00000000065165,0.483412188200598
7400.00000000939,16.6750165912122,1.00000000041592,0.393672091619719
7500.00000000975,16.6378600237013,1.00000000036863,0.337962568442249
7600.00000001012,16.7666711239634,1.00000000045986,0.326929370332459
7700.00000001048,17.0371892164674,1.00000000070694,0.366512430630218
7800.00000001084,17.3591445781696,1.00000000096324,0.433744969256904
7900.00000001121,17.6540407076041,1.00000000112108,0.487711616427752
8000.00000001157,17.875872451771,1.00000000107684,0.528765552698767
8100.00000001194,18.0378271568547,1.00000000094413,0.538613626290312
8200.0000000123,18.1553436543336,1.00000000094855,0.551157470346117
8300.00000001266,18.2207925478659,1.00000000104837,0.574537766680469
8400.00000001303,18.2332393189583,1.00000000102726,0.574809625645228
8500.00000001339,18.2114504427284,1.00000000098108,0.558563486903635
8600.00000001376,18.1660716438463,1.00000000094617,0.552066480087793
8700.00000001412,18.1008563958493,1.00000000103141,0.548693574867029
8800.00000001448,18.0120995629108,1.00000000106034,0.550430838024291
8900.00000001485,17.9157156213633,1.00000000087546,0.542681769212098
9000.00000001521,17.8344361712943,1.00000000074163,0.529629324921551
9100.00000001557,17.7651225151116,1.00000000089165,0.528971435970868
9200.00000001594,17.6885997629513,1.0000000009982,0.536451605769359
9300.0000000163,17.6067541370134,1.00000000091237,0.541438970285241
9400.00000001667,17.5264148590878,1.00000000087852,0.540845894301309
9500.00000001703,17.4450924957714,1.00000000093028,0.547612041407427
9600.00000001739,17.3529783221421,1.0000000010596,0.552747485278901
9700.00000001776,17.2449429445954,1.00000000096576,0.565093193773277
9800.00000001812,17.1299912645445,1.00000000099951,0.577191180049318
9900.00000001848,17.0139283746177,1.00000000077501,0.569667470307394
10000.0000000188,16.9000881682816,1.00000000086625,0.569833085206562
10100.0000000192,16.7787560629833,1.00000000089434,0.577661031891681
10200.0000000196,16.6459563463841,1.0000000010332,0.576663424254691
10300.0000000199,16.5034330090671,1.00000000115193,0.586894642891348
10400.0000000203,16.3566091067477,1.00000000124094,0.594020588642927
10500.0000000207,16.2146230228489,1.00000000132335,0.596636259730624
10600.000000021,16.0826612982317,1.00000000131721,0.600713500137093
10700.0000000214,15.9584199824165,1.00000000120063,0.596610429704268
10800.0000000218,15.8310180936616,1.00000000101793,0.573252116843741
10900.0000000221,15.6928609003089,1.00000000071017,0.526923481824888
11000.0000000225,15.5570065448444,1.00000000060597,0.468856406555973
11100.0000000229,15.4598949234572,1.00000000037368,0.408080937723378
11200.0000000232,15.4499442386253,1.00000000039254,0.363724492272582
11300.0000000236,15.5715900189452,1.00000000037785,0.340061819926508
11400.0000000239,15.8516502750688,1.00000000051636,0.348327246891514
11500.0000000243,16.2678401952172,1.00000000063943,0.366698666535712
11600.0000000247,16.7835991686268,1.00000000083228,0.397068120225478
11700.000000025,17.3226021333139,1.00000000099421,0.438333561457249
11800.0000000254,17.8404059484611,1.00000000102908,0.470343578551862
11900.0000000258,18.3107836793892,1.00000000110857,0.50020134466897
12000.0000000261,18.7168130427094,1.00000000111587,0.528155127661419
12100.0000000265,19.0671208938191,1.00000000096437,0.540191241008984
12200.0000000269,19.3689589077404,1.00000000102107,0.543132685919661
12300.0000000272,19.6223021908657,1.00000000097564,0.56552615221629
12400.0000000276,19.8257502332152,1.00000000101604,0.580192077146389
12500.0000000279,19.988559712104,1.00000000105336,0.581304206186172
12600.0000000283,20.110825847304,1.00000000102736,0.581729696370026
12700.0000000287,20.1983626836813,1.00000000103983,0.587762381728063
12800.000000029,20.2574321214424,1.00000000098791,0.596663903820396
12900.0000000294,20.2830203002453,1.00000000103623,0.597796099884976
13000.0000000298,20.2862955652364,1.00000000094616,0.579984266546615
13100.0000000301,20.2781550204831,1.00000000096699,0.566489730118019
13200.0000000305,20.2516958695328,1.00000000105615,0.566202146335719
13300.0000000309,20.2156288682969,1.0000000008921,0.561554797289622
13400.0000000312,20.1766037644462,1.00000000090605,0.564058377015121
13500.0000000316,20.1258802576428,1.00000000098533,0.569070817253323
13600.0000000319,20.0632097498288,1.00000000093307,0.577876422226373
13700.0000000323,19.9917475739579,1.00000000093557,0.582352298040724
13800.0000000327,19.9113355534839,1.00000000103687,0.574962886564534
13900.000000033,19.8232436603069,1.00000000101332,0.5820047600072
14000.0000000334,19.7295875043588,1.00000000088359,0.584000275090594
14100.0000000338,19.6355840288697,1.00000000091114,0.57675200237584
14200.0000000341,19.5462479199286,1.00000000080483,0.555281906710624
14300.0000000345,19.4655952576483,1.0000000008546,0.542438041217591
14400.0000000349,19.388057057013,1.00000000099708,0.549379989388565
14500.0000000352,19.30842507467,1.00000000098792,0.557679035273305
14600.0000000356,19.2291080201479,1.00000000098184,0.558772930403686
14700.0000000359,19.1446211766521,1.00000000107563,0.563347360299567
14800.0000000363,19.0578149596946,1.00000000089941,0.563349920175489
14900.0000000367,18.9776812347486,1.00000000090961,0.564427601067606
15000.000000037,18.9089846814593,1.00000000083968,0.561506934546187
15100.0000000374,18.8467773876719,1.00000000092773,0.550642648719245
15200.0000000378,18.7860254826288,1.00000000090831,0.559749037612057
15300.0000000381,18.7344176021727,1.00000000086488,0.54505782165761
15400.0000000385,18.6906722755661,1.0000000009523,0.533210199743814
15500.0000000389,18.6453575396616,1.00000000101799,0.533139467375868
15600.0000000392,18.5988646532778,1.00000000097287,0.541402707270579
15700.0000000396,18.5596406504507,1.00000000088681,0.551071872962716
15800.0000000399,18.5236966190079,1.00000000100007,0.572695010568787
15900.0000000403,18.4827612662848,1.00000000100992,0.590159859549031
16000.0000000407,18.4397711383104,1.00000000103248,0.589327708650491
16100.000000041,18.3924430332142,1.00000000093055,0.575913219499664
16200.0000000414,18.338014985004,1.00000000105089,0.567474398655227
16300.0000000418,18.2841757958437,1.00000000089376,0.565040445017092
16400.0000000418,18.2372787674486,1.00000000096045,0.576728585142658
16500.0000000404,18.1898279539315,1.00000000102844,0.588221927948635
16600.0000000389,18.1376118282467,1.00000000099685,0.595901802880272
16700.0000000375,18.0864674460815,1.00000000095529,0.592444233460167
16800.000000036,18.0310111443023,1.00000000103249,0.602017451127381
16900.0000000346,17.9670812121946,1.0000000010164,0.605421404162286
17000.0000000331,17.9002248605624,1.00000000096213,0.601475921444207
17100.0000000317,17.8316147871927,1.00000000097148,0.601350110267615
17200.0000000302,17.7593137248733,1.00000000100768,0.610302412828147
17300.0000000287,17.6861925116383,1.00000000095617,0.606985733540884
17400.0000000273,17.6179231319311,1.00000000089015,0.600753005727889
17500.0000000258,17.5506889092174,1.00000000099712,0.59741043632935
17600.0000000244,17.4798111705574,1.00000000100113,0.59204162434426
17700.0000000229,17.4069283116996,1.00000000102012,0.58704492356049
17800.0000000215,17.3359502488151,1.00000000084109,0.600744494744878
17900.00000002,17.2675272681768,1.00000000100176,0.608457914787957
18000.0000000186,17.1973135667499,1.00000000099497,0.606542325003699
18100.0000000171,17.1285347846351,1.00000000091152,0.592724552383599
18200.0000000156,17.062902181238,1.00000000095223,0.60028301462471
18300.0000000142,16.9953772078382,1.00000000103031,0.591365740622593
18400.0000000127,16.9232459969353,1.00000000094511,0.59515054255697
18500.0000000113,16.8489173281898,1.00000000101927,0.596518772114357
18600.0000000098,16.7731295051625,1.00000000101664,0.600844307050868
18700.0000000084,16.6960565361452,1.00000000097919,0.600081757247118
18800.0000000069,16.617636782171,1.00000000109959,0.61475204254828
18900.0000000055,16.5358871657806,1.00000000109851,0.623072397041662
19000.000000004,16.4527900975326,1.00000000102184,0.621800714325847
19100.0000000026,16.3709328734929,1.00000000087075,0.606798743194037
19200.0000000011,16.2905964902224,1.00000000099121,0.61468127929522
19299.9999999996,16.208618917722,1.00000000117258,0.627712670011
19399.9999999982,16.1256143375885,1.00000000106418,0.622121767161782
19499.9999999967,16.0436886963855,1.00000000088846,0.607549739573538
19599.9999999953,15.962394087709,1.00000000093581,0.590641252231243
19699.9999999938,15.8818364412798,1.00000000088523,0.6053581348118
19799.9999999924,15.8022170361769,1.00000000092956,0.619779156019356
19899.9999999909,15.7236243349179,1.00000000081264,0.609716208136957
19999.9999999895,15.646204759833,1.00000000083325,0.605309941728728
20099.999999988,15.5709714253706,1.00000000094019,0.608670240011446
20199.9999999865,15.4986179457537,1.00000000099543,0.618666494529231
20299.9999999851,15.4314672000288,1.00000000101941,0.604215379582292
20399.9999999836,15.3715252103402,1.00000000105711,0.612649365128634
20499.9999999822,15.32156696225,1.00000000116067,0.62402740382878
20599.9999999807,15.2881765333151,1.0000000011802,0.623610415607256
20699.9999999793,15.2709700706027,1.00000000126052,0.633810975152412
20799.9999999778,15.2815678605756,1.00000000132739,0.637691045794855
20899.9999999764,15.3129274656525,1.00000000130264,0.638037076516565
20999.9999999749,15.3837640474984,1.0000000013253,0.637909080738407
21099.9999999734,15.4748833474613,1.00000000142343,0.625367748466975
21199.999999972,15.6058072819254,1.0000000014143,0.613092817197917
21299.9999999705,15.7489050575382,1.00000000144518,0.601891465504903
21399.9999999691,15.9144060180991,1.0000000012729,0.590876610772034
21499.9999999676,16.0686325326001,1.00000000115516,0.581708757572259
21599.9999999662,16.2045028569286,1.0000000011029,0.574196314263173
21699.9999999647,16.3013401462975,1.00000000091495,0.554204422901966
21799.9999999633,16.3514654978139,1.00000000083421,0.526408698344044
21899.9999999618,16.355480287073,1.00000000072245,0.497927299770549
21999.9999999603,16.3199162960076,1.00000000062156,0.467931177076266
22099.9999999589,16.2597830623486,1.00000000053872,0.437706168488427
22199.9999999574,16.2008826751815,1.00000000048627,0.41251231285418
22299.999999956,16.1651945757307,1.00000000045176,0.389468237100385
22399.9999999545,16.1863748980502,1.00000000041215,0.369074775141704
22499.9999999531,16.2928204361026,1.00000000038111,0.35327448886499
22599.9999999516,16.5015907380315,1.00000000049443,0.346921458157896
22699.9999999502,16.847468421222,1.00000000048419,0.349943321017796
22799.9999999487,17.310296894989,1.00000000054844,0.357056192415933
22899.9999999473,17.9193851812647,1.00000000061677,0.366248626776763
22999.9999999458,18.6288024815734,1.00000000074923,0.380044699830915
23099.9999999443,19.4349256686133,1.00000000078104,0.392612250064425
23199.9999999429,20.3056384437528,1.0000000010096,0.407702851742753
23299.9999999414,21.1964450864456,1.00000000097525,0.424583423859217
23399.99999994,22.1140013773388,1.0000000011397,0.442776267082473
23499.9999999385,22.9978784750027,1.0000000011283,0.455332134528151
23599.9999999371,23.8798033881012,1.00000000121639,0.478819450882903
23699.9999999356,24.711656943578,1.00000000113231,0.489299154138966
23799.9999999342,25.5158067693877,1.00000000122411,0.494769374361264
23899.9999999327,26.2628498864959,1.00000000115169,0.512780007210303
23999.9999999312,26.9716278332983,1.00000000117097,0.519266069351946
24099.9999999298,27.6385186232087,1.00000000108254,0.530718805466325
24199.9999999283,28.2464707777624,1.00000000109629,0.540087183590651
24299.9999999269,28.8260589186583,1.00000000113199,0.549772023751558
24399.9999999254,29.3592367542358,1.00000000105243,0.5587638513194
24499.999999924,29.8669380796481,1.00000000107797,0.570267174624743
24599.9999999225,30.331126868079,1.00000000109411,0.573477932040081
24699.9999999211,30.7612275535629,1.00000000103438,0.579299393191818
24799.9999999196,31.1543751017843,1.00000000111487,0.606405154301085
24899.9999999181,31.5077375254767,1.00000000107748,0.604810122641098
24999.9999999167,31.8402280120421,1.00000000110523,0.598327625283829
25099.9999999152,32.1297193923691,1.00000000114399,0.605640844330948
25199.9999999138,32.385374030482,1.00000000117516,0.628698938340989
25299.9999999123,32.5960609552014,1.00000000115108,0.633692136162137
25399.9999999109,32.7913534180166,1.00000000098561,0.618927291937771
25499.9999999094,32.9644536623617,1.00000000103697,0.61400909912088
25599.999999908,33.1143661080624,1.00000000107077,0.613241172773111
25699.9999999065,33.2372062586835,1.0000000011586,0.629153915517724
25799.9999999051,33.3244249900465,1.00000000116405,0.631176555709473
25899.9999999036,33.3962866295801,1.00000000106453,0.626958676863004
25999.9999999021,33.4543028608776,1.00000000096362,0.607661360367555
26099.9999999007,33.5090355500385,1.00000000101457,0.601571268117137
26199.9999998992,33.5479858667334,1.00000000107617,0.603482731395575
26299.9999998978,33.5716296773171,1.00000000107282,0.623256739967437
26399.9999998963,33.5748558892088,1.00000000116926,0.631511862666068
26499.9999998949,33.5617570927109,1.00000000110594,0.626870595648121
26599.9999998934,33.5442528098432,1.00000000097746,0.618039083401644
26699.999999892,33.5222576152985,1.00000000094938,0.607132078014006
26799.9999998905,33.4987714308721,1.00000000102918,0.605009593366512
26899.999999889,33.4652765513442,1.00000000110064,0.585898648137445
26999.9999998876,33.4272637899745,1.00000000119379,0.586159337372026
27099.9999998861,33.3822191162897,1.00000000104201,0.606632927420877
27199.9999998847,33.3301806961041,1.00000000130474,0.629281949221991
27299.9999998832,33.2711743421383,1.00000000117515,0.63169670753404
27399.9999998818,33.2112953683055,1.0000000009138,0.60100929952302
27499.9999998803,33.158033334254,1.00000000096677,0.584874996988684
27599.9999998789,33.103800617445,1.00000000113887,0.599500993007246
27699.9999998774,33.0406831236075,1.00000000104147,0.592180436084791
27799.9999998759,32.9660623513557,1.00000000113914,0.591708949802101
27899.9999998745,32.8886469526953,1.00000000099499,0.579029597603844
27999.999999873,32.811328919959,1.00000000107179,0.575882113875746
28099.9999998716,32.7340817572719,1.00000000106263,0.591600067253184
28199.9999998701,32.653886578292,1.00000000118751,0.605766869467377
28299.9999998687,32.5674949736622,1.00000000117582,0.620504819871234
28399.9999998672,32.4790217053084,1.00000000102816,0.615561629629459
28499.9999998658,32.3937251706908,1.00000000093869,0.596759767447367
28599.9999998643,32.313070168844,1.00000000103984,0.602494386082124
28699.9999998629,32.2329081654153,1.00000000108412,0.605484751003192
28799.9999998614,32.1507194457865,1.00000000108255,0.60063912208743
28899.9999998599,32.0693537874021,1.00000000100418,0.582041411665581
28999.9999998585,31.9940417630877,1.00000000093681,0.561815476296788
