Time,AGPnorm,Energy,Entropy
0,0,1,-7.47466184223504e-19
99.9999999999986,0.0106888472769247,0.999999999995988,0.0276558759275139
199.999999999993,0.0272401153076167,0.999999999999981,0.080278083277979
300,0.0530004650098353,1.00000000000221,0.164170834116827
400.000000000022,0.0813704180386371,1.00000000035448,0.295882525567284
500.000000000045,0.18285233288779,1.00000000191358,0.441582706619032
600.000000000068,0.782030500506739,1.00000000313309,0.529754304526586
700.000000000091,2.1711522097808,1.00000000368451,0.573677214349133
800.000000000113,4.24396262577024,1.0000000040342,0.590424921510682
900.000000000136,6.69770512701694,1.000000003595,0.591451943687707
1000.00000000016,9.09294969215481,1.00000000327792,0.585438085589754
1100.0000000001,11.1904954710988,1.00000000309578,0.577459226833095
1200,12.8010527275202,1.0000000026584,0.565386414446707
1299.99999999991,13.8825687362516,1.00000000257093,0.564186143526449
1399.99999999982,14.4686449491609,1.00000000244515,0.565684408871791
1499.99999999973,14.6331468821447,1.00000000190727,0.532824465938326
1599.99999999964,14.5495454458892,1.00000000195066,0.518497626485335
1699.99999999955,14.2395006371605,1.00000000280579,0.583835349031757
1799.99999999946,13.8253329111297,1.00000000134451,0.446308578732208
1899.99999999937,13.3619805878912,1.00000000300858,0.580805931774783
1999.99999999928,12.8771955335902,1.00000000132164,0.41283024773135
2099.99999999919,12.3632038833883,1.00000000312603,0.56343201449075
2199.99999999909,11.9077933989736,1.00000000187741,0.457057338626368
2299.999999999,11.4393141920806,1.00000000196278,0.45600357371143
2399.99999999891,10.983395156461,1.00000000293124,0.550566923489888
2499.99999999882,10.5777990148354,1.00000000187027,0.481808940479767
2599.99999999873,10.2096427004974,1.00000000191983,0.431217265442496
2699.99999999864,9.84803967948945,1.00000000231227,0.512413074995132
2799.99999999855,9.50411147012411,1.00000000266383,0.538152825332541
2899.99999999846,9.18315787202006,1.00000000218011,0.519762753936074
2999.99999999837,8.93235929803274,1.00000000145026,0.414597305772233
3099.99999999828,8.70202852906027,1.00000000258532,0.5049025583211
3199.99999999819,8.47092117933975,1.00000000204385,0.523216486725648
3299.99999999809,8.24861204484546,1.00000000240835,0.545228009363946
3399.999999998,8.01990452656912,1.00000000292004,0.553018373823856
3499.99999999791,7.81410415737272,1.00000000172717,0.502734367518732
3599.99999999782,7.69309824444755,1.00000000180421,0.441681457305718
3699.99999999773,7.60622692162366,1.00000000237432,0.49979471393557
3799.99999999764,7.49931224889075,1.00000000234304,0.537492821449861
3899.99999999755,7.39794629843137,1.00000000243782,0.557592442468868
3999.99999999746,7.27773970661087,1.00000000255939,0.584309392583276
4099.99999999738,7.15206450058046,1.00000000206493,0.569325984101854
4199.99999999775,7.019861134178,1.00000000271167,0.572111066454924
4299.99999999811,6.87902275315806,1.00000000279093,0.579093167661553
4399.99999999848,6.77378956990357,1.00000000166736,0.502381097994719
4499.99999999884,6.75954829894414,1.00000000171617,0.464692537655707
4599.9999999992,6.78417881509176,1.00000000254844,0.507196218453845
4699.99999999957,6.79297953837593,1.00000000229786,0.532218034487501
4799.99999999993,6.78567527959912,1.00000000249078,0.571557551398965
4900.00000000029,6.75789915489222,1.00000000253784,0.586242502974734
5000.00000000066,6.72830839195528,1.00000000213131,0.591883768627526
5100.00000000102,6.69386934564855,1.00000000244753,0.5960965812736
5200.00000000139,6.64028474155103,1.00000000263533,0.581787356848306
5300.00000000175,6.571252021749,1.00000000248606,0.59735785327906
5400.00000000211,6.50037357939163,1.00000000215514,0.604087826409448
5500.00000000248,6.4251837362998,1.00000000233754,0.603764611049336
5600.00000000284,6.34308050650927,1.00000000286232,0.614490804716367
5700.00000000321,6.25495503034168,1.00000000283772,0.595608817778925
5800.00000000357,6.17035589448122,1.00000000219484,0.567500566866177
5900.00000000393,6.13761606429814,1.00000000158303,0.50239898737444
6000.0000000043,6.19239389895626,1.00000000178024,0.488141790581118
6100.00000000466,6.29504661104739,1.00000000224418,0.513731578017868
6200.00000000502,6.38642466862307,1.00000000249254,0.54427716231821
6300.00000000539,6.4626547179061,1.00000000257922,0.566502026483808
6400.00000000575,6.52319148832325,1.00000000243056,0.587304452971818
6500.00000000612,6.5664911754897,1.00000000272175,0.61109180276824
6600.00000000648,6.58919720175951,1.00000000244211,0.613161158635834
6700.00000000684,6.60283207343287,1.00000000249871,0.6273231092248
6800.00000000721,6.59886419672494,1.00000000272553,0.627028620899047
6900.00000000757,6.57854500040983,1.0000000026958,0.637992487491924
7000.00000000793,6.56319217134071,1.00000000234814,0.625742013526462
7100.0000000083,6.5563995133548,1.00000000240374,0.616653327213223
7200.00000000866,6.53981685524301,1.00000000268693,0.604550389474746
7300.00000000903,6.51237784318481,1.00000000240511,0.617752147982692
7400.00000000939,6.48810047965498,1.00000000233972,0.622152682869564
7500.00000000975,6.4605449554276,1.00000000258718,0.636773640732515
7600.00000001012,6.43008353749696,1.00000000230165,0.633876373992521
7700.00000001048,6.39708675484407,1.00000000235518,0.617941341009606
7800.00000001084,6.36464231411972,1.00000000245063,0.619304843498427
7900.00000001121,6.31825673121843,1.00000000282182,0.639490102115956
8000.00000001157,6.26349322486175,1.00000000262324,0.64710250649883
8100.00000001194,6.20479487973936,1.00000000230968,0.635078100572676
8200.0000000123,6.14658388778237,1.00000000234046,0.648223343401497
8300.00000001266,6.0887209547863,1.00000000286884,0.650725242660206
8400.00000001303,6.03251376790673,1.00000000290252,0.665660378595392
8500.00000001339,5.97859762517822,1.00000000319577,0.666748655884799
8600.00000001376,5.92040283094567,1.00000000299263,0.640101116254559
8700.00000001412,5.86055299791885,1.00000000230721,0.595516851374124
8800.00000001448,5.82498621805512,1.00000000203839,0.548693746690619
8900.00000001485,5.84865018878402,1.00000000172324,0.517753581858377
9000.00000001521,5.94741570772972,1.00000000194344,0.508915390117805
9100.00000001557,6.0954591328644,1.00000000231923,0.519119427780826
9200.00000001594,6.25522596902343,1.00000000285542,0.541898891601506
9300.0000000163,6.41008852022899,1.00000000277082,0.554278499918751
9400.00000001667,6.54817224470894,1.00000000266322,0.56599749645552
9500.00000001703,6.67679758443943,1.00000000272089,0.580638396400343
9600.00000001739,6.78506241757608,1.0000000027732,0.591564909472859
9700.00000001776,6.88263458911026,1.00000000274415,0.607037599857074
9800.00000001812,6.96171335551675,1.00000000281691,0.6269910963627
9900.00000001848,7.02836620820687,1.0000000028279,0.628905927905258
10000.0000000188,7.08571596212835,1.00000000283674,0.614455985860223
10100.0000000192,7.12902069284134,1.00000000292983,0.643155050360899
10200.0000000196,7.15633046526252,1.00000000301148,0.65805633085978
10300.0000000199,7.1815941127648,1.00000000265859,0.656759439268176
10400.0000000203,7.20386654061278,1.00000000271877,0.639918496238484
10500.0000000207,7.22113021515033,1.00000000281316,0.652563219415992
10600.000000021,7.22733183442846,1.00000000267403,0.661392249950787
10700.0000000214,7.23410550763148,1.00000000281918,0.659232331331255
10800.0000000218,7.23291697834167,1.00000000328663,0.665110496146886
10900.0000000221,7.22631968889174,1.00000000282121,0.663436175636628
11000.0000000225,7.21533536684956,1.00000000282012,0.654616633872386
11100.0000000229,7.2040843988139,1.00000000279455,0.654314953634655
11200.0000000232,7.1878133197855,1.00000000315932,0.665355644602364
11300.0000000236,7.16696922201434,1.00000000305229,0.662786228581122
11400.0000000239,7.14366575320317,1.00000000283964,0.66060010111931
11500.0000000243,7.12355417897478,1.00000000298389,0.650496767110878
11600.0000000247,7.11109481361083,1.0000000029184,0.637116020581253
11700.000000025,7.11269477815098,1.00000000282818,0.615553254933729
11800.0000000254,7.12840198024913,1.00000000295198,0.617585282757814
11900.0000000258,7.14391638065429,1.00000000328588,0.63110326548234
12000.0000000261,7.15491730607171,1.0000000030201,0.615052128374448
12100.0000000265,7.15965581483924,1.00000000337298,0.62952673547607
12200.0000000269,7.16415195550216,1.0000000027042,0.632105485775844
12300.0000000272,7.17154530525613,1.00000000318285,0.638427605271668
12400.0000000276,7.17398885444769,1.00000000296502,0.633614384556769
12500.0000000279,7.18150196125512,1.00000000291813,0.654083634393382
12600.0000000283,7.19075627728951,1.00000000283358,0.663943219275733
12700.0000000287,7.19415200383632,1.00000000331315,0.661315747527484
12800.000000029,7.19387940856816,1.00000000310145,0.659804774929428
12900.0000000294,7.20050900707107,1.00000000294402,0.652245840402702
13000.0000000298,7.20686778944239,1.00000000302111,0.654534701091227
13100.0000000301,7.21959610940543,1.0000000029796,0.648912712730907
13200.0000000305,7.23423384295598,1.00000000337429,0.647272176301217
13300.0000000309,7.24236050590858,1.00000000335171,0.670066252193948
13400.0000000312,7.24905308083297,1.00000000311073,0.661912430284099
13500.0000000316,7.26126457182322,1.0000000031189,0.668120557385756
13600.0000000319,7.27531720063444,1.00000000336615,0.664141555992351
13700.0000000323,7.28940348784418,1.00000000314596,0.655427042552164
13800.0000000327,7.30041573365024,1.00000000393729,0.683155252083771
13900.000000033,7.3064252403956,1.00000000349807,0.671830991888863
14000.0000000334,7.31937726724888,1.00000000310595,0.672490159576423
14100.0000000338,7.32639786958136,1.00000000333334,0.675337958692548
14200.0000000341,7.33294977448702,1.00000000313599,0.690618249875665
14300.0000000345,7.34077840968799,1.00000000295951,0.669847557655316
14400.0000000349,7.34694425701981,1.00000000358219,0.675075491463023
14500.0000000352,7.34272677126477,1.00000000367183,0.653898123207568
14600.0000000356,7.34034215136912,1.00000000305057,0.665650906406694
14700.0000000359,7.3400274404373,1.00000000349091,0.670016458244824
14800.0000000363,7.34302940465307,1.00000000293387,0.663093111114926
14900.0000000367,7.34997263068799,1.00000000365892,0.676409168073155
15000.000000037,7.34808837918998,1.00000000339812,0.685623783165913
15100.0000000374,7.34080387548387,1.00000000339747,0.671549511185094
15200.0000000378,7.33467481335572,1.0000000033926,0.676506789575517
15300.0000000381,7.33007917904827,1.00000000329605,0.682691724004723
15400.0000000385,7.3261905671072,1.00000000344748,0.680299763637825
15500.0000000389,7.31420385965322,1.00000000368854,0.672356159840322
15600.0000000392,7.29697916210175,1.00000000313737,0.682867470223984
15700.0000000396,7.28118367855614,1.00000000340781,0.673731842536892
15800.0000000399,7.26284853853524,1.00000000379316,0.686826775027868
15900.0000000403,7.23613029471832,1.00000000374695,0.681622129935452
16000.0000000407,7.20562447449064,1.00000000375041,0.688518505103262
16100.000000041,7.17397815199758,1.00000000369066,0.69138014391611
16200.0000000414,7.1406961813852,1.00000000352488,0.697741399474519
16300.0000000418,7.1078992526427,1.00000000350663,0.695776383104814
16400.0000000418,7.07615905169476,1.00000000340387,0.686848956580866
16500.0000000404,7.04775820909577,1.00000000368493,0.676606450431659
16600.0000000389,7.02165357056582,1.00000000414099,0.675937732077039
16700.0000000375,7.00072274549421,1.00000000381253,0.670820973601136
16800.000000036,6.98246354067931,1.00000000445967,0.682534849371259
16900.0000000346,6.96979416980799,1.00000000408806,0.695461074492363
17000.0000000331,6.96183252726076,1.00000000367639,0.710346264070373
17100.0000000317,6.95135375759762,1.00000000410726,0.695875052136956
17200.0000000302,6.93824017860577,1.00000000384952,0.678551827344163
17300.0000000287,6.91797146914968,1.00000000410568,0.659778606545722
17400.0000000273,6.8911016141514,1.00000000360936,0.63858479938108
17500.0000000258,6.87006520900046,1.00000000321876,0.611261395511189
17600.0000000244,6.8687354850157,1.00000000303386,0.596199017007718
17700.0000000229,6.9084045883061,1.00000000305766,0.570645875657479
17800.0000000215,7.00209249525932,1.00000000277044,0.565375579868278
17900.00000002,7.16954403686236,1.00000000264682,0.555731730266694
18000.0000000186,7.39687686873655,1.00000000312568,0.546378374087471
18100.0000000171,7.69641126585483,1.0000000034464,0.556783234096916
18200.0000000156,8.0206357524284,1.00000000369169,0.55396662617978
18300.0000000142,8.39046723051925,1.00000000369192,0.557095944408184
18400.0000000127,8.74754834769922,1.0000000039205,0.561931290692201
18500.0000000113,9.12925187413257,1.00000000364544,0.568042238692414
18600.0000000098,9.49229046715331,1.00000000372022,0.577919966487221
18700.0000000084,9.85300922299839,1.00000000411875,0.577690772243127
18800.0000000069,10.2107717924294,1.00000000377624,0.582112001187128
18900.0000000055,10.5565158939436,1.00000000368791,0.591838080815922
19000.000000004,10.9123111167667,1.0000000035645,0.598385450732733
19100.0000000026,11.251542993777,1.00000000375278,0.610695104706682
19200.0000000011,11.5984339871756,1.00000000384036,0.619475803576464
19299.9999999996,11.918122101628,1.00000000361989,0.639256242281132
19399.9999999982,12.2387978162263,1.00000000394098,0.643832360369476
19499.9999999967,12.5485689994325,1.00000000404498,0.661729390049638
19599.9999999953,12.8360755907338,1.00000000384751,0.656083110524051
19699.9999999938,13.1314343456798,1.00000000375662,0.670472531705607
19799.9999999924,13.401245797011,1.00000000425934,0.674178907779299
19899.9999999909,13.6676306283526,1.00000000425452,0.670333107608101
19999.9999999895,13.9150486551419,1.00000000395964,0.676260483788187
20099.999999988,14.1500789930889,1.00000000415825,0.682669742657742
20199.9999999865,14.3762178730461,1.00000000382323,0.676926516128526
20299.9999999851,14.5871014756905,1.00000000405539,0.686823755333783
20399.9999999836,14.7970312672056,1.00000000401836,0.68609467706718
20499.9999999822,14.9913222952136,1.00000000389307,0.685521110191089
20599.9999999807,15.1835997591981,1.00000000420998,0.693932525254436
20699.9999999793,15.3605183825617,1.00000000386782,0.696895404082529
20799.9999999778,15.5355814362831,1.0000000036073,0.695313528377362
20899.9999999764,15.7088982872397,1.00000000359394,0.713543785137246
20999.9999999749,15.8757923119513,1.00000000392903,0.709795366725669
21099.9999999734,16.0354145668047,1.00000000427469,0.698449206652094
21199.999999972,16.172853810705,1.00000000398949,0.699716111933332
21299.9999999705,16.3060002327931,1.00000000389699,0.711687003376814
21399.9999999691,16.4447812363154,1.00000000366062,0.71039229381529
21499.9999999676,16.6025458212288,1.0000000037922,0.694764986863362
21599.9999999662,16.7628076963941,1.00000000407398,0.694364836957513
21699.9999999647,16.9044157321282,1.0000000048106,0.699635512196856
21799.9999999633,17.0310808306226,1.00000000410399,0.703588920967338
21899.9999999618,17.1490179767782,1.00000000429697,0.691377243541593
21999.9999999603,17.279705298067,1.00000000378104,0.701498720680239
22099.9999999589,17.4156611931423,1.00000000418387,0.703079111152747
22199.9999999574,17.5462969422165,1.00000000450273,0.692170313254837
22299.999999956,17.6751979129025,1.00000000424206,0.691702955174197
22399.9999999545,17.7947624767231,1.00000000426499,0.6999932292024
22499.9999999531,17.9167804118611,1.0000000039955,0.701385401786281
22599.9999999516,18.0384368239495,1.00000000409021,0.697665872243138
22699.9999999502,18.1601798215655,1.00000000423114,0.687933118753901
22799.9999999487,18.2735772543011,1.00000000452349,0.704761745109025
22899.9999999473,18.387505697886,1.00000000382226,0.687255324223435
22999.9999999458,18.5023668019057,1.00000000417526,0.69517143645166
23099.9999999443,18.6227079360975,1.00000000412994,0.707079319212709
23199.9999999429,18.7407650795214,1.00000000424005,0.700516522895468
23299.9999999414,18.85601890293,1.00000000423072,0.699061714839447
23399.99999994,18.968896310145,1.00000000460298,0.684949714509037
23499.9999999385,19.0822536404381,1.00000000438375,0.697272896555389
23599.9999999371,19.1987904853,1.00000000412538,0.691389679930149
23699.9999999356,19.3136488067772,1.00000000426511,0.696634524344959
23799.9999999342,19.4268852728305,1.00000000424192,0.679774118391359
23899.9999999327,19.547430958182,1.00000000466382,0.704288288221579
23999.9999999312,19.6603501214935,1.00000000466719,0.688228998071693
24099.9999999298,19.7757307919243,1.00000000435073,0.67358248189427
24199.9999999283,19.8989560576432,1.00000000436907,0.672174777630415
24299.9999999269,20.0254098678504,1.00000000423413,0.686304278441425
24399.9999999254,20.1426957996202,1.00000000453836,0.695420931357993
24499.999999924,20.2600510772675,1.00000000440878,0.698208253167691
24599.9999999225,20.3914949167676,1.00000000381321,0.693962402854408
24699.9999999211,20.5211725868407,1.00000000441936,0.701415554857733
24799.9999999196,20.6435181628631,1.00000000413787,0.699506691158034
24899.9999999181,20.7549229140655,1.00000000478911,0.703157755013075
24999.9999999167,20.8655181333425,1.00000000461843,0.70814630947126
25099.9999999152,20.9916056940749,1.00000000395242,0.694459121914882
25199.9999999138,21.121983241951,1.00000000468484,0.694386538049139
25299.9999999123,21.241578904803,1.00000000504109,0.704722843343896
25399.9999999109,21.3505685813996,1.00000000444829,0.70531217440901
25499.9999999094,21.4585649873172,1.00000000437089,0.695482341820495
25599.999999908,21.5620346174208,1.00000000486657,0.689446656959498
25699.9999999065,21.6672068276383,1.00000000481364,0.708305756559511
25799.9999999051,21.7857575613482,1.00000000426811,0.704269687856426
25899.9999999036,21.9232906225087,1.0000000043559,0.695796414742835
25999.9999999021,22.0759496351257,1.00000000417178,0.693048737333983
26099.9999999007,22.2392778696415,1.00000000427377,0.692857379365263
26199.9999998992,22.4181509353246,1.00000000525101,0.6986758174215
26299.9999998978,22.6078402617597,1.0000000046192,0.699830449329146
26399.9999998963,22.7972395046024,1.00000000442819,0.711845946862694
26499.9999998949,22.9865791193888,1.00000000456018,0.717717214357664
26599.9999998934,23.1673461027918,1.00000000466398,0.712448101024134
26699.999999892,23.3431200929395,1.00000000434239,0.711795658831922
26799.9999998905,23.519306112407,1.00000000476067,0.712952220448625
26899.999999889,23.688323802563,1.00000000493581,0.696296448220341
26999.9999998876,23.8564900091352,1.00000000426459,0.684081230929821
27099.9999998861,24.0240293250449,1.00000000478073,0.70161503169221
27199.9999998847,24.1863635556409,1.0000000044425,0.701027848350796
27299.9999998832,24.3517833470994,1.00000000481557,0.691844625225511
27399.9999998818,24.5263359134491,1.00000000450551,0.700167550736694
27499.9999998803,24.7062767146184,1.00000000474891,0.711734530051051
27599.9999998789,24.8888139422869,1.00000000429223,0.693229207978438
27699.9999998774,25.0686314509559,1.00000000538557,0.698468084635953
27799.9999998759,25.2364763297302,1.00000000477218,0.704828547553134
27899.9999998745,25.4011363914328,1.00000000471433,0.697044875429768
27999.999999873,25.5734490567294,1.0000000044435,0.667350005782157
28099.9999998716,25.7630800802794,1.00000000466701,0.675571561247913
28199.9999998701,25.9717563149358,1.00000000439792,0.671543250962247
28299.9999998687,26.184933164519,1.00000000483419,0.704963522132312
28399.9999998672,26.3807910144993,1.0000000052105,0.713861347865312
28499.9999998658,26.5608918138693,1.00000000480923,0.698373748593612
28599.9999998643,26.7410078793952,1.00000000519753,0.694544095563199
28699.9999998629,26.9278524544953,1.00000000428765,0.704959472047221
28799.9999998614,27.1192300179129,1.0000000050191,0.697659330343502
28899.9999998599,27.313870456552,1.00000000476889,0.707403726905571
28999.9999998585,27.5073419363833,1.00000000465036,0.707158278852249
29099.999999857,27.6917004019765,1.00000000530391,0.709347234875403
