Time,AGPnorm,Energy,Entropy
0,0,1,-1.40750552011367e-17
99.9999999999986,2.84219435729288e-05,0.999999999998194,0.00116560639545822
199.999999999993,0.00265920283067815,0.99999999999736,0.00194428685246668
300,0.0062962057558235,1.00000000000051,0.00336250230129437
400.000000000022,0.00884825744948717,0.999999999996564,0.00573678291363658
500.000000000045,0.0109845692946822,0.99999999999938,0.00779843817217069
600.000000000068,0.0154382100757983,0.999999999998973,0.0106903307912028
700.000000000091,0.0189119392111956,0.999999999996744,0.0138540204538973
800.000000000113,0.0240766050610819,1.00000000000069,0.0170040717287962
900.000000000136,0.0306030946950287,0.999999999997003,0.020807837898138
1000.00000000016,0.0355967996959159,0.99999999999854,0.0246428400137504
1100.0000000001,0.0419972571967188,0.999999999999702,0.0286998520395423
1200,0.0493833795622045,0.999999999996452,0.0332520661258629
1299.99999999991,0.0570202327268707,1.00000000000051,0.0377764238820357
1399.99999999982,0.0653649510981752,0.999999999997634,0.04268430699406
1499.99999999973,0.0727286131640716,0.999999999997654,0.0479009017317139
1599.99999999964,0.081091230082241,1.00000000000029,0.0531034071192223
1699.99999999955,0.0912643969415833,0.999999999996519,0.058876796172822
1799.99999999946,0.100756585457455,0.999999999999968,0.0647929324872183
1899.99999999937,0.110075949418615,0.999999999998321,0.0708622990101566
1999.99999999928,0.119314196082813,0.999999999996966,0.0774689422402291
2099.99999999919,0.129267178380267,1.00000000000068,0.0840993712812496
2199.99999999909,0.14078836875418,0.999999999996877,0.0913266141845429
2299.999999999,0.151142442665256,0.999999999999119,0.0989374009942463
2399.99999999891,0.160939611573685,0.999999999998974,0.106631586848787
2499.99999999882,0.171566736742043,0.999999999996638,0.115131110998617
2599.99999999873,0.182588211094367,1.00000000000079,0.123962038883505
2699.99999999864,0.194081149487697,0.999999999997533,0.133513155761711
2799.99999999855,0.204371208242174,0.999999999998472,0.143925761178286
2899.99999999846,0.214370640651077,1.00000000000042,0.154800522325024
2999.99999999837,0.225476920017527,0.999999999998931,0.167189376660867
3099.99999999828,0.236850158553485,1.00000000000671,0.180673616260025
3199.99999999819,0.247871714427393,1.00000000001167,0.195290719976435
3299.99999999809,0.256690481828758,1.00000000002532,0.21115668639661
3399.999999998,0.269509879916341,1.00000000004715,0.227348556570142
3499.99999999791,0.281469775091803,1.00000000007309,0.244320207466698
3599.99999999782,0.296875156400633,1.00000000011007,0.261329436616778
3699.99999999773,0.322700293726643,1.00000000014648,0.277778676473689
3799.99999999764,0.34938360323355,1.00000000018956,0.294267872999702
3899.99999999755,0.403025791151682,1.0000000002329,0.310042175439748
3999.99999999746,0.480475064266589,1.00000000027984,0.325645463633826
4099.99999999738,0.585645978578476,1.00000000032518,0.341074434126639
4199.99999999775,0.753223961506058,1.00000000038314,0.355171458647955
4299.99999999811,0.970544524987651,1.00000000042186,0.369508274083107
4399.99999999848,1.26679215594397,1.00000000047986,0.38302126862101
4499.99999999884,1.66888505806882,1.00000000053233,0.3957969493517
4599.9999999992,2.16307307157475,1.00000000057128,0.408561590249819
4699.99999999957,2.79665361905067,1.00000000059572,0.420046342129647
4799.99999999993,3.57561179124471,1.00000000063118,0.431502847066061
4900.00000000029,4.49542290275229,1.00000000067272,0.442552678532655
5000.00000000066,5.61355319926908,1.0000000007053,0.452323882666011
5100.00000000102,6.90444794562012,1.00000000071297,0.46238453275074
5200.00000000139,8.38673134576526,1.000000000775,0.471255708602562
5300.00000000175,10.1024271477542,1.00000000076936,0.479803921853493
5400.00000000211,12.0032376717022,1.00000000079751,0.488390913702042
5500.00000000248,14.146670616074,1.00000000081913,0.495527408239346
5600.00000000284,16.5219781257502,1.00000000086063,0.502834320216105
5700.00000000321,19.093675910369,1.00000000086855,0.509811071654253
5800.00000000357,21.9336906959722,1.00000000088068,0.515691865282094
5900.00000000393,24.9739356423933,1.00000000085555,0.522168717007861
6000.0000000043,28.236955152349,1.00000000088931,0.527226534480168
6100.00000000466,31.7474222449433,1.00000000088049,0.532252333718486
6200.00000000502,35.4230718882573,1.0000000009063,0.537533442282058
6300.00000000539,39.3390344486495,1.00000000088973,0.541575503141565
6400.00000000575,43.4420856748958,1.00000000088826,0.545904953889908
6500.00000000612,47.7043358803066,1.000000000887,0.549782805615105
6600.00000000648,52.1839277647803,1.00000000091833,0.552951694874344
6700.00000000684,56.779581820402,1.00000000087907,0.556911434520875
6800.00000000721,61.5436823328403,1.00000000091589,0.55933240894858
6900.00000000757,66.4587880843922,1.00000000087988,0.562167989251963
7000.00000000793,71.4545879683359,1.00000000089264,0.565163359935583
7100.0000000083,76.603906472696,1.00000000089878,0.567021591491799
7200.00000000866,81.8169428779696,1.00000000089302,0.56949957244666
7300.00000000903,87.1105307622604,1.0000000008993,0.571214357180957
7400.00000000939,92.5019035337813,1.00000000087476,0.572847578753186
7500.00000000975,97.9011757209556,1.00000000087357,0.575086766948947
7600.00000001012,103.375744955033,1.00000000084979,0.576077421485635
7700.00000001048,108.864589764649,1.00000000083772,0.577263253377188
7800.00000001084,114.350575698072,1.00000000083904,0.578627475810966
7900.00000001121,119.874582646055,1.00000000083521,0.579312757666689
8000.00000001157,125.348899660115,1.00000000084021,0.580701256100926
8100.00000001194,130.822333222698,1.00000000082346,0.580960799567015
8200.0000000123,136.26640089011,1.00000000081427,0.581781317503112
8300.00000001266,141.64115143322,1.00000000076861,0.582982202499864
8400.00000001303,146.996814748953,1.00000000079765,0.582420626698302
8500.00000001339,152.260315323591,1.00000000077673,0.583692595779686
8600.00000001376,157.460928445752,1.00000000077045,0.583350767964728
8700.00000001412,162.593379268924,1.00000000076986,0.583789699592401
8800.00000001448,167.611702163651,1.00000000076481,0.583814063208708
8900.00000001485,172.561351502357,1.00000000077293,0.58380131968706
9000.00000001521,177.391896724359,1.00000000072124,0.583984603429964
9100.00000001557,182.111274981671,1.00000000073672,0.58402411361485
9200.00000001594,186.736984615514,1.00000000071416,0.583612544913686
9300.0000000163,191.216426250616,1.00000000070225,0.583561783532738
9400.00000001667,195.594538114343,1.00000000072269,0.583659212452018
9500.00000001703,199.83503820137,1.0000000006856,0.582462640614358
9600.00000001739,203.936530436396,1.00000000070474,0.583542938389452
9700.00000001776,207.923468736478,1.00000000067072,0.581830028944057
9800.00000001812,211.750249486391,1.00000000066826,0.582641136576194
9900.00000001848,215.452930552648,1.00000000063438,0.581994617660082
10000.0000000188,219.010141047505,1.00000000068546,0.581031892604346
10100.0000000192,222.415164961361,1.00000000064859,0.581942191156679
10200.0000000196,225.69278045178,1.00000000064414,0.580736945849028
10300.0000000199,228.810254422529,1.00000000065147,0.581164535976972
10400.0000000203,231.790596179142,1.00000000062434,0.580241748640777
10500.0000000207,234.627172373946,1.00000000063454,0.5802483272505
10600.000000021,237.310054964788,1.00000000061714,0.57962231429859
10700.0000000214,239.861304225415,1.0000000005937,0.578630985416491
10800.0000000218,242.257885565072,1.00000000060521,0.579412693733662
10900.0000000221,244.516502023607,1.00000000057319,0.577521797691327
11000.0000000225,246.635812809173,1.00000000059783,0.57775763001686
11100.0000000229,248.607415992818,1.00000000057251,0.578384685351785
11200.0000000232,250.451431262683,1.00000000057023,0.575627998613334
11300.0000000236,252.148945549328,1.00000000053617,0.577936854335734
11400.0000000239,253.716334603093,1.00000000055784,0.577017343352561
11500.0000000243,255.154694590772,1.00000000053662,0.574009406673416
11600.0000000247,256.452823533791,1.00000000052895,0.576529573780773
11700.000000025,257.63537455249,1.00000000054295,0.576197969134196
11800.0000000254,258.687410100469,1.0000000005105,0.574129218694886
11900.0000000258,259.615093942128,1.00000000051654,0.574287392665631
12000.0000000261,260.429568688995,1.00000000051254,0.574312717624816
12100.0000000265,261.120499430405,1.00000000051607,0.576462515722277
12200.0000000269,261.709324199944,1.00000000051341,0.57429084285581
12300.0000000272,262.184118845886,1.00000000048945,0.56947427721217
12400.0000000276,262.546176861502,1.00000000048884,0.573675386326713
12500.0000000279,262.81716309557,1.00000000049333,0.577682997845504
12600.0000000283,262.991471684998,1.00000000049029,0.572188561145183
12700.0000000287,263.071486924298,1.00000000044647,0.566228711301388
12800.000000029,263.052241317112,1.00000000047301,0.570335583834589
12900.0000000294,262.949861553191,1.00000000050864,0.577743654420833
13000.0000000298,262.78273808658,1.00000000049363,0.573263230700285
13100.0000000301,262.53397727325,1.00000000044477,0.563598580451858
13200.0000000305,262.202595279091,1.00000000043682,0.560906749222072
13300.0000000309,261.796158481153,1.00000000050183,0.57387186203739
13400.0000000312,261.337406535888,1.00000000053591,0.578062679498345
13500.0000000316,260.833795026573,1.00000000049288,0.56706147264769
13600.0000000319,260.259598762347,1.00000000042695,0.552593349728403
13700.0000000323,259.615654240367,1.00000000043658,0.558256426492787
13800.0000000327,258.92447560819,1.00000000054353,0.578155028754028
13900.000000033,258.206298924277,1.00000000055039,0.57724153070008
14000.0000000334,257.458710880061,1.00000000047957,0.558692919049636
14100.0000000338,256.651083743562,1.00000000040262,0.543436183969729
14200.0000000341,255.787408355958,1.00000000045356,0.55366534923226
14300.0000000345,254.894295979257,1.00000000055871,0.577623633794927
14400.0000000349,253.991814903657,1.00000000059611,0.579730245828292
14500.0000000352,253.076663794112,1.00000000046851,0.554731698380019
14600.0000000356,252.117322308665,1.00000000039337,0.536633342260425
14700.0000000359,251.109772506055,1.00000000041049,0.539079012383457
14800.0000000363,250.07689728975,1.00000000053497,0.56918331510318
14900.0000000367,249.042767753093,1.00000000065626,0.584535556103473
15000.000000037,248.017560651712,1.00000000055113,0.56165053158045
15100.0000000374,246.969514556022,1.00000000045136,0.536440383251654
15200.0000000378,245.885087029163,1.00000000038238,0.522524282638938
15300.0000000381,244.767906409265,1.00000000048258,0.540641359837784
15400.0000000385,243.643312409585,1.00000000060209,0.5776417462267
15500.0000000389,242.536119217091,1.00000000064161,0.57997516961601
15600.0000000392,241.436910961412,1.00000000053522,0.551266661212496
15700.0000000396,240.322693181575,1.00000000039274,0.525469565635087
15800.0000000399,239.180045834898,1.00000000038862,0.514869181397196
15900.0000000403,238.011719961509,1.00000000044943,0.532660021589557
16000.0000000407,236.845019173223,1.00000000060779,0.573016976249733
16100.000000041,235.696729137531,1.00000000067277,0.581176330866055
16200.0000000414,234.563052212102,1.00000000057318,0.552885019030879
16300.0000000418,233.428176651171,1.00000000044061,0.524043255961799
16400.0000000418,232.274230150547,1.00000000039328,0.513067742764244
16500.0000000404,231.103190170105,1.00000000040025,0.516263221204284
16600.0000000389,229.924694842747,1.00000000052003,0.545423979597785
16700.0000000375,228.757661421607,1.00000000066694,0.577623519745623
16800.000000036,227.612533520853,1.00000000065849,0.569433599784517
16900.0000000346,226.477875363173,1.00000000054686,0.537117441862355
17000.0000000331,225.342967208989,1.00000000046537,0.51571569496237
17100.0000000317,224.198083407981,1.00000000041301,0.510942088144918
17200.0000000302,223.042775442177,1.00000000043674,0.516857923169747
17300.0000000287,221.887382969235,1.00000000053199,0.536069642787019
17400.0000000273,220.741421960152,1.00000000062509,0.563805364372559
17500.0000000258,219.612630836691,1.00000000062833,0.567375843390536
17600.0000000244,218.498756345067,1.00000000057968,0.542460043599665
17700.0000000229,217.389601284329,1.0000000004559,0.515858492909509
17800.0000000215,216.280569392916,1.00000000042488,0.51044589129909
17900.00000002,215.167341722036,1.00000000045058,0.516955848392902
18000.0000000186,214.054487637579,1.00000000047392,0.522850902936407
18100.0000000171,212.946464126488,1.00000000052996,0.533094522035753
18200.0000000156,211.847880875149,1.0000000005981,0.551999008331297
18300.0000000142,210.763634151485,1.00000000061386,0.555984081886568
18400.0000000127,209.691318571124,1.00000000059204,0.53645989161615
18500.0000000113,208.626098876743,1.00000000048725,0.515827369252299
18600.0000000098,207.565299549625,1.00000000046433,0.512905257652088
18700.0000000084,206.506903107066,1.00000000046786,0.519735218749505
18800.0000000069,205.453165136865,1.00000000048403,0.523914613353051
18900.0000000055,204.40366479733,1.00000000049791,0.522895841700918
19000.000000004,203.361528676429,1.00000000055949,0.530401741478319
19100.0000000026,202.329704409037,1.00000000056721,0.539306817602319
19200.0000000011,201.308194154079,1.00000000059626,0.542794214042975
19299.9999999996,200.296466542039,1.00000000055308,0.531819691882599
19399.9999999982,199.292985108298,1.00000000053526,0.521356697624516
19499.9999999967,198.296518384105,1.0000000004899,0.518550039043361
19599.9999999953,197.307243837292,1.00000000047872,0.523781484094527
19699.9999999938,196.3236682941,1.00000000046857,0.525395413250315
19799.9999999924,195.347116944544,1.0000000004887,0.522966369071915
19899.9999999909,194.377655980024,1.00000000048984,0.520349606685273
19999.9999999895,193.416173476972,1.00000000051627,0.523321597657217
20099.999999988,192.463960656748,1.00000000054113,0.530922134835042
20199.9999999865,191.520539822883,1.00000000055632,0.53792206714955
20299.9999999851,190.585763592652,1.00000000054318,0.536359051535436
20399.9999999836,189.659644198927,1.00000000050865,0.527048077309484
20499.9999999822,188.741714017054,1.00000000049401,0.52651652421222
20599.9999999807,187.832537536195,1.00000000048012,0.529908357825959
20699.9999999793,186.931282630589,1.00000000048207,0.529471664381355
20799.9999999778,186.038392516637,1.00000000046636,0.52304141083523
20899.9999999764,185.153542843215,1.00000000047037,0.51614549917824
20999.9999999749,184.277068197536,1.00000000047971,0.515795331875507
21099.9999999734,183.409556914301,1.00000000052436,0.519582149965509
21199.999999972,182.550548273687,1.00000000053599,0.530198203868723
21299.9999999705,181.699286441477,1.00000000053996,0.540890457509131
21399.9999999691,180.856172009506,1.00000000053553,0.540507341671951
21499.9999999676,180.020986817349,1.00000000050836,0.533824157883779
21599.9999999662,179.19407937695,1.00000000051696,0.534000214103026
21699.9999999647,178.375659166288,1.00000000051662,0.536502553630987
21799.9999999633,177.566162481916,1.00000000051373,0.536291742458692
21899.9999999618,176.765999939578,1.00000000043883,0.525169086931304
21999.9999999603,175.975914298371,1.00000000042208,0.510444922673223
22099.9999999589,175.196096351668,1.0000000004389,0.5061503887868
22199.9999999574,174.425912887426,1.0000000005008,0.513590320541672
22299.999999956,173.663794998356,1.00000000053233,0.522387725646992
22399.9999999545,172.909254511267,1.00000000055036,0.526428011671481
22499.9999999531,172.161187422594,1.0000000005561,0.53658735602157
22599.9999999516,171.420092401436,1.00000000050681,0.540243404814728
22699.9999999502,170.68638804154,1.00000000052549,0.537039582363056
22799.9999999487,169.959710801538,1.00000000051061,0.537498814592858
22899.9999999473,169.239440221556,1.00000000056407,0.546895012442065
22999.9999999458,168.526115828354,1.0000000005439,0.541159399516928
23099.9999999443,167.821845081211,1.00000000047433,0.52979737901382
23199.9999999429,167.128718522719,1.00000000040749,0.514979351543816
23299.9999999414,166.448650095384,1.00000000039061,0.500056074127689
23399.99999994,165.780760358739,1.00000000044488,0.499329055595194
23499.9999999385,165.122777866113,1.00000000050105,0.508725477133937
23599.9999999371,164.471593351075,1.00000000055528,0.519511591353462
23699.9999999356,163.826382237551,1.00000000056712,0.520812506020643
23799.9999999342,163.186320655624,1.00000000052867,0.522289975373601
23899.9999999327,162.551671864813,1.00000000050446,0.531977412495884
23999.9999999312,161.92256138809,1.00000000051922,0.539847624767608
24099.9999999298,161.298378822353,1.00000000053342,0.541366845816235
24199.9999999283,160.678554342739,1.00000000056455,0.54247138193552
24299.9999999269,160.062762068161,1.0000000005623,0.546998829577107
24399.9999999254,159.451744663132,1.00000000056596,0.542626388879048
24499.999999924,158.848721109689,1.00000000047916,0.525891797993672
24599.9999999225,158.257642230191,1.00000000042445,0.512011367415644
24699.9999999211,157.680683561821,1.00000000039526,0.503319315509028
24799.9999999196,157.117833862273,1.0000000004348,0.496730284511054
24899.9999999181,156.566004212014,1.00000000049702,0.499026563012293
24999.9999999167,156.022382622119,1.0000000005395,0.507535959291017
25099.9999999152,155.483744022523,1.00000000054742,0.514854628579506
25199.9999999138,154.949671359512,1.00000000055042,0.514756188826598
25299.9999999123,154.419416166871,1.00000000051825,0.514197294798727
25399.9999999109,153.892389707952,1.0000000005198,0.521762007295942
25499.9999999094,153.368217946671,1.00000000055926,0.535430352647439
25599.999999908,152.845863810229,1.00000000055089,0.544535202415598
25699.9999999065,152.325220947047,1.00000000058051,0.543937876303661
25799.9999999051,151.806793750772,1.00000000055252,0.542640985769511
25899.9999999036,151.29129514032,1.00000000056617,0.541053731613662
25999.9999999021,150.780873206133,1.00000000052868,0.53309444952731
26099.9999999007,150.278751793619,1.00000000048193,0.520324531147738
26199.9999998992,149.78763826763,1.00000000044321,0.509750984330799
26299.9999998978,149.309842055658,1.00000000046101,0.508550158932634
26399.9999998963,148.844458927713,1.00000000045479,0.508173276973572
26499.9999998949,148.390892119941,1.0000000004575,0.501236016365659
26599.9999998934,147.947298598952,1.00000000048166,0.500906048750591
26699.999999892,147.510982238333,1.00000000051744,0.504028111271711
26799.9999998905,147.080121458171,1.00000000053451,0.509858205471186
26899.999999889,146.652417308055,1.00000000055029,0.515687851786727
26999.9999998876,146.226645403363,1.00000000055816,0.51798207651969
27099.9999998861,145.80202491848,1.00000000055539,0.520956126093661
27199.9999998847,145.377014558952,1.00000000054453,0.532157008702442
27299.9999998832,144.951010029178,1.0000000005373,0.539667849521588
27399.9999998818,144.524123258663,1.00000000056579,0.545667805595913
27499.9999998803,144.0978642535,1.00000000053845,0.541878133510599
27599.9999998789,143.674337295599,1.000000000517,0.53577299873225
27699.9999998774,143.255115494184,1.00000000051591,0.533213351116974
27799.9999998759,142.841559652061,1.0000000005095,0.530424158159052
27899.9999998745,142.433788251518,1.00000000051868,0.527697064366421
27999.999999873,142.033624273687,1.00000000049254,0.521215375472224
28099.9999998716,141.643434303777,1.00000000046721,0.515264904910207
28199.9999998701,141.263808738155,1.00000000047368,0.516195320292278
28299.9999998687,140.895639815317,1.00000000045641,0.512336733488464
28399.9999998672,140.538361665883,1.00000000047926,0.508597474322599
28499.9999998658,140.191097130475,1.00000000047186,0.502580095934459
28599.9999998643,139.852357919892,1.00000000048913,0.50710080178666
28699.9999998629,139.519985745734,1.00000000051964,0.51055922925529
28799.9999998614,139.192027284406,1.00000000054086,0.518241870574998
28899.9999998599,138.864784565078,1.00000000056493,0.529216753099988
