Time,AGPnorm,Energy,Entropy
0,0,1,-2.74960774910782e-18
99.9999999999986,0.0041631128984935,0.999999999996114,0.0127352622182731
199.999999999993,0.0111397353290349,1.00000000000104,0.0379392799121628
300,0.0238040342383761,0.999999999995506,0.074009924248303
400.000000000022,0.0369380412993815,1.00000000000214,0.120538696032988
500.000000000045,0.0523283269927121,1.00000000000402,0.182014459237935
600.000000000068,0.0715652964519808,1.00000000010645,0.264739457598552
700.000000000091,0.116153483083224,1.00000000045215,0.36133479570252
800.000000000113,0.358726793020867,1.00000000083607,0.443617931589331
900.000000000136,1.06902771840261,1.00000000120313,0.50110470652388
1000.00000000016,2.51700190933047,1.00000000161826,0.534772270831299
1100.0000000001,4.81615013908295,1.00000000166623,0.554823018301514
1200,7.85970606139857,1.00000000160684,0.562730609009941
1299.99999999991,11.4391942513918,1.00000000166062,0.565305414805923
1399.99999999982,15.2922774988118,1.00000000154265,0.562711265000982
1499.99999999973,19.1229319768837,1.00000000150669,0.556133106842383
1599.99999999964,22.7578522681358,1.00000000145095,0.547539491264336
1699.99999999955,25.9859037371923,1.00000000126711,0.541153408880717
1799.99999999946,28.7680031454518,1.00000000129376,0.532734438270872
1899.99999999937,30.9985609513345,1.00000000120533,0.528544996697399
1999.99999999928,32.6918167821317,1.0000000010954,0.513973045235986
2099.99999999919,33.8796301811894,1.00000000111407,0.530606229908777
2199.99999999909,34.564985145281,1.0000000008548,0.480020669375262
2299.999999999,34.8337048405729,1.000000001043,0.545829125537508
2399.99999999891,34.8622150185305,1.00000000093628,0.49589019484104
2499.99999999882,34.4867716334813,1.00000000064342,0.451997054481005
2599.99999999873,33.9739816494603,1.00000000129579,0.567461556505435
2699.99999999864,33.4740394102263,1.00000000099744,0.497950822126684
2799.99999999855,32.7312293462771,1.00000000045156,0.36837746167286
2899.99999999846,31.8759138497253,1.00000000117821,0.519258309151217
2999.99999999837,31.1327174578286,1.00000000132594,0.575281631375058
3099.99999999828,30.4522788507627,1.00000000089719,0.458967615113034
3199.99999999819,29.6605696145756,1.00000000036303,0.313398260580134
3299.99999999809,28.8191632462197,1.00000000094793,0.451171147075153
3399.999999998,28.0210676652129,1.00000000134682,0.537399217618091
3499.99999999791,27.3251624442852,1.0000000012604,0.564599843842617
3599.99999999782,26.6823396228457,1.00000000089911,0.475897021177472
3699.99999999773,26.0188479950363,1.00000000046441,0.322039189342585
3799.99999999764,25.3799947433149,1.00000000061369,0.357610411789105
3899.99999999755,24.765088750766,1.00000000111938,0.493733366473246
3999.99999999746,24.1589395884866,1.0000000010453,0.521171523563093
4099.99999999738,23.5755861911109,1.00000000120955,0.507239666632151
4199.99999999775,23.0256900253752,1.00000000129115,0.572865428289628
4299.99999999811,22.5127988836885,1.00000000095901,0.512037724520757
4399.99999999848,22.0320110517689,1.00000000042342,0.360575956375592
4499.99999999884,21.6399682111008,1.00000000054172,0.312074541093711
4599.9999999992,21.3331835540326,1.00000000089767,0.403370355262852
4699.99999999957,21.0294698590443,1.00000000121322,0.497411759367918
4799.99999999993,20.678581879079,1.00000000123977,0.54896916125476
4900.00000000029,20.3226821401776,1.00000000084905,0.513933713907454
5000.00000000066,19.986494997348,1.00000000087588,0.478324696140773
5100.00000000102,19.6349151234655,1.00000000123982,0.509355167207885
5200.00000000139,19.2658898708149,1.00000000141556,0.556887338597719
5300.00000000175,18.9059863691002,1.00000000119455,0.572509533561472
5400.00000000211,18.5678238872198,1.00000000077003,0.49068516373512
5500.00000000248,18.291118772115,1.00000000044981,0.372489627556718
5600.00000000284,18.1435762175902,1.00000000041284,0.321588823420003
5700.00000000321,18.1308417945562,1.00000000074073,0.358561968553396
5800.00000000357,18.1558667915393,1.00000000106242,0.449625871053163
5900.00000000393,18.1389131981871,1.00000000110498,0.519901065838754
6000.0000000043,18.0814447173797,1.00000000097979,0.527927233119531
6100.00000000466,17.9880597044357,1.00000000107048,0.525631345637833
6200.00000000502,17.8464122395814,1.00000000112334,0.550601910533689
6300.00000000539,17.6743282825104,1.00000000102054,0.538202185917113
6400.00000000575,17.5036910750501,1.0000000008911,0.525075155396414
6500.00000000612,17.3438435216667,1.00000000085089,0.518422840600559
6600.00000000648,17.1848281194921,1.00000000089904,0.528642858039522
6700.00000000684,17.0119081230562,1.00000000097572,0.527096301262733
6800.00000000721,16.8144135955454,1.00000000121866,0.538534568141762
6900.00000000757,16.592615816059,1.00000000139968,0.552564504957999
7000.00000000793,16.3627333101069,1.00000000127793,0.579174422443293
7100.0000000083,16.1368537506349,1.00000000112652,0.56838904589471
7200.00000000866,15.9240979883556,1.00000000070172,0.500854887586464
7300.00000000903,15.7629452505216,1.00000000045472,0.410668454234628
7400.00000000939,15.7168346652974,1.00000000042142,0.35007987900999
7500.00000000975,15.8277963826189,1.00000000050452,0.336978515400353
7600.00000001012,16.0752301106368,1.00000000073066,0.371243080244973
7700.00000001048,16.3698056554878,1.00000000097899,0.435948524050683
7800.00000001084,16.6391607911516,1.00000000106135,0.48832779807315
7900.00000001121,16.8455661522699,1.00000000119973,0.529294145071651
8000.00000001157,16.9961096661695,1.0000000009669,0.539237522803139
8100.00000001194,17.1080092223741,1.00000000099684,0.552484379971782
8200.0000000123,17.1721095666401,1.00000000109037,0.575609599748289
8300.00000001266,17.1827993796607,1.00000000110427,0.579616438421435
8400.00000001303,17.159897428873,1.00000000094561,0.562105108330346
8500.00000001339,17.1157722724665,1.00000000098751,0.552703227531253
8600.00000001376,17.0555728065236,1.00000000102823,0.547743707260317
8700.00000001412,16.9731407619427,1.00000000106767,0.548989784764424
8800.00000001448,16.8828403592891,1.00000000089016,0.545916984872309
8900.00000001485,16.8056768845212,1.00000000079681,0.534776875290626
9000.00000001521,16.7382250042742,1.00000000099406,0.534067632027691
9100.00000001557,16.6634753662544,1.00000000102452,0.537982063736618
9200.00000001594,16.5847275142881,1.00000000096188,0.541839461607068
9300.0000000163,16.5082285050483,1.00000000096928,0.541327013748538
9400.00000001667,16.4291920763828,1.00000000097718,0.546566245848755
9500.00000001703,16.3380550604495,1.00000000108641,0.55227558681691
9600.00000001739,16.2317760229288,1.00000000101459,0.56779873488621
9700.00000001776,16.119178992715,1.00000000091598,0.581076431255495
9800.00000001812,16.0076739917205,1.00000000084163,0.568872677864232
9900.00000001848,15.8972929878602,1.00000000088534,0.574312088201235
10000.0000000188,15.7793028324403,1.00000000098052,0.578620605272878
10100.0000000192,15.6505143410337,1.00000000109872,0.576677086330741
10200.0000000196,15.5128644471916,1.0000000011943,0.588745625531379
10300.0000000199,15.3724369783161,1.00000000131403,0.591144536900814
10400.0000000203,15.2371800383335,1.0000000013241,0.593394754540787
10500.0000000207,15.1114045591671,1.00000000141609,0.597745578229655
10600.000000021,14.9911518638957,1.00000000124634,0.591244096636866
10700.0000000214,14.8654598354015,1.00000000102943,0.563121940864809
10800.0000000218,14.7320233190453,1.00000000069103,0.511317727034955
10900.0000000221,14.6109684454581,1.00000000056328,0.453872015289453
11000.0000000225,14.5431480073102,1.00000000042146,0.397954753340153
11100.0000000229,14.5752048212725,1.00000000045225,0.360530060797145
11200.0000000232,14.746030049103,1.00000000040096,0.34936162451245
11300.0000000236,15.0597763856043,1.00000000063874,0.363290999679447
11400.0000000239,15.4865129101309,1.00000000067457,0.384771458914205
11500.0000000243,15.9739130739787,1.00000000096453,0.41775678106525
11600.0000000247,16.4549949321885,1.00000000109392,0.458486621316535
11700.000000025,16.9063711208594,1.00000000104677,0.485066380621878
11800.0000000254,17.3072851700395,1.0000000011769,0.515971166621727
11900.0000000258,17.654383302396,1.00000000109975,0.538677623082676
12000.0000000261,17.9577926363593,1.00000000102831,0.546069433549643
12100.0000000265,18.2190023570058,1.00000000104797,0.553624505091398
12200.0000000269,18.4362829078944,1.0000000011474,0.580841983279858
12300.0000000272,18.6111521348075,1.00000000109663,0.587470112930708
12400.0000000276,18.7471449894719,1.00000000111705,0.588216532334652
12500.0000000279,18.8425127719494,1.00000000109816,0.592240089083379
12600.0000000283,18.9081164644768,1.00000000104967,0.596969927461158
12700.0000000287,18.9432375864829,1.0000000011308,0.605482410030759
12800.000000029,18.951959905631,1.00000000102312,0.596035068138259
12900.0000000294,18.9489926982159,1.00000000095633,0.577565827316755
13000.0000000298,18.9326700997875,1.00000000107687,0.572369456573617
13100.0000000301,18.9011951926362,1.00000000105192,0.570545771514563
13200.0000000305,18.8668353306969,1.00000000099608,0.562801870875285
13300.0000000309,18.8233867851219,1.00000000108162,0.57401056846757
13400.0000000312,18.7668226596392,1.00000000100967,0.575555603376683
13500.0000000316,18.7017996054845,1.00000000101958,0.590638196612026
13600.0000000319,18.6284367389583,1.00000000106948,0.58259392580637
13700.0000000323,18.5471803157074,1.00000000111327,0.588459582536819
13800.0000000327,18.4592310225579,1.00000000107023,0.591706277746427
13900.000000033,18.3694403803683,1.00000000102018,0.58650366064692
14000.0000000334,18.2833534846063,1.00000000093351,0.568944729394939
14100.0000000338,18.2056468956492,1.00000000084662,0.549519942502389
14200.0000000341,18.1350188342767,1.00000000106854,0.552671452938671
14300.0000000345,18.0627377564555,1.00000000108343,0.560518826150637
14400.0000000349,17.9909621826331,1.00000000108123,0.565232625324858
14500.0000000352,17.9149955409376,1.00000000109001,0.565762917687896
14600.0000000356,17.8349923052734,1.00000000103619,0.570081175203581
14700.0000000359,17.7588815177305,1.00000000094118,0.575406818863636
14800.0000000363,17.6927624988246,1.00000000091119,0.570886982787872
14900.0000000367,17.632888564368,1.00000000105281,0.558648793400304
15000.000000037,17.5732157059666,1.00000000105135,0.569012350300065
15100.0000000374,17.5205099638621,1.00000000087247,0.556924279508427
15200.0000000378,17.477210797263,1.00000000099152,0.539096770852311
15300.0000000381,17.434603583097,1.00000000109654,0.537169295143465
15400.0000000385,17.3895137252491,1.00000000104935,0.54321906149155
15500.0000000389,17.3511761015774,1.00000000090914,0.548988444853677
15600.0000000392,17.3174772498716,1.00000000107697,0.572140177745075
15700.0000000396,17.278502125794,1.00000000109063,0.593822033660153
15800.0000000399,17.2372226729276,1.00000000102893,0.595184434042209
15900.0000000403,17.1933815573868,1.0000000010798,0.581036777171551
16000.0000000407,17.1436606084622,1.00000000115586,0.568358851625681
16100.000000041,17.0939291758585,1.00000000089968,0.568861097245092
16200.0000000414,17.0516342008855,1.00000000089507,0.57898892979042
16300.0000000418,17.0091244078254,1.00000000107896,0.592440676108195
16400.0000000418,16.9611921165972,1.00000000104517,0.599234817241967
16500.0000000404,16.9150099662838,1.00000000101366,0.597863420058602
16600.0000000389,16.8650144433682,1.00000000109839,0.603743474772366
16700.0000000375,16.8061129311287,1.00000000107543,0.60909970566016
16800.000000036,16.743373520409,1.0000000010946,0.604255582127775
16900.0000000346,16.6789447094392,1.00000000107289,0.600859847957781
17000.0000000331,16.6110577632742,1.00000000109938,0.613132699316158
17100.0000000317,16.5431052898423,1.00000000100597,0.611364761906015
17200.0000000302,16.4803121807755,1.00000000097114,0.605845454461706
17300.0000000287,16.4180986438626,1.00000000110535,0.602077610186394
17400.0000000273,16.3516044826317,1.00000000120412,0.594332510165466
17500.0000000258,16.2829022519829,1.0000000010886,0.592132860581358
17600.0000000244,16.2164156151057,1.00000000093818,0.602843569501106
17700.0000000229,16.1523790471414,1.0000000010779,0.610422522077346
17800.0000000215,16.0866928775233,1.00000000113987,0.606251035749817
17900.00000002,16.0234926316373,1.00000000095039,0.593899136211592
18000.0000000186,15.9638571586323,1.00000000102434,0.601996174423763
18100.0000000171,15.901336006223,1.00000000116184,0.592591085708641
18200.0000000156,15.8343672718525,1.00000000105189,0.601530084858376
18300.0000000142,15.7651712126815,1.00000000108334,0.602090905680172
18400.0000000127,15.6943097536668,1.00000000100399,0.605436577771897
18500.0000000113,15.6219575010681,1.00000000110109,0.60289726272648
18600.0000000098,15.547999746706,1.00000000117437,0.617784191518691
18700.0000000084,15.4708733970275,1.00000000119193,0.626156797763055
18800.0000000069,15.3928909549513,1.00000000110146,0.622914829180449
18900.0000000055,15.3166155409293,1.00000000093165,0.608236202299495
19000.000000004,15.2409493165398,1.00000000114896,0.625415860245819
19100.0000000026,15.1629404068231,1.00000000120537,0.628837295584154
19200.0000000011,15.0845561649877,1.0000000010487,0.622733135187066
19299.9999999996,15.0071304176605,1.00000000095086,0.607165354585765
19399.9999999982,14.9302656681736,1.00000000101065,0.600150259173069
19499.9999999967,14.8541224727292,1.00000000114494,0.61750221406013
19599.9999999953,14.7789469037658,1.00000000091979,0.62050295434444
19699.9999999938,14.7047214170603,1.00000000088109,0.6119345043931
19799.9999999924,14.6317134738516,1.00000000098262,0.610220573036959
19899.9999999909,14.5609894092778,1.00000000100106,0.619569881698454
19999.9999999895,14.493187623469,1.0000000010334,0.620968391031126
20099.999999988,14.4305780597416,1.00000000107509,0.610568887282053
20199.9999999865,14.375163542428,1.00000000115985,0.6262124944863
20299.9999999851,14.3296664890829,1.00000000119841,0.628467433617814
20399.9999999836,14.3003819662252,1.00000000129883,0.631043388731804
20499.9999999822,14.2861956371982,1.00000000134745,0.639709407134798
20599.9999999807,14.2989266249149,1.00000000139415,0.639006562424028
20699.9999999793,14.3313855107399,1.00000000143079,0.641280885254658
20799.9999999778,14.399743194266,1.00000000145733,0.637251054258604
20899.9999999764,14.4862719935554,1.00000000143731,0.624102331593327
20999.9999999749,14.6068866499042,1.00000000147209,0.611667811988802
21099.9999999734,14.7377483085713,1.00000000144568,0.59989665114063
21199.999999972,14.8788317601203,1.00000000132439,0.59254368594481
21299.9999999705,15.0036039422265,1.00000000117283,0.583503106328642
21399.9999999691,15.0989868311309,1.00000000112495,0.570646473358518
21499.9999999676,15.1560044660813,1.00000000090732,0.544724906581176
21599.9999999662,15.1663202463763,1.00000000083676,0.514253570576165
21699.9999999647,15.1399226560174,1.00000000073277,0.486721666993682
21799.9999999633,15.0871125063221,1.0000000006179,0.455723112705768
21899.9999999618,15.0276523402789,1.00000000061779,0.430129786489655
21999.9999999603,14.9900541079464,1.00000000051521,0.406366682310034
22099.9999999589,14.9989798813138,1.00000000048233,0.384600657323226
22199.9999999574,15.0825718908082,1.00000000049331,0.368501720639064
22299.999999956,15.2705968415995,1.00000000051377,0.359832455086352
22399.9999999545,15.5652360130316,1.00000000050595,0.362621841781889
22499.9999999531,16.0005232979739,1.00000000064017,0.367656888305703
22599.9999999516,16.5389146105828,1.00000000078267,0.379004196878022
22699.9999999502,17.2034240161683,1.00000000085958,0.387501490530381
22799.9999999487,17.9385649859359,1.00000000092373,0.401742395422721
22899.9999999473,18.7384204050665,1.00000000105041,0.412940970941393
22999.9999999458,19.5720796484752,1.00000000116551,0.43091165627014
23099.9999999443,20.3988875086096,1.0000000011924,0.447284476500334
23199.9999999429,21.239104190293,1.0000000012308,0.458895178663997
23299.9999999414,22.0318213114981,1.00000000117546,0.478042384717947
23399.99999994,22.8229131964502,1.00000000112964,0.490882214952106
23499.9999999385,23.5592134558457,1.00000000126815,0.499529190033892
23599.9999999371,24.2626405936296,1.00000000123399,0.508171511217923
23699.9999999356,24.9272902949643,1.00000000122984,0.52429692154247
23799.9999999342,25.5506999517819,1.00000000124401,0.527958757828653
23899.9999999327,26.1443811122032,1.00000000115422,0.542403341217158
23999.9999999312,26.6902752282052,1.00000000111566,0.549143336843366
24099.9999999298,27.2218023463868,1.00000000117283,0.562391075111792
24199.9999999283,27.7092503330926,1.00000000111041,0.568781755335761
24299.9999999269,28.1733442832607,1.00000000109449,0.572723797972954
24399.9999999254,28.5987960320683,1.00000000123367,0.584907531339956
24499.999999924,28.9868291304212,1.00000000124648,0.605204322614434
24599.9999999225,29.3480502169423,1.00000000115601,0.612903734695938
24699.9999999211,29.6724830582724,1.00000000116888,0.60138222739696
24799.9999999196,29.9751814814781,1.00000000119721,0.610440664526705
24899.9999999181,30.2253761784985,1.00000000133281,0.632630065481527
24999.9999999167,30.4445998710666,1.00000000120496,0.635702778306208
25099.9999999152,30.6327101405381,1.0000000012056,0.625191501465143
25199.9999999138,30.8063072673343,1.00000000108792,0.616384490804353
25299.9999999123,30.9560403670816,1.00000000109852,0.620676753606029
25399.9999999109,31.0766216828783,1.00000000133073,0.628777589012618
25499.9999999094,31.1698149191102,1.00000000127164,0.640055186297044
25599.999999908,31.2384571872293,1.00000000110476,0.629526728688022
25699.9999999065,31.303708011405,1.00000000110574,0.619731702485204
25799.9999999051,31.3569789648754,1.00000000103989,0.605167718006534
25899.9999999036,31.4037327917311,1.00000000128785,0.606546044034524
25999.9999999021,31.4300424839593,1.00000000119852,0.628445766739349
26099.9999999007,31.43665374823,1.0000000012771,0.631270224817693
26199.9999998992,31.4308612750355,1.00000000114206,0.62662443251682
26299.9999998978,31.4207289109172,1.00000000103215,0.614988248518709
26399.9999998963,31.4112828356617,1.00000000102703,0.613126895735961
26499.9999998949,31.3938778232566,1.0000000012187,0.609567473042379
26599.9999998934,31.3699317611996,1.00000000118365,0.593411953423777
26699.999999892,31.3372946321261,1.00000000109874,0.598132971203716
26799.9999998905,31.300934186417,1.00000000119197,0.613931498278818
26899.999999889,31.2570531408226,1.00000000119595,0.633941059590439
26999.9999998876,31.2068261094867,1.00000000114137,0.624468531416396
27099.9999998861,31.1586531362793,1.00000000099511,0.595957703625613
27199.9999998847,31.1143169674144,1.00000000113308,0.588381612663752
27299.9999998832,31.0680381187313,1.0000000012134,0.603420510165392
27399.9999998818,31.0075928784805,1.00000000122166,0.596505248732041
27499.9999998803,30.9392453740344,1.000000001163,0.593348279286277
27599.9999998789,30.8693128496902,1.00000000100133,0.583768160226447
27699.9999998774,30.8019594265045,1.00000000113597,0.584700958330384
27799.9999998759,30.7346077036626,1.00000000114695,0.60084675320451
27899.9999998745,30.6613301806136,1.00000000136212,0.616899606748997
27999.999999873,30.5815988023563,1.00000000123112,0.623329144843291
28099.9999998716,30.5009386069198,1.00000000105131,0.612118946204124
28199.9999998701,30.4269733280677,1.00000000116257,0.599417857636281
28299.9999998687,30.3567130995701,1.00000000105202,0.60951455237876
28399.9999998672,30.2861757346855,1.00000000122458,0.611325759521283
28499.9999998658,30.212178878078,1.00000000124652,0.609179558654382
28599.9999998643,30.1407869961698,1.00000000090993,0.57535201887568
28699.9999998629,30.0763839968866,1.00000000103874,0.570462382816561
28799.9999998614,30.0103527219777,1.00000000117801,0.588636693426536
28899.9999998599,29.9383504704532,1.00000000131386,0.600106341323047
28999.9999998585,29.8614536394941,1.00000000123681,0.613855875912642
