Time,AGPnorm,Energy,Entropy
0,0,1,-7.59898529940678e-17
99.9999999999986,0.00234833527292351,0.999999999999889,0.00660074432915905
199.999999999993,0.0150820447400571,0.99999999999786,0.0190663811536428
300,0.0304344393962174,0.999999999997888,0.0347957325316519
400.000000000022,0.04396799855086,0.999999999999597,0.055023070498611
500.000000000045,0.0611970330973059,0.999999999999747,0.0801207628497378
600.000000000068,0.0829401346528333,0.999999999998179,0.110152724249728
700.000000000091,0.103038610884543,0.999999999998939,0.145881382402367
800.000000000113,0.122634638842953,1.00000000001924,0.192300261019868
900.000000000136,0.139437164757892,1.00000000019056,0.253356014517726
1000.00000000016,0.157305436002276,1.00000000060286,0.320608015614039
1100.0000000001,0.24607233324206,1.00000000111169,0.38055788048539
1200,0.481989125992995,1.0000000017259,0.431201651207142
1299.99999999991,0.923529062490056,1.00000000207499,0.4737125296806
1399.99999999982,1.70289871852303,1.00000000262995,0.507990889252462
1499.99999999973,2.92583976358428,1.00000000285983,0.533864256985929
1599.99999999964,4.5645578273239,1.00000000304023,0.554640276563066
1699.99999999955,6.56809451109447,1.00000000307272,0.570847940767529
1799.99999999946,8.91020555890307,1.00000000311242,0.582371543526888
1899.99999999937,11.5170670512424,1.00000000284734,0.58964085236505
1999.99999999928,14.2609763643746,1.00000000290683,0.595181631002768
2099.99999999919,17.0463652146162,1.00000000280436,0.59836987606862
2199.99999999909,19.8164793788737,1.00000000257174,0.599692489416278
2299.999999999,22.4995485876578,1.00000000253313,0.599340332838749
2399.99999999891,25.0173101678172,1.00000000242551,0.597206886086022
2499.99999999882,27.3134447544669,1.0000000024122,0.596527416255552
2599.99999999873,29.3725586155968,1.00000000231144,0.594787523748279
2699.99999999864,31.1837734348594,1.00000000215917,0.591033848706924
2799.99999999855,32.7293631970862,1.00000000203272,0.587946632696983
2899.99999999846,34.000299860426,1.00000000196408,0.586279719800786
2999.99999999837,35.0018411131008,1.00000000182843,0.584305714928577
3099.99999999828,35.7570039095558,1.00000000181542,0.581876840314915
3199.99999999819,36.2805935521192,1.0000000018053,0.585836932441233
3299.99999999809,36.5844539112268,1.00000000179142,0.580666135203851
3399.999999998,36.7024164615492,1.00000000163714,0.57534879483295
3499.99999999791,36.6513066095609,1.00000000176448,0.585184279023502
3599.99999999782,36.4679376517371,1.00000000151019,0.561695879699034
3699.99999999773,36.1845307637161,1.00000000177462,0.576152575865951
3799.99999999764,35.8063685733115,1.00000000145531,0.553263631266191
3899.99999999755,35.367171244408,1.0000000018469,0.572345053554983
3999.99999999746,34.8709822883149,1.00000000147318,0.54063112591138
4099.99999999738,34.3412775799647,1.00000000207189,0.576554189986175
4199.99999999775,33.795776883112,1.00000000150763,0.535225420940342
4299.99999999811,33.2159595344102,1.00000000189312,0.567335262894696
4399.99999999848,32.6494715834959,1.00000000176553,0.538864528108474
4499.99999999884,32.0609270434787,1.00000000153087,0.519978729753966
4599.9999999992,31.4811070197632,1.00000000223905,0.565268848082759
4699.99999999957,30.9156502729812,1.00000000155035,0.521240946065886
4799.99999999993,30.3423061389831,1.00000000182507,0.520248901528525
4900.00000000029,29.7831786113808,1.00000000211823,0.552933931403424
5000.00000000066,29.2402577002943,1.00000000175604,0.506043522756732
5100.00000000102,28.7029722327591,1.00000000172371,0.527450300700753
5200.00000000139,28.1775521982833,1.00000000194191,0.53015515171986
5300.00000000175,27.6695313754113,1.00000000185944,0.517556701571733
5400.00000000211,27.1758732665765,1.00000000158114,0.511811688580921
5500.00000000248,26.6939706192885,1.00000000187665,0.536379899797695
5600.00000000284,26.2279415241502,1.00000000186106,0.520068831064965
5700.00000000321,25.7772282456294,1.00000000184576,0.509366822146798
5800.00000000357,25.3435229486823,1.00000000163704,0.512326096247866
5900.00000000393,24.9242200263343,1.00000000187997,0.549432409954806
6000.0000000043,24.5199471160933,1.00000000168573,0.52503797649268
6100.00000000466,24.1336933609997,1.00000000183986,0.512117084835456
6200.00000000502,23.7606442375653,1.00000000187208,0.511079861611122
6300.00000000539,23.4046268699406,1.00000000160722,0.521092278007026
6400.00000000575,23.0613818001623,1.0000000020207,0.554027112744727
6500.00000000612,22.7298267140827,1.00000000171341,0.532370452980766
6600.00000000648,22.4177033877745,1.0000000016629,0.504966598878881
6700.00000000684,22.1191212152598,1.00000000191469,0.515707595426201
6800.00000000721,21.8314189368284,1.00000000177568,0.5090800119983
6900.00000000757,21.5572554501234,1.00000000165496,0.529430612424834
7000.00000000793,21.2909069699961,1.00000000197913,0.543271686850774
7100.0000000083,21.0307932335751,1.00000000174645,0.535951659427489
7200.00000000866,20.787733902195,1.00000000173901,0.524168297210107
7300.00000000903,20.5591013497999,1.00000000182463,0.52320181459052
7400.00000000939,20.3420605404558,1.00000000184617,0.518955663546349
7500.00000000975,20.1345202085603,1.00000000179823,0.513238622914706
7600.00000001012,19.9359008391225,1.00000000183871,0.545557500810281
7700.00000001048,19.7433072174196,1.00000000182773,0.557099599438157
7800.00000001084,19.5560781791416,1.00000000176214,0.540895084383653
7900.00000001121,19.3759042817775,1.0000000018953,0.548473444222209
8000.00000001157,19.2037209488323,1.00000000180502,0.541401403540721
8100.00000001194,19.0473554185898,1.00000000173193,0.529426378844937
8200.0000000123,18.9004932371925,1.00000000200333,0.537847012453845
8300.00000001266,18.7639302052819,1.00000000173314,0.534536262353598
8400.00000001303,18.6365990851119,1.00000000181238,0.543443912733621
8500.00000001339,18.5066630138392,1.00000000203387,0.566554986278568
8600.00000001376,18.3802775146893,1.00000000169795,0.559245827172138
8700.00000001412,18.2647734420172,1.00000000191142,0.550652927502273
8800.00000001448,18.1490473981819,1.00000000196849,0.559640409153196
8900.00000001485,18.0288353468794,1.00000000193431,0.571954298050467
9000.00000001521,17.9154033738614,1.00000000181673,0.554227658741863
9100.00000001557,17.8137307963606,1.00000000185029,0.543056884188023
9200.00000001594,17.7223376331246,1.00000000184552,0.549161819300234
9300.0000000163,17.6419719096348,1.00000000181843,0.543544770935919
9400.00000001667,17.5682878356776,1.00000000195037,0.555580867607394
9500.00000001703,17.4962546427484,1.00000000201311,0.573157491031923
9600.00000001739,17.4179409807524,1.00000000203989,0.571306463205932
9700.00000001776,17.3422416922009,1.00000000179213,0.563708988430044
9800.00000001812,17.2798150236012,1.00000000174332,0.551673918453896
9900.00000001848,17.2217906688201,1.00000000191557,0.567071204716634
10000.0000000188,17.1575922402065,1.00000000201101,0.570220431955877
10100.0000000192,17.087373306284,1.00000000206248,0.580334973125107
10200.0000000196,17.0125944979527,1.0000000019176,0.589935314800503
10300.0000000199,16.9425574417547,1.00000000178538,0.572829970062329
10400.0000000203,16.8838160792427,1.00000000173852,0.565311273422956
10500.0000000207,16.8364148317936,1.00000000170376,0.566692694175919
10600.000000021,16.7999639155415,1.00000000185416,0.555026909392314
10700.0000000214,16.7701115005003,1.0000000018792,0.559530568503818
10800.0000000218,16.7400715636409,1.00000000206847,0.58137400130982
10900.0000000221,16.7072241740119,1.00000000206258,0.589391869797479
11000.0000000225,16.6741900787237,1.00000000175228,0.576400504794519
11100.0000000229,16.6443458992237,1.00000000190908,0.575510659754077
11200.0000000232,16.6151840917551,1.00000000191482,0.581145157121776
11300.0000000236,16.5905412116555,1.00000000185845,0.569962437329808
11400.0000000239,16.5688357234263,1.00000000185824,0.574370853119031
11500.0000000243,16.544780005365,1.00000000198342,0.586479810248001
11600.0000000247,16.5137579847603,1.0000000019835,0.590677361621823
11700.000000025,16.4781257481465,1.00000000204463,0.584903957693399
11800.0000000254,16.4377173908952,1.00000000201836,0.57866804078601
11900.0000000258,16.3944536199488,1.0000000019627,0.58519771029269
12000.0000000261,16.3536776607875,1.00000000196186,0.586092402473199
12100.0000000265,16.3175680049039,1.00000000192158,0.58325218075268
12200.0000000269,16.2900037771441,1.00000000186885,0.577595970480359
12300.0000000272,16.2708621536671,1.00000000191502,0.569956239259802
12400.0000000276,16.2613207549197,1.00000000181532,0.55292297650052
12500.0000000279,16.2586902410952,1.00000000190871,0.561975882052663
12600.0000000283,16.2562594122893,1.00000000206041,0.579959739316223
12700.0000000287,16.251380869412,1.00000000205013,0.591939102752521
12800.000000029,16.2474935464315,1.00000000203103,0.589174292759589
12900.0000000294,16.2422787530722,1.00000000198358,0.589922517196992
13000.0000000298,16.238269109651,1.00000000193288,0.590029135299841
13100.0000000301,16.2363657976499,1.00000000193319,0.5886633265806
13200.0000000305,16.233105120393,1.00000000200803,0.595313882719068
13300.0000000309,16.2326527481988,1.00000000187938,0.592605110672154
13400.0000000312,16.2389674149386,1.00000000190143,0.596285791537153
13500.0000000316,16.2434549041646,1.00000000215762,0.61605356013899
13600.0000000319,16.2385192444444,1.00000000217797,0.624977342597837
13700.0000000323,16.2255343749457,1.0000000021363,0.623102672342901
13800.0000000327,16.2112157802737,1.00000000194944,0.61477591664386
13900.000000033,16.2018176921626,1.0000000020146,0.614729071218907
14000.0000000334,16.1924764486633,1.00000000200367,0.62176044781849
14100.0000000338,16.180184472833,1.00000000222597,0.630137175073731
14200.0000000341,16.1599210814883,1.00000000225036,0.627467986225105
14300.0000000345,16.1329447197122,1.0000000022366,0.629243392990091
14400.0000000349,16.1021107775276,1.00000000210239,0.62899820649935
14500.0000000352,16.0741187428531,1.0000000021708,0.624806164652793
14600.0000000356,16.0544669582881,1.00000000195509,0.615008725533169
14700.0000000359,16.0444726830809,1.00000000200059,0.605805524327843
14800.0000000363,16.0451862775566,1.0000000019503,0.603497764967463
14900.0000000367,16.0563505769835,1.00000000200448,0.603188614625566
15000.000000037,16.0720605394832,1.00000000214394,0.603310899564259
15100.0000000374,16.0871258979626,1.00000000216568,0.615636680640231
15200.0000000378,16.1001943836603,1.00000000216791,0.616628930356816
15300.0000000381,16.1145665133371,1.00000000211168,0.6182467407488
15400.0000000385,16.1278564144794,1.00000000210723,0.621783739402451
15500.0000000389,16.1410914367131,1.00000000212978,0.615530259755802
15600.0000000392,16.1559507982666,1.0000000020161,0.619993494507937
15700.0000000396,16.1715624708387,1.00000000210161,0.62203650428777
15800.0000000399,16.1864775863246,1.00000000210513,0.620801121897298
15900.0000000403,16.203501222368,1.00000000198182,0.626507579399928
16000.0000000407,16.2217313097553,1.00000000209101,0.627263517119635
16100.000000041,16.2385961724386,1.00000000228577,0.632608446154113
16200.0000000414,16.2518725434012,1.00000000218207,0.623629490822035
16300.0000000418,16.263088880703,1.00000000238914,0.617199096123601
16400.0000000418,16.2749493522679,1.00000000209293,0.62205774361493
16500.0000000404,16.2857646957734,1.0000000020831,0.645888238925879
16600.0000000389,16.2964949468243,1.00000000211968,0.641957246000931
16700.0000000375,16.3055218725954,1.00000000211697,0.645769841939233
16800.000000036,16.3145137930404,1.00000000219415,0.642264236139012
16900.0000000346,16.3202368422114,1.0000000023311,0.640625331705727
17000.0000000331,16.3247880117046,1.00000000238713,0.64247511409488
17100.0000000317,16.3264453440782,1.00000000235442,0.651579511593363
17200.0000000302,16.3249473267281,1.00000000218957,0.657685530752624
17300.0000000287,16.3199041122677,1.00000000240295,0.658864604244915
17400.0000000273,16.309394618774,1.00000000220141,0.660488512445387
17500.0000000258,16.2953354143738,1.00000000227273,0.666078438839548
17600.0000000244,16.2783140456136,1.00000000222908,0.660938068945711
17700.0000000229,16.2580028508273,1.00000000235505,0.663303249834335
17800.0000000215,16.2344514322667,1.0000000023702,0.663370914556682
17900.00000002,16.2087469189344,1.00000000227328,0.661625335692091
18000.0000000186,16.1841968417668,1.00000000223494,0.663619628390206
18100.0000000171,16.1629618609956,1.00000000216926,0.655973240714616
18200.0000000156,16.146231562239,1.00000000225642,0.646912968138703
18300.0000000142,16.1373357081414,1.00000000206355,0.639311181212656
18400.0000000127,16.1360860027863,1.0000000021065,0.632944779079433
18500.0000000113,16.1423901066555,1.00000000224816,0.637204630540827
18600.0000000098,16.1571372182729,1.0000000020652,0.627717281764308
18700.0000000084,16.1787654235155,1.00000000228569,0.617555732394897
18800.0000000069,16.2057423204018,1.00000000224554,0.620077362639653
18900.0000000055,16.23356680738,1.0000000023277,0.626556653669786
19000.000000004,16.2599146767498,1.00000000223727,0.634199055382327
19100.0000000026,16.285133058885,1.00000000244048,0.640297386395798
19200.0000000011,16.3114437156598,1.00000000219911,0.634251407867883
19299.9999999996,16.3395999682269,1.00000000216425,0.63633711592785
19399.9999999982,16.3669230825173,1.00000000232081,0.636599893531629
19499.9999999967,16.3939326687981,1.00000000218243,0.62757557456593
19599.9999999953,16.4232877147896,1.00000000231841,0.626175905657068
19699.9999999938,16.4532691015906,1.00000000224005,0.625091677904572
19799.9999999924,16.4832013367537,1.00000000228129,0.634690897534707
19899.9999999909,16.5117529935454,1.00000000244447,0.635601332136801
19999.9999999895,16.5388719646014,1.00000000225116,0.631145742557378
20099.999999988,16.5689817812629,1.00000000228405,0.640379263608065
20199.9999999865,16.603405995089,1.00000000225982,0.651856922150583
20299.9999999851,16.6344622785011,1.00000000251565,0.65359332959001
20399.9999999836,16.6579296012189,1.00000000262651,0.649711640235424
20499.9999999822,16.6764787296025,1.00000000229988,0.653211979750041
20599.9999999807,16.692169821867,1.00000000247361,0.664105869575498
20699.9999999793,16.7083264593947,1.00000000221688,0.658673625929192
20799.9999999778,16.7274646900065,1.00000000231404,0.657703403504189
20899.9999999764,16.7498167635841,1.00000000236193,0.657567378335655
20999.9999999749,16.7742096443449,1.00000000235946,0.65765799130653
21099.9999999734,16.7998295502977,1.0000000023791,0.667427542969353
21199.999999972,16.8252678282901,1.0000000024907,0.676993559812807
21299.9999999705,16.8487588917687,1.0000000023483,0.676156907562531
21399.9999999691,16.8690504917495,1.0000000024635,0.675021672372985
21499.9999999676,16.8868951002131,1.00000000251987,0.677431814193644
21599.9999999662,16.899993162618,1.00000000262563,0.681501051918963
21699.9999999647,16.9119334882085,1.00000000240281,0.683637211526191
21799.9999999633,16.9238887906392,1.00000000240791,0.680839534277249
21899.9999999618,16.9364925103515,1.00000000246697,0.678582919416662
21999.9999999603,16.9490209633278,1.00000000244531,0.684992639682151
22099.9999999589,16.961688911267,1.00000000238747,0.684834687986254
22199.9999999574,16.9749401313207,1.00000000235232,0.677855448997241
22299.999999956,16.9868628643797,1.00000000250683,0.678617351853477
22399.9999999545,16.9964077478467,1.00000000258784,0.68095979259044
22499.9999999531,17.002365349545,1.00000000248103,0.675243034221255
22599.9999999516,17.0064058608872,1.00000000253742,0.676302434034799
22699.9999999502,17.0109011325728,1.00000000238582,0.668508209366096
22799.9999999487,17.0141879456211,1.00000000255857,0.681323408239471
22899.9999999473,17.0111874790393,1.0000000025459,0.684333925183331
22999.9999999458,17.0068427751263,1.0000000024398,0.688222848851258
23099.9999999443,17.0021593427534,1.00000000242736,0.681346075735695
23199.9999999429,16.9969907531549,1.00000000250129,0.677565803949395
23299.9999999414,16.9890322700425,1.00000000252223,0.673922612510757
23399.99999994,16.9785469763122,1.00000000257865,0.683182304597997
23499.9999999385,16.9657036722851,1.00000000250663,0.681766369758814
23599.9999999371,16.9501755516658,1.00000000253911,0.67709920125288
23699.9999999356,16.9341332626913,1.0000000025869,0.674470280737065
23799.9999999342,16.9178194954342,1.00000000241433,0.674499978209985
23899.9999999327,16.9042555885743,1.00000000252381,0.678385943712495
23999.9999999312,16.8925253732068,1.0000000025892,0.676207987477764
24099.9999999298,16.8823471259416,1.00000000261257,0.672601167904536
24199.9999999283,16.8760383110466,1.00000000246961,0.67487056477818
24299.9999999269,16.8737005443462,1.00000000246529,0.671732773192727
24399.9999999254,16.8771314436598,1.00000000246161,0.664789249230073
24499.999999924,16.885090419124,1.00000000251836,0.662452428225963
24599.9999999225,16.89945679608,1.00000000249153,0.656981613026193
24699.9999999211,16.9220352218942,1.00000000233264,0.659900865348377
24799.9999999196,16.9524567825054,1.00000000243373,0.660868753792193
24899.9999999181,16.9892908339157,1.00000000243217,0.651244140418685
24999.9999999167,17.0317658691107,1.00000000261089,0.653977287775841
25099.9999999152,17.0751589014062,1.00000000260576,0.646257304207717
25199.9999999138,17.1216952551485,1.00000000249139,0.630647370360331
25299.9999999123,17.1665081121244,1.00000000276531,0.639160013899001
25399.9999999109,17.2105511683699,1.00000000255724,0.640278314214856
25499.9999999094,17.2529861598085,1.00000000267332,0.644403548661796
25599.999999908,17.296026651037,1.00000000250514,0.628680740864817
25699.9999999065,17.3414870595544,1.00000000259408,0.632131817096333
25799.9999999051,17.3877698790944,1.00000000258197,0.636988954720702
25899.9999999036,17.4358477415366,1.00000000268508,0.633756318207486
25999.9999999021,17.4833648435635,1.00000000267765,0.637757309684284
26099.9999999007,17.5320425626768,1.00000000257525,0.639419153980842
26199.9999998992,17.5821148589917,1.0000000026415,0.630866524771684
26299.9999998978,17.6316868086343,1.00000000269651,0.632605072561156
26399.9999998963,17.6846791620924,1.00000000259856,0.641583621998785
26499.9999998949,17.740632822656,1.00000000260607,0.639310542052948
26599.9999998934,17.799070847669,1.00000000256716,0.639949531478659
26699.999999892,17.8613382933464,1.0000000027568,0.646788237040606
26799.9999998905,17.9203920279523,1.00000000271587,0.648020009560544
26899.999999889,17.9792784041274,1.00000000272428,0.646429012690388
26999.9999998876,18.0349799621311,1.00000000283908,0.64684028550284
27099.9999998861,18.0849530787867,1.00000000266813,0.649031231982362
27199.9999998847,18.1319104173399,1.00000000285073,0.668632575939004
27299.9999998832,18.1747676603239,1.00000000293109,0.664552675363925
27399.9999998818,18.2164068355066,1.00000000269417,0.664908261320695
27499.9999998803,18.2617553928501,1.00000000257829,0.66664110621866
27599.9999998789,18.3062856471192,1.00000000281341,0.669865943345788
27699.9999998774,18.3486597969502,1.00000000277932,0.681069483467894
27799.9999998759,18.3924692385031,1.00000000279992,0.681479035681799
27899.9999998745,18.4348870130755,1.00000000282315,0.679138703972917
27999.999999873,18.480105902824,1.00000000266277,0.680639268839392
28099.9999998716,18.5295258276347,1.00000000267701,0.687528021935355
28199.9999998701,18.5804699806319,1.00000000271729,0.687636008584748
28299.9999998687,18.6337764653111,1.00000000286509,0.681643775422251
28399.9999998672,18.6854280601539,1.00000000293285,0.695892275444918
28499.9999998658,18.7333790502284,1.00000000284415,0.701555149540574
28599.9999998643,18.7794277841246,1.00000000286774,0.702881507211673
28699.9999998629,18.8216542858456,1.00000000282302,0.700851033430618
28799.9999998614,18.8623162435133,1.00000000277087,0.690885713366128
28899.9999998599,18.9005228066952,1.00000000288104,0.696202994778464
28999.9999998585,18.9353947789654,1.00000000280037,0.699393598236365
