Time,AGPnorm,Energy,Entropy
0,0,1,-1.16524639076267e-17
99.9999999999986,2.76113520847157e-05,0.999999999998139,0.00115187048721324
199.999999999993,0.00251310289984891,0.999999999998688,0.00188164577023241
300,0.0061565255360968,0.999999999999775,0.00325637401209853
400.000000000022,0.00851713836262337,0.999999999997591,0.00558889446367912
500.000000000045,0.0103282768617497,0.999999999999763,0.00753800304584258
600.000000000068,0.0147684412401708,0.999999999998611,0.0104003092868545
700.000000000091,0.0183623870651476,0.999999999998195,0.0134178973030042
800.000000000113,0.0234691911412928,1.00000000000007,0.0164488630815632
900.000000000136,0.0294696560593768,0.999999999997663,0.020206089205786
1000.00000000016,0.0341034840291641,0.999999999999322,0.0238268757976541
1100.0000000001,0.0405585148221372,0.999999999999158,0.0278198682194883
1200,0.047607661339152,0.999999999997843,0.0322212099512222
1299.99999999991,0.0548217425525044,1.00000000000012,0.0365421356657767
1399.99999999982,0.0629107853910613,0.999999999997924,0.0413735698418316
1499.99999999973,0.0703429008506032,0.999999999998789,0.0463130439099696
1599.99999999964,0.0787439262126442,0.99999999999968,0.0513954133508546
1699.99999999955,0.0879906419395585,0.999999999997684,0.0569991090014056
1799.99999999946,0.0966876121705375,0.99999999999992,0.0626085694732356
1899.99999999937,0.10604324041716,0.999999999998349,0.0685462045673429
1999.99999999928,0.115678790636821,0.999999999998281,0.074849245019033
2099.99999999919,0.125536983755709,1.00000000000003,0.0812360601883013
2199.99999999909,0.136054005327746,0.999999999997685,0.0882187822537168
2299.999999999,0.145666101066184,0.999999999999554,0.0953663701992944
2399.99999999891,0.15570523151782,0.999999999998878,0.102823460462023
2499.99999999882,0.166461284398315,0.999999999997971,0.110922302608701
2599.99999999873,0.177096954361543,1.00000000000008,0.119264313689242
2699.99999999864,0.187906340273915,0.999999999997904,0.128343362251162
2799.99999999855,0.198090208299339,0.999999999999194,0.138000782293929
2899.99999999846,0.208427660035946,0.999999999999859,0.148246958103185
2999.99999999837,0.219251986956517,0.99999999999912,0.159748960803564
3099.99999999828,0.229883426800967,1.00000000000339,0.172087206807179
3199.99999999819,0.240465895276537,1.00000000000623,0.185730694613153
3299.99999999809,0.249850287882652,1.00000000001638,0.200581716722737
3399.999999998,0.262131814644512,1.00000000003169,0.216067107895211
3499.99999999791,0.272340098247365,1.00000000005044,0.23253366667008
3599.99999999782,0.285100703762512,1.00000000008195,0.248915808576239
3699.99999999773,0.305784787898349,1.00000000011019,0.265347016171336
3799.99999999764,0.324113122013431,1.00000000015747,0.281686574830579
3899.99999999755,0.36557737344069,1.00000000019367,0.297499751841671
3999.99999999746,0.420519229778615,1.00000000023878,0.313135061942343
4099.99999999738,0.497452296655438,1.00000000027175,0.32835477509851
4199.99999999775,0.627819825388763,1.00000000031606,0.342746480200369
4299.99999999811,0.790418127230998,1.00000000037877,0.357144879498093
4399.99999999848,1.02696516027818,1.00000000042885,0.370694134075349
4499.99999999884,1.34818289217594,1.00000000047112,0.383808623711265
4599.9999999992,1.74666222908943,1.00000000052568,0.396643331941215
4699.99999999957,2.27727439734769,1.0000000005187,0.408612433115306
4799.99999999993,2.92427972811084,1.00000000058691,0.420249182065037
4900.00000000029,3.7101620456901,1.00000000060028,0.431406563329818
5000.00000000066,4.67542453295452,1.00000000062606,0.441624396690466
5100.00000000102,5.79249438336245,1.00000000068525,0.451812535535188
5200.00000000139,7.10633820680254,1.00000000070714,0.461150303001095
5300.00000000175,8.62556974922046,1.00000000073677,0.470103349199313
5400.00000000211,10.3317127735238,1.00000000074164,0.478849671362819
5500.00000000248,12.2771784293851,1.00000000075886,0.486433169017355
5600.00000000284,14.4342063960011,1.00000000076343,0.494291647101134
5700.00000000321,16.8078938209129,1.00000000083041,0.501124493038849
5800.00000000357,19.4338678012366,1.00000000078992,0.507748010600134
5900.00000000393,22.2638560674729,1.00000000083043,0.514217812891702
6000.0000000043,25.3328540179573,1.00000000085523,0.519797752285058
6100.00000000466,28.6354211029682,1.0000000008658,0.52525329024397
6200.00000000502,32.1320091272253,1.00000000087614,0.530506421166609
6300.00000000539,35.8700268024277,1.00000000086605,0.53493396709565
6400.00000000575,39.7988270661901,1.00000000086204,0.539554926155575
6500.00000000612,43.9185592085245,1.00000000085246,0.543783754370043
6600.00000000648,48.2506026419734,1.00000000087194,0.547377904323255
6700.00000000684,52.729412003468,1.00000000089244,0.551213823633199
6800.00000000721,57.3925976595375,1.00000000086617,0.554228168625942
6900.00000000757,62.2108381167693,1.00000000085897,0.557324750961736
7000.00000000793,67.1476390008618,1.00000000084244,0.560452844363921
7100.0000000083,72.2421119656229,1.00000000086761,0.562598253172108
7200.00000000866,77.4275923715468,1.00000000086362,0.565224827121525
7300.00000000903,82.7187083303068,1.00000000084365,0.567293278338644
7400.00000000939,88.1128265275545,1.00000000085173,0.56913062936844
7500.00000000975,93.5512791982071,1.00000000083487,0.571321921347481
7600.00000001012,99.0764028378702,1.00000000085563,0.572417681509553
7700.00000001048,104.636412221672,1.00000000082286,0.574245183361704
7800.00000001084,110.222199919888,1.00000000082367,0.575627335462745
7900.00000001121,115.852795343409,1.00000000080984,0.576502248346393
8000.00000001157,121.463941922845,1.00000000080962,0.577876014225563
8100.00000001194,127.088659729035,1.00000000078928,0.578637294652803
8200.0000000123,132.698794712546,1.00000000078926,0.579355162122346
8300.00000001266,138.265768197506,1.00000000077696,0.580492655692729
8400.00000001303,143.821089408976,1.00000000077817,0.580490568125938
8500.00000001339,149.307930972517,1.00000000077932,0.581315968865027
8600.00000001376,154.745705510715,1.00000000078551,0.581663023254849
8700.00000001412,160.124766390318,1.00000000074399,0.581941354493436
8800.00000001448,165.410983548383,1.000000000768,0.582392734465565
8900.00000001485,170.634289370772,1.00000000074848,0.582214973974313
9000.00000001521,175.756326604977,1.0000000007321,0.582637305239515
9100.00000001557,180.778545111736,1.00000000072916,0.58246095274798
9200.00000001594,185.71161736348,1.00000000070318,0.582590245894326
9300.0000000163,190.515428143664,1.00000000072601,0.582115412851475
9400.00000001667,195.220382619629,1.00000000070104,0.582806937727466
9500.00000001703,199.799720426487,1.00000000068931,0.581628052096645
9600.00000001739,204.247204610512,1.00000000067624,0.582441065913823
9700.00000001776,208.582105290941,1.00000000067971,0.58146478820032
9800.00000001812,212.767363320744,1.00000000067911,0.581326483115237
9900.00000001848,216.829599424393,1.00000000066669,0.581772653208991
10000.0000000188,220.752790612825,1.00000000065906,0.580298535846264
10100.0000000192,224.526743547465,1.00000000063225,0.581064412166266
10200.0000000196,228.172840456331,1.00000000061391,0.580155905191057
10300.0000000199,231.663238464386,1.0000000006371,0.579897776315169
10400.0000000203,235.015525033337,1.00000000061367,0.579652485915557
10500.0000000207,238.225078310081,1.00000000061925,0.579115081570606
10600.000000021,241.281540657723,1.00000000060842,0.578971827210777
10700.0000000214,244.202836453735,1.00000000061284,0.578129120339133
10800.0000000218,246.970992610679,1.00000000059881,0.578676709195784
10900.0000000221,249.597538351065,1.000000000581,0.577136227722408
11000.0000000225,252.081867223914,1.00000000055982,0.577469730454049
11100.0000000229,254.416719173043,1.00000000058503,0.577721181648168
11200.0000000232,256.617731891589,1.00000000057328,0.575256794884076
11300.0000000236,258.671062020111,1.00000000056646,0.576603089085939
11400.0000000239,260.587824946635,1.00000000054169,0.576253088214515
11500.0000000243,262.370602726589,1.00000000053272,0.574312918602522
11600.0000000247,264.009225563647,1.00000000053172,0.575444118159712
11700.000000025,265.523743311203,1.00000000052806,0.574499568147083
11800.0000000254,266.901558280997,1.00000000050994,0.574583271747972
11900.0000000258,268.150591508683,1.00000000050724,0.575103996201893
12000.0000000261,269.279105666729,1.00000000049921,0.571734366728406
12100.0000000265,270.274474766796,1.00000000049246,0.57337643120864
12200.0000000269,271.156527148822,1.00000000050565,0.575631059852446
12300.0000000272,271.923281998705,1.00000000048275,0.572305521336735
12400.0000000276,272.569805800596,1.00000000048469,0.569638336399508
12500.0000000279,273.107080258579,1.00000000047689,0.572690692001001
12600.0000000283,273.534800909545,1.00000000047716,0.575615519688032
12700.0000000287,273.867451463569,1.00000000047938,0.572616781683759
12800.000000029,274.098766625962,1.00000000044331,0.566941418126346
12900.0000000294,274.224116287592,1.00000000045297,0.567648225792804
13000.0000000298,274.261474238316,1.00000000048772,0.575375995108127
13100.0000000301,274.21832278416,1.00000000048725,0.575097325380654
13200.0000000305,274.097088409849,1.00000000046262,0.565335737965138
13300.0000000309,273.884551016294,1.00000000041936,0.559484113824187
13400.0000000312,273.585773559871,1.00000000045925,0.570615257597133
13500.0000000316,273.229960181129,1.0000000005147,0.578110222558922
13600.0000000319,272.81876508317,1.00000000047164,0.569182235810206
13700.0000000323,272.340615828685,1.00000000040801,0.556190847417151
13800.0000000327,271.784255302427,1.00000000041207,0.55457008595533
13900.000000033,271.165179076703,1.00000000048621,0.573414496573304
14000.0000000334,270.515270315339,1.00000000054676,0.57881815251596
14100.0000000338,269.829681803148,1.00000000046471,0.564118800278367
14200.0000000341,269.091984582318,1.00000000042201,0.54880548737897
14300.0000000345,268.288326329141,1.00000000039205,0.546071834160589
14400.0000000349,267.435239813005,1.00000000050639,0.570676766689518
14500.0000000352,266.570665593322,1.00000000057022,0.581446053815107
14600.0000000356,265.690202865998,1.00000000050487,0.565114035612255
14700.0000000359,264.776460112525,1.00000000041001,0.543948954303527
14800.0000000363,263.808693743003,1.00000000038803,0.532907264187626
14900.0000000367,262.793850180969,1.00000000044367,0.554376116217498
15000.000000037,261.772440442871,1.00000000061771,0.584226252452274
15100.0000000374,260.755408045199,1.00000000053108,0.572135495624421
15200.0000000378,259.72912081027,1.00000000049289,0.549094580223126
15300.0000000381,258.670096962427,1.00000000036305,0.525990104931052
15400.0000000385,257.563677807303,1.00000000036561,0.525009418215379
15500.0000000389,256.435773127013,1.00000000051489,0.562363169719157
15600.0000000392,255.315482760811,1.00000000064469,0.58529381726926
15700.0000000396,254.210192597209,1.00000000057368,0.567312029611052
15800.0000000399,253.101895860332,1.00000000045915,0.538285429612355
15900.0000000403,251.966220317386,1.00000000034896,0.516926548667448
16000.0000000407,250.797445858724,1.00000000036373,0.515412168019549
16100.000000041,249.609718661757,1.00000000050229,0.552255285555975
16200.0000000414,248.431905117075,1.00000000065555,0.583610419743577
16300.0000000418,247.276844771145,1.00000000061827,0.57341822642296
16400.0000000418,246.129114594113,1.0000000005025,0.542065986212579
16500.0000000404,244.971410724092,1.00000000037712,0.515540488606128
16600.0000000389,243.788236435491,1.00000000036047,0.507165591840078
16700.0000000375,242.585207863095,1.00000000043811,0.523713791528989
16800.000000036,241.383350285777,1.0000000005753,0.562205626319625
16900.0000000346,240.198308470765,1.00000000064789,0.581338742172817
17000.0000000331,239.034203713005,1.00000000061735,0.563706854026683
17100.0000000317,237.878909333285,1.00000000048582,0.528584116974003
17200.0000000302,236.715052544143,1.00000000038631,0.508299917539994
17300.0000000287,235.538430840806,1.0000000003987,0.507125343740182
17400.0000000273,234.349342421759,1.00000000044159,0.518054663922006
17500.0000000258,233.162186219728,1.0000000005297,0.547649694903057
17600.0000000244,231.989527486373,1.00000000063732,0.571918810305903
17700.0000000229,230.835340511778,1.00000000062733,0.566083796642128
17800.0000000215,229.695384539754,1.00000000055451,0.535859911843008
17900.00000002,228.557221298287,1.00000000044097,0.511813457927871
18000.0000000186,227.415577501849,1.00000000040372,0.507143837292834
18100.0000000171,226.268638078962,1.00000000041083,0.511385290482771
18200.0000000156,225.119080035333,1.00000000045904,0.521895498695577
18300.0000000142,223.976073568928,1.00000000053788,0.541578049421455
18400.0000000127,222.84541489558,1.00000000059769,0.55899053683582
18500.0000000113,221.729456654617,1.0000000006084,0.555816041843717
18600.0000000098,220.626135912286,1.0000000005407,0.534326807808399
18700.0000000084,219.528823846606,1.00000000049003,0.515456918024287
18800.0000000069,218.434858689189,1.0000000004213,0.508649825384183
18900.0000000055,217.341335487508,1.00000000043188,0.513964254695372
19000.000000004,216.25003727148,1.00000000045893,0.519218796672769
19100.0000000026,215.163853955862,1.00000000050731,0.523997653124021
19200.0000000011,214.084782786684,1.00000000053402,0.533150378398936
19299.9999999996,213.016614552385,1.00000000055602,0.544743784401558
19399.9999999982,211.960117800561,1.000000000553,0.544768274331389
19499.9999999967,210.913622864886,1.00000000055192,0.532324796357278
19599.9999999953,209.875660247388,1.00000000050065,0.517899198729714
19699.9999999938,208.84339452969,1.00000000044043,0.514162401224752
19799.9999999924,207.817593332446,1.00000000045106,0.519446536256334
19899.9999999909,206.797147192782,1.00000000046166,0.520882834009411
19999.9999999895,205.782537706171,1.00000000046048,0.518133830590094
20099.999999988,204.774948112597,1.0000000004848,0.517763523279539
20199.9999999865,203.775197398242,1.00000000049783,0.526052012140722
20299.9999999851,202.784606001986,1.0000000005573,0.535740825105239
20399.9999999836,201.803801259395,1.00000000057143,0.538992282272933
20499.9999999822,200.831654329616,1.00000000051817,0.53209402119553
20599.9999999807,199.86834050255,1.00000000048581,0.526102996271514
20699.9999999793,198.913117757717,1.00000000046969,0.523947733822813
20799.9999999778,197.966549253395,1.00000000048712,0.527399921740455
20899.9999999764,197.027970915957,1.0000000004515,0.524665018873992
20999.9999999749,196.096729615072,1.00000000044654,0.517229796842142
21099.9999999734,195.173360675039,1.00000000043851,0.512883628181645
21199.999999972,194.257790371275,1.00000000048172,0.515031973525023
21299.9999999705,193.350648419156,1.00000000048964,0.521492033088409
21399.9999999691,192.452230836204,1.00000000054275,0.529649211858355
21499.9999999676,191.56186558342,1.00000000053217,0.539361273592836
21599.9999999662,190.679782751306,1.00000000050804,0.539154892250779
21699.9999999647,189.805882941316,1.00000000051203,0.533256445184721
21799.9999999633,188.94029934918,1.00000000050615,0.53302875805068
21899.9999999618,188.083373877027,1.00000000050467,0.536475722413023
21999.9999999603,187.235321793453,1.00000000046824,0.530828300781252
22099.9999999589,186.396903511801,1.00000000044213,0.521566662419639
22199.9999999574,185.567739953414,1.00000000042842,0.508142674776618
22299.999999956,184.748320165509,1.0000000004153,0.503730458398002
22399.9999999545,183.938307648226,1.00000000045774,0.508440160142913
22499.9999999531,183.136887961446,1.00000000048057,0.51944894923757
22599.9999999516,182.34299981206,1.00000000054574,0.527471204872325
22699.9999999502,181.556032301749,1.00000000053062,0.535875987323294
22799.9999999487,180.775909882967,1.00000000049034,0.541495282953501
22899.9999999473,180.003257624021,1.00000000047642,0.536312324364522
22999.9999999458,179.237802343222,1.0000000004851,0.535799483090077
23099.9999999443,178.479281737644,1.00000000053587,0.544486745019633
23199.9999999429,177.727903471149,1.00000000053856,0.541568436584676
23299.9999999414,176.985409449937,1.0000000004656,0.530244816930288
23399.99999994,176.253522944361,1.00000000040418,0.515209445009196
23499.9999999385,175.534004030017,1.00000000036522,0.496934726135576
23599.9999999371,174.827210207667,1.00000000039327,0.492772504368045
23699.9999999356,174.131253005521,1.00000000044351,0.50026527800735
23799.9999999342,173.443404023137,1.00000000053625,0.51537789923812
23899.9999999327,172.761464673798,1.0000000005442,0.520844202058859
23999.9999999312,172.084662424055,1.00000000053361,0.524165781245058
24099.9999999298,171.412935292225,1.00000000052064,0.531492302671249
24199.9999999283,170.747129117043,1.00000000048266,0.537317265574816
24299.9999999269,170.087012438342,1.0000000005077,0.538003509292796
24399.9999999254,169.431848764755,1.00000000052628,0.539182299489439
24499.999999924,168.780653041173,1.00000000058512,0.548033940877586
24599.9999999225,168.133977784155,1.00000000054053,0.546153073899703
24699.9999999211,167.494118277408,1.00000000052323,0.531388405221062
24799.9999999196,166.864880648934,1.00000000041703,0.513197762860164
24899.9999999181,166.249575013147,1.00000000037063,0.498875431852149
24999.9999999167,165.649421976605,1.00000000036023,0.487010048641653
25099.9999999152,165.063299395847,1.00000000041926,0.488554046516408
25199.9999999138,164.487025529738,1.00000000050254,0.499121590133326
25299.9999999123,163.916737476104,1.00000000054968,0.512394234814414
25399.9999999109,163.350322702153,1.00000000054892,0.516496250316023
25499.9999999094,162.787338307984,1.00000000053012,0.515708818135151
25599.999999908,162.227424426758,1.0000000005085,0.520112483359021
25699.9999999065,161.671201583524,1.00000000049993,0.530664079525868
25799.9999999051,161.118225852181,1.00000000052119,0.541089126829863
25899.9999999036,160.567583266768,1.00000000050057,0.539610046415173
25999.9999999021,160.019453562749,1.00000000052578,0.539732406204269
26099.9999999007,159.473160782339,1.00000000055995,0.54524391579701
26199.9999998992,158.92976694634,1.0000000005388,0.541527737083678
26299.9999998978,158.392420095804,1.00000000050219,0.52767005607119
26399.9999998963,157.864903306413,1.00000000042374,0.510451670354728
26499.9999998949,157.35098619891,1.00000000038245,0.499773927966413
26599.9999998934,156.852273854098,1.00000000038882,0.495423769258303
26699.999999892,156.367443418253,1.00000000042068,0.49218838010166
26799.9999998905,155.89530694887,1.00000000045994,0.490592931500281
26899.999999889,155.431843943287,1.00000000048864,0.497394062144297
26999.9999998876,154.974053120737,1.00000000052749,0.50443335288751
27099.9999998861,154.519498000641,1.00000000053117,0.512183624181989
27199.9999998847,154.066698011912,1.00000000052411,0.516522336516404
27299.9999998832,153.614410415563,1.00000000052456,0.518750806659877
27399.9999998818,153.162341056299,1.00000000051795,0.524971803280395
27499.9999998803,152.710874440934,1.00000000052647,0.53329475356155
27599.9999998789,152.259606844882,1.00000000053231,0.541633258169142
27699.9999998774,151.808449396127,1.00000000051631,0.539371065310626
27799.9999998759,151.359041037178,1.00000000051563,0.535089323363262
27899.9999998745,150.911786449656,1.00000000052445,0.5337988523228
27999.999999873,150.467689370034,1.00000000053958,0.532033623181738
28099.9999998716,150.028888394364,1.000000000509,0.526891468465275
28199.9999998701,149.596787352417,1.00000000050885,0.521433016051079
28299.9999998687,149.173962063017,1.00000000044949,0.511408257270661
28399.9999998672,148.762718322618,1.00000000043919,0.503969129516266
28499.9999998658,148.364228100614,1.00000000042091,0.503030654623911
28599.9999998643,147.978950129403,1.00000000041373,0.497077904471764
28699.9999998629,147.605398993379,1.00000000043287,0.494226749597931
28799.9999998614,147.242680962458,1.00000000045726,0.493473761678625
28899.9999998599,146.887599444341,1.00000000049888,0.50316741627689
