Time,AGPnorm,Energy,Entropy
0,0,1,-3.81741658371279e-18
99.9999999999986,0.00626673933831602,0.999999999997494,0.0188892910167323
199.999999999993,0.0167876460959577,0.999999999998991,0.053518037184249
300,0.034204401136492,0.999999999998809,0.106304054287159
400.000000000022,0.0520111533359326,1.00000000000733,0.176947459349207
500.000000000045,0.0674667398122825,1.00000000018977,0.282255258558866
600.000000000068,0.16081480196165,1.00000000092193,0.39892137041643
700.000000000091,0.516490047559042,1.00000000171275,0.48693995091906
800.000000000113,1.59166227590298,1.00000000221493,0.537399819305886
900.000000000136,3.44045477431456,1.00000000239097,0.565048709723067
1000.00000000016,6.04670624983685,1.00000000252884,0.575140124347878
1100.0000000001,9.06698369559638,1.00000000241195,0.577673531840456
1200,12.2225605695627,1.00000000234085,0.570468481099045
1299.99999999991,15.1973482269288,1.00000000229008,0.567187481473572
1399.99999999982,17.8115552540027,1.00000000209893,0.55864013047294
1499.99999999973,19.9211817182029,1.00000000183533,0.548065753895326
1599.99999999964,21.5001807835283,1.00000000170664,0.537922963361941
1699.99999999955,22.5457474392229,1.00000000156992,0.54665341935664
1799.99999999946,23.1317522175011,1.00000000128133,0.506412905037585
1899.99999999937,23.3204301027305,1.00000000160634,0.563837372516268
1999.99999999928,23.2061288935526,1.00000000095888,0.468194216644243
2099.99999999919,22.8442215960369,1.00000000167793,0.57499250180478
2199.99999999909,22.4247570264256,1.0000000009721,0.464663276380143
2299.999999999,21.7884601616546,1.0000000014342,0.4949322280886
2399.99999999891,21.2101322026173,1.00000000199475,0.576577133753201
2499.99999999882,20.6208048117092,1.00000000077453,0.388183978208325
2599.99999999873,19.9315650307782,1.00000000132856,0.468208978252223
2699.99999999864,19.2960399410906,1.00000000209626,0.57218153314593
2799.99999999855,18.7383800684654,1.00000000139105,0.488168162508871
2899.99999999846,18.1593065393838,1.00000000078866,0.351150918865465
2999.99999999837,17.5801775931276,1.00000000148941,0.482938207201373
3099.99999999828,17.0224793436058,1.00000000188307,0.533374462381207
3199.99999999819,16.5186670547357,1.00000000178545,0.566804359326731
3299.99999999809,16.0503319071268,1.00000000088737,0.425384839622881
3399.999999998,15.6290820377576,1.00000000093323,0.363291813374593
3499.99999999791,15.2383740070205,1.00000000159529,0.484495713360404
3599.99999999782,14.8451367471494,1.00000000144989,0.531319539832228
3699.99999999773,14.4676308399393,1.00000000154021,0.504857965803515
3799.99999999764,14.0893069113621,1.00000000211734,0.569138102497338
3899.99999999755,13.7354493358353,1.00000000143944,0.525581425494679
3999.99999999746,13.4401491758153,1.00000000072723,0.383904650249946
4099.99999999738,13.2428872987945,1.0000000010643,0.377591085486425
4199.99999999775,13.07124753124,1.0000000015209,0.486795106853467
4299.99999999811,12.8771310415208,1.00000000165548,0.532519077834601
4399.99999999848,12.6600989074295,1.00000000164544,0.546688504114477
4499.99999999884,12.4503912750207,1.00000000125878,0.530132980140349
4599.9999999992,12.2377937885916,1.00000000155349,0.529854093542118
4699.99999999957,12.0061027761907,1.00000000184914,0.548750307305945
4799.99999999993,11.7653109387143,1.00000000198112,0.583829112602523
4900.00000000029,11.5435367502996,1.00000000123421,0.510712063636063
5000.00000000066,11.3990024297598,1.00000000071444,0.398519508513839
5100.00000000102,11.3729312149278,1.00000000094451,0.386729358326594
5200.00000000139,11.4089346908308,1.00000000145434,0.447028376123938
5300.00000000175,11.4183462775734,1.00000000170221,0.520488963814891
5400.00000000211,11.39039221457,1.00000000142113,0.551631863531266
5500.00000000248,11.3518117341113,1.00000000137048,0.549878441283423
5600.00000000284,11.2914733106599,1.00000000156449,0.565659583287497
5700.00000000321,11.2031234720902,1.00000000162355,0.553980367223867
5800.00000000357,11.0984880762437,1.00000000150545,0.561714989711145
5900.00000000393,10.9873059466185,1.00000000142907,0.568372735302344
6000.0000000043,10.8824835453721,1.00000000121938,0.564206924162161
6100.00000000466,10.770637867989,1.00000000152786,0.574676755570447
6200.00000000502,10.6426123968734,1.00000000169978,0.57880941514686
6300.00000000539,10.4984379978881,1.00000000197702,0.584869175447902
6400.00000000575,10.3449871523386,1.00000000195191,0.593059747596115
6500.00000000612,10.1968707111518,1.00000000134127,0.548354052141252
6600.00000000648,10.0898494646964,1.00000000087436,0.467100043331732
6700.00000000684,10.0803502453362,1.00000000076543,0.405715380225625
6800.00000000721,10.1874499230652,1.0000000011151,0.413082490222663
6900.00000000757,10.3632544947048,1.00000000135925,0.44272187788031
7000.00000000793,10.532952784432,1.0000000017204,0.492338234810542
7100.0000000083,10.6708755408118,1.00000000155656,0.523426933618328
7200.00000000866,10.7761178209822,1.00000000162014,0.558573879811364
7300.00000000903,10.8538198395919,1.00000000160957,0.563424113370937
7400.00000000939,10.9081543123804,1.00000000150356,0.580551113368379
7500.00000000975,10.9279915108735,1.00000000168144,0.594634028734872
7600.00000001012,10.9149146500727,1.00000000159333,0.595321182299348
7700.00000001048,10.8888125832997,1.00000000146907,0.569742931087184
7800.00000001084,10.8579289488652,1.00000000149765,0.563414334518042
7900.00000001121,10.8235170669107,1.00000000156364,0.549517422125109
8000.00000001157,10.7808788510801,1.00000000158191,0.543882267263788
8100.00000001194,10.734675570013,1.00000000156682,0.568683905273601
8200.0000000123,10.6871200511796,1.00000000138364,0.568618239582005
8300.00000001266,10.6411557018085,1.0000000015264,0.567055077398531
8400.00000001303,10.5963804229961,1.00000000142493,0.5688573623022
8500.00000001339,10.551480067526,1.00000000153482,0.568765523779781
8600.00000001376,10.4979811497285,1.00000000157322,0.565435756949646
8700.00000001412,10.4360186689676,1.00000000156043,0.566724044593666
8800.00000001448,10.3615566303605,1.00000000166854,0.592911601603145
8900.00000001485,10.2800211592844,1.00000000154404,0.608372409344265
9000.00000001521,10.2002465106176,1.0000000012466,0.595784943494496
9100.00000001557,10.1196017105987,1.00000000145485,0.600911664302611
9200.00000001594,10.0342505940518,1.00000000160187,0.5966763085233
9300.0000000163,9.94418424845226,1.00000000173229,0.595030862178444
9400.00000001667,9.85301965735175,1.00000000204453,0.591675376417068
9500.00000001703,9.76427913022514,1.00000000209472,0.577180322523001
9600.00000001739,9.6747999490635,1.00000000189787,0.574603262121439
9700.00000001776,9.58051890250595,1.00000000158117,0.5665790576877
9800.00000001812,9.48609744368122,1.00000000127472,0.526035978584253
9900.00000001848,9.41700141328976,1.00000000090007,0.467434152470122
10000.0000000188,9.4129420719971,1.00000000081722,0.428955776417752
10100.0000000192,9.50957999404224,1.00000000081001,0.407068888659736
10200.0000000196,9.70542252169483,1.00000000115551,0.422030707923489
10300.0000000199,9.97749865674252,1.00000000139767,0.436794862330015
10400.0000000203,10.2657534792062,1.00000000156364,0.46705555398055
10500.0000000207,10.5491252315623,1.00000000176801,0.495577547044261
10600.000000021,10.8030541107775,1.00000000167695,0.520947907390998
10700.0000000214,11.0314398686303,1.00000000162373,0.533775054674575
10800.0000000218,11.2346627613299,1.00000000163954,0.559186418706693
10900.0000000221,11.4163494532891,1.00000000154572,0.574240864645062
11000.0000000225,11.569039682981,1.00000000168247,0.589125566838891
11100.0000000229,11.6924750366656,1.00000000158326,0.596046458991159
11200.0000000232,11.7975775761434,1.00000000171519,0.613672622073806
11300.0000000236,11.8783497565151,1.00000000163602,0.626528834733546
11400.0000000239,11.9314726967568,1.00000000172547,0.622988032183455
11500.0000000243,11.9594826291275,1.00000000161805,0.627876526008248
11600.0000000247,11.9728866189102,1.00000000161395,0.623136108806644
11700.000000025,11.9757909182297,1.00000000157702,0.622690825145596
11800.0000000254,11.9729918843307,1.00000000155664,0.616317089260175
11900.0000000258,11.9600072122116,1.00000000178406,0.619320206806885
12000.0000000261,11.9355776194794,1.00000000159557,0.606755689848813
12100.0000000265,11.9119400879282,1.00000000164033,0.605316958320784
12200.0000000269,11.8768129235597,1.00000000164056,0.615836474524165
12300.0000000272,11.8342541851177,1.00000000155463,0.614141428324862
12400.0000000276,11.7860232335235,1.00000000167678,0.624004078550229
12500.0000000279,11.7320469786501,1.00000000168943,0.637326725976159
12600.0000000283,11.672010250125,1.00000000157636,0.63740886429239
12700.0000000287,11.6111095401613,1.00000000155926,0.63389792265948
12800.000000029,11.5575409275023,1.00000000141067,0.610852883780557
12900.0000000294,11.513069849983,1.00000000152962,0.601678868800437
13000.0000000298,11.4771481206078,1.00000000167479,0.59437830863349
13100.0000000301,11.4439640879271,1.00000000163059,0.599645154219734
13200.0000000305,11.414210717376,1.0000000016475,0.608203712174012
13300.0000000309,11.3837353790146,1.00000000167336,0.605877134915173
13400.0000000312,11.351683124771,1.00000000168804,0.617068627103391
13500.0000000316,11.3206183271485,1.00000000152,0.611455365744287
13600.0000000319,11.287698036908,1.000000001752,0.607270346480092
13700.0000000323,11.253494159088,1.00000000170505,0.609974778375659
13800.0000000327,11.2226339680315,1.00000000156284,0.605676906572513
13900.000000033,11.1936761904549,1.00000000160592,0.592461198982459
14000.0000000334,11.1665581714915,1.00000000165137,0.577245745348962
14100.0000000338,11.1372485192816,1.00000000163302,0.580606729760271
14200.0000000341,11.1100570954713,1.00000000160855,0.576601346694615
14300.0000000345,11.082927043318,1.00000000169927,0.603397262098325
14400.0000000349,11.0527556711169,1.00000000166922,0.618625666531637
14500.0000000352,11.023042858024,1.00000000160304,0.609583727345865
14600.0000000356,10.9941357924721,1.00000000168452,0.600250999175172
14700.0000000359,10.9639047285204,1.00000000173024,0.610413149827471
14800.0000000363,10.9383944116989,1.00000000143023,0.615998248613662
14900.0000000367,10.9156831500988,1.00000000159494,0.623060492408233
15000.000000037,10.8875015045862,1.00000000184594,0.63145583054527
15100.0000000374,10.8570842843692,1.0000000015556,0.619015581850674
15200.0000000378,10.8305843473319,1.00000000151725,0.620670206456659
15300.0000000381,10.7992798038955,1.00000000187549,0.635081291328957
15400.0000000385,10.7623132462684,1.00000000159222,0.618952342362415
15500.0000000389,10.7215435467768,1.0000000016561,0.612903040269782
15600.0000000392,10.6791911620429,1.00000000169108,0.622783797322504
15700.0000000396,10.6403589105974,1.00000000149645,0.629453170566919
15800.0000000399,10.604704307187,1.00000000163117,0.638838433775043
15900.0000000403,10.5672220027527,1.0000000017986,0.6321274800071
16000.0000000407,10.5252033593817,1.00000000175282,0.634980097872937
16100.000000041,10.4842296852937,1.00000000152838,0.623719957328061
16200.0000000414,10.4460275842828,1.00000000171931,0.637146441350697
16300.0000000418,10.4029396158309,1.00000000172403,0.632247247483916
16400.0000000418,10.3595776693252,1.00000000150644,0.623414072714088
16500.0000000404,10.3179050384726,1.00000000171221,0.627214197410103
16600.0000000389,10.2757271425596,1.0000000016201,0.615413292000095
16700.0000000375,10.2334687930884,1.00000000160985,0.640387223819211
16800.000000036,10.1892626717275,1.00000000173788,0.645121931718492
16900.0000000346,10.1428165658353,1.00000000171553,0.648906863255049
17000.0000000331,10.0945261046961,1.00000000172037,0.633648274547661
17100.0000000317,10.0450900248155,1.0000000017367,0.642892263255272
17200.0000000302,9.99343392197586,1.00000000182189,0.634061987459414
17300.0000000287,9.94082537766941,1.00000000175656,0.643066745129629
17400.0000000273,9.88853456845175,1.00000000168257,0.649016949969546
17500.0000000258,9.83437865071181,1.00000000191681,0.650496140816773
17600.0000000244,9.77907019684219,1.00000000177725,0.650095521510776
17700.0000000229,9.72426468793259,1.00000000155204,0.620405501180886
17800.0000000215,9.67008234665759,1.00000000158417,0.640812777142031
17900.00000002,9.61657885334409,1.00000000164901,0.646038703974696
18000.0000000186,9.5640251263058,1.00000000146668,0.619852946335426
18100.0000000171,9.51275535775211,1.00000000175034,0.628578155209132
18200.0000000156,9.46340260408312,1.0000000015949,0.625003702868683
18300.0000000142,9.41750109680827,1.00000000166722,0.63571956210768
18400.0000000127,9.37687787341993,1.00000000170608,0.638807777306783
18500.0000000113,9.34317417990778,1.00000000186117,0.652975758428695
18600.0000000098,9.32041922118307,1.00000000194809,0.657240828668498
18700.0000000084,9.30590940325844,1.00000000211804,0.659320197326993
18800.0000000069,9.3098415067362,1.00000000200534,0.661386435770899
18900.0000000055,9.31997656910575,1.0000000021939,0.655802309441504
19000.000000004,9.35251526432817,1.00000000219543,0.649787599299649
19100.0000000026,9.38274123903075,1.00000000201791,0.625951561478127
19200.0000000011,9.42815660671549,1.00000000230943,0.61465262785781
19299.9999999996,9.45745741370024,1.0000000019844,0.598508331424892
19399.9999999982,9.4790508710817,1.00000000185933,0.593106854748618
19499.9999999967,9.47342326106058,1.00000000155488,0.577592111702007
19599.9999999953,9.44725238333853,1.00000000143263,0.554619758532565
19699.9999999938,9.40676670689826,1.00000000117935,0.52497333954013
19799.9999999924,9.36556483471815,1.00000000121424,0.501515359325519
19899.9999999909,9.34671391190139,1.00000000120215,0.474138080589307
19999.9999999895,9.37079042371831,1.00000000104956,0.457488289625599
20099.999999988,9.46379923192282,1.00000000109945,0.445193197519904
20199.9999999865,9.63157247844945,1.00000000111249,0.439056170655616
20299.9999999851,9.89731632723659,1.00000000121472,0.444794929940996
20399.9999999836,10.2301462261809,1.00000000127717,0.450884003409086
20499.9999999822,10.6503280335194,1.00000000157689,0.46005805621793
20599.9999999807,11.0946016816152,1.00000000165342,0.468434452219045
20699.9999999793,11.5842246521843,1.00000000197054,0.485550477652709
20799.9999999778,12.0664696747283,1.00000000189523,0.490664627990976
20899.9999999764,12.5537036037663,1.00000000193438,0.503598927564061
20999.9999999749,13.024817074867,1.00000000200512,0.515320950906475
21099.9999999734,13.4737205003612,1.00000000201002,0.523068744303678
21199.999999972,13.9125120080348,1.00000000201832,0.533943714301768
21299.9999999705,14.3165411587901,1.00000000202488,0.541537531569029
21399.9999999691,14.7160713612299,1.0000000018296,0.548522299056237
21499.9999999676,15.0938736492447,1.00000000180326,0.554754017357328
21599.9999999662,15.4580985061312,1.00000000190019,0.561988262552516
21699.9999999647,15.8108784048523,1.00000000182072,0.573994795034404
21799.9999999633,16.1459321082784,1.0000000018187,0.574625347674999
21899.9999999618,16.4658464631728,1.0000000019006,0.596248657328282
21999.9999999603,16.7555058518494,1.00000000180172,0.601593894622281
22099.9999999589,17.0457344001191,1.00000000174737,0.616161772457969
22199.9999999574,17.3060628224308,1.00000000199867,0.62234064176944
22299.999999956,17.5470207280803,1.00000000186169,0.62256232882278
22399.9999999545,17.7618873302878,1.00000000197084,0.642293013251543
22499.9999999531,17.9542580219407,1.00000000178144,0.642555814023503
22599.9999999516,18.1371039028693,1.00000000178616,0.643752062524474
22699.9999999502,18.2977648121277,1.00000000191019,0.643247350364215
22799.9999999487,18.4491961648716,1.00000000181789,0.651142253894799
22899.9999999473,18.5760463842482,1.00000000194178,0.651459272041748
22999.9999999458,18.6911812758169,1.00000000181857,0.646773302481015
23099.9999999443,18.7891478237033,1.00000000192682,0.650751462438234
23199.9999999429,18.8755825789001,1.00000000188937,0.653172894843356
23299.9999999414,18.9521967828368,1.00000000188515,0.648838714942158
23399.99999994,19.0161650093011,1.00000000175348,0.658998976747137
23499.9999999385,19.0743687943496,1.00000000190611,0.658262634076991
23599.9999999371,19.1224241821784,1.00000000173184,0.64439517831663
23699.9999999356,19.1681409378591,1.00000000189936,0.651897750253954
23799.9999999342,19.1950922093074,1.00000000203916,0.649855097813448
23899.9999999327,19.210338026421,1.00000000186705,0.655503809526403
23999.9999999312,19.2214098136538,1.00000000167592,0.641890653870058
24099.9999999298,19.2369762073251,1.00000000158864,0.648715686261346
24199.9999999283,19.2540765034232,1.00000000180946,0.644238133132606
24299.9999999269,19.2646885560957,1.0000000018381,0.65255760258226
24399.9999999254,19.2691928730499,1.00000000192467,0.651978499149157
24499.999999924,19.2646327307561,1.00000000203799,0.653737924883517
24599.9999999225,19.2544825501894,1.00000000179217,0.64141098424267
24699.9999999211,19.2402562765198,1.00000000191237,0.645536345611276
24799.9999999196,19.2243395688032,1.0000000017932,0.63576263914355
24899.9999999181,19.2142867869959,1.0000000016193,0.60534638059031
24999.9999999167,19.2031349779012,1.00000000191503,0.622448077081856
25099.9999999152,19.1828409668265,1.0000000019962,0.615622325356171
25199.9999999138,19.1539745478138,1.00000000211032,0.613484685020774
25299.9999999123,19.1292494786177,1.00000000163197,0.608188577943176
25399.9999999109,19.112328149562,1.00000000176142,0.621745025908415
25499.9999999094,19.096570192205,1.00000000189696,0.654224747369863
25599.999999908,19.0738221910618,1.00000000208288,0.650996654327978
25699.9999999065,19.0433529254512,1.00000000207998,0.649893784181849
25799.9999999051,19.0126412958022,1.00000000201726,0.650625947640047
25899.9999999036,18.9826957049413,1.00000000176872,0.640321274731336
25999.9999999021,18.9544790929944,1.00000000183946,0.652078309178448
26099.9999999007,18.9245325588355,1.00000000188601,0.65430548422926
26199.9999998992,18.8985018867101,1.00000000165768,0.626470979415117
26299.9999998978,18.8803435997485,1.00000000174572,0.61583910565172
26399.9999998963,18.8618283476408,1.00000000205715,0.643497490927175
26499.9999998949,18.8346022002223,1.00000000210955,0.631293090795927
26599.9999998934,18.8037846220245,1.00000000195606,0.620638585434163
26699.999999892,18.7757425921316,1.00000000171245,0.609043904836247
26799.9999998905,18.7549799350432,1.00000000198524,0.64560947955849
26899.999999889,18.732212241428,1.0000000019805,0.658843583954428
26999.9999998876,18.7045630159261,1.00000000178851,0.649429755208309
27099.9999998861,18.6749868457097,1.00000000198679,0.647686379037597
27199.9999998847,18.6498355188521,1.00000000193096,0.643149578251966
27299.9999998832,18.6271578996282,1.00000000197058,0.632750689724175
27399.9999998818,18.6061965829296,1.00000000201834,0.633355958477095
27499.9999998803,18.5825651539017,1.00000000203116,0.640324422765886
27599.9999998789,18.5540670996826,1.00000000191233,0.636407461315668
27699.9999998774,18.5226861599498,1.00000000192219,0.629748142197977
27799.9999998759,18.4867832284057,1.00000000204343,0.648029517640152
27899.9999998745,18.4507226210143,1.00000000198643,0.632450536477281
27999.999999873,18.4146918607985,1.0000000017547,0.646814694013336
28099.9999998716,18.3787997678909,1.0000000021996,0.629749316248946
28199.9999998701,18.3405737983836,1.00000000188808,0.63714215973838
28299.9999998687,18.3021192615976,1.00000000198079,0.630311396711984
28399.9999998672,18.2658800381999,1.00000000198143,0.625174524156811
28499.9999998658,18.2312011528675,1.00000000215414,0.616578575380867
28599.9999998643,18.196760332805,1.00000000217987,0.630775886542675
28699.9999998629,18.1589656440805,1.00000000220495,0.652804489911146
28799.9999998614,18.1181539538483,1.00000000216415,0.639507191755685
28899.9999998599,18.0798466965446,1.00000000231711,0.610104283252812
28999.9999998585,18.0482934983322,1.00000000176924,0.623433830717143
29099.999999857,18.0190524818336,1.00000000223092,0.643793283853704
