Time,AGPnorm,Energy,Entropy
0,0,1,-1.27536417683131e-17
99.9999999999986,2.55676276336295e-05,0.999999999997508,0.00107966358151902
199.999999999993,0.00236598944251344,0.999999999997942,0.00177546060102308
300,0.00584292380833703,0.999999999999826,0.00306208173460548
400.000000000022,0.00803257873009933,0.999999999996529,0.0052805443809394
500.000000000045,0.00962866268726944,0.999999999999618,0.007155391541485
600.000000000068,0.0138941195307903,0.999999999998195,0.00983415543263681
700.000000000091,0.0173390056953821,0.99999999999729,0.0127275772184493
800.000000000113,0.0219655213406486,1.00000000000015,0.0156027825356925
900.000000000136,0.0275397782464648,0.99999999999669,0.0191676445590334
1000.00000000016,0.0320955420309673,0.999999999999017,0.0226471132906786
1100.0000000001,0.0384452653808745,0.999999999998941,0.0263900839203583
1200,0.0450209579874689,0.999999999996812,0.0306072973165414
1299.99999999991,0.0513725854772804,1.00000000000014,0.0347156017734289
1399.99999999982,0.0589983519499707,0.999999999997127,0.0392762555977196
1499.99999999973,0.0664362969385302,0.999999999998334,0.0440186384771399
1599.99999999964,0.0746719709105476,0.999999999999573,0.0487920101916008
1699.99999999955,0.0832600020305967,0.99999999999656,0.0541224775502941
1799.99999999946,0.0911249757782036,0.999999999999847,0.0594305868509717
1899.99999999937,0.100172524363434,0.999999999997811,0.0650132451944034
1999.99999999928,0.109658771143113,0.99999999999769,0.0710242132255118
2099.99999999919,0.119073514432404,0.999999999999927,0.0770218237797931
2199.99999999909,0.128848137859865,0.999999999996558,0.0835565243983225
2299.999999999,0.138114854515821,0.99999999999935,0.0902853229675976
2399.99999999891,0.148029846158394,0.999999999998626,0.0972198374306535
2499.99999999882,0.158507082234918,0.999999999997181,0.104834328970258
2599.99999999873,0.168265157590722,1.00000000000001,0.112529787949485
2699.99999999864,0.178533807194844,0.999999999996846,0.120839833470504
2799.99999999855,0.188763192741512,0.999999999998814,0.129735069089126
2899.99999999846,0.199131194903024,0.999999999999432,0.139006651402589
2999.99999999837,0.20957024461221,0.999999999997341,0.149378562230524
3099.99999999828,0.219276642389276,1.00000000000118,0.160321110142563
3199.99999999819,0.22959195734349,1.00000000000069,0.172349906835534
3299.99999999809,0.23954935153572,1.00000000000621,0.185737251170467
3399.999999998,0.250776083911917,1.00000000001562,0.199842029903695
3499.99999999791,0.260170418980378,1.00000000002594,0.215161117088985
3599.99999999782,0.270453786131582,1.00000000004827,0.23080109561565
3699.99999999773,0.28615190502321,1.00000000007003,0.246619571452112
3799.99999999764,0.298361427127562,1.00000000009935,0.262874172680654
3899.99999999755,0.324898925669954,1.00000000013388,0.278456429151123
3999.99999999746,0.358694808804281,1.00000000016585,0.294056991907395
4099.99999999738,0.404562660341276,1.00000000021028,0.309221310486824
4199.99999999775,0.489774712781627,1.00000000025319,0.323702734446363
4299.99999999811,0.594038264876135,1.00000000029823,0.33834214135192
4399.99999999848,0.751800044689771,1.00000000033705,0.35203633358675
4499.99999999884,0.975963373014366,1.00000000038462,0.365279942590098
4599.9999999992,1.25556806847229,1.00000000042637,0.378513552807507
4699.99999999957,1.64422079943126,1.00000000044746,0.390699222340181
4799.99999999993,2.12781541003831,1.00000000048551,0.402836747093093
4900.00000000029,2.72400177664527,1.00000000053196,0.414154903738802
5000.00000000066,3.47954992381502,1.00000000055917,0.424760884455257
5100.00000000102,4.36322308481235,1.0000000005863,0.435623111383218
5200.00000000139,5.42360908101052,1.00000000058994,0.445386896342322
5300.00000000175,6.67440280959879,1.00000000065006,0.454706277822899
5400.00000000211,8.09063110198285,1.00000000066029,0.463947717598397
5500.00000000248,9.73663780095558,1.0000000007364,0.471896328103092
5600.00000000284,11.5823690932946,1.00000000070926,0.480367021576084
5700.00000000321,13.6353221966646,1.0000000007427,0.487801606979652
5800.00000000357,15.9427791215927,1.00000000073736,0.494693352292683
5900.00000000393,18.4449297533927,1.00000000078834,0.501728889159417
6000.0000000043,21.191420331251,1.00000000080627,0.507733345770705
6100.00000000466,24.1789426021098,1.00000000079287,0.513825365589676
6200.00000000502,27.3622425370859,1.00000000080673,0.519572416259206
6300.00000000539,30.8071124706105,1.00000000079951,0.524386081470431
6400.00000000575,34.4492587445493,1.00000000081806,0.529600113004191
6500.00000000612,38.2992771840916,1.00000000078867,0.534113377106845
6600.00000000648,42.3873119740129,1.00000000082126,0.538144123532541
6700.00000000684,46.6332155016053,1.00000000083084,0.542410776487985
6800.00000000721,51.0953070069624,1.00000000084841,0.545681638758818
6900.00000000757,55.7330830667171,1.00000000081804,0.549425845421129
7000.00000000793,60.5126449601239,1.00000000081408,0.552732704079169
7100.0000000083,65.4876974515814,1.00000000084075,0.55510947247218
7200.00000000866,70.5710883678336,1.0000000008386,0.558314965465186
7300.00000000903,75.7954952070505,1.00000000081397,0.560688931116868
7400.00000000939,81.1542082651999,1.00000000084463,0.562886762558234
7500.00000000975,86.5813900830206,1.00000000081438,0.565263086495961
7600.00000001012,92.1363131629152,1.00000000078394,0.566890722357772
7700.00000001048,97.7488943409069,1.00000000079711,0.568994748035702
7800.00000001084,103.419257870643,1.00000000078589,0.570610268299831
7900.00000001121,109.17037661468,1.00000000078348,0.571651818578578
8000.00000001157,114.924526858091,1.00000000079365,0.573453673864002
8100.00000001194,120.730670875732,1.00000000077439,0.574352253971575
8200.0000000123,126.545813385262,1.00000000076016,0.575632759117217
8300.00000001266,132.343970408845,1.00000000075968,0.576587016607716
8400.00000001303,138.164961672726,1.0000000007552,0.576958122397532
8500.00000001339,143.937074556769,1.00000000076222,0.578087896259101
8600.00000001376,149.690697684305,1.00000000073059,0.578793125995334
8700.00000001412,155.410101519951,1.00000000073004,0.578900000000748
8800.00000001448,161.054138467256,1.00000000072972,0.579799216138239
8900.00000001485,166.666890392455,1.00000000069562,0.579624951127644
9000.00000001521,172.191512924067,1.00000000071557,0.580282568540943
9100.00000001557,177.640635747127,1.00000000070564,0.580206467421875
9200.00000001594,183.018721468994,1.00000000070678,0.580429299592214
9300.0000000163,188.281512072074,1.00000000068068,0.580445540211369
9400.00000001667,193.466422933587,1.00000000066528,0.580717010196401
9500.00000001703,198.537930110096,1.00000000066069,0.580591415004484
9600.00000001739,203.490872762736,1.00000000066085,0.580339306548046
9700.00000001776,208.346238557496,1.00000000067073,0.580525875327472
9800.00000001812,213.059208067696,1.00000000067311,0.57952701321281
9900.00000001848,217.661864673743,1.0000000006431,0.580409695079072
10000.0000000188,222.133870273315,1.00000000062905,0.579361163857973
10100.0000000192,226.461710272444,1.00000000063866,0.579445536583407
10200.0000000196,230.672386235769,1.00000000061862,0.579227970185031
10300.0000000199,234.728699183879,1.00000000061162,0.578401155224387
10400.0000000203,238.653779291856,1.0000000006007,0.578792958027315
10500.0000000207,242.439430447357,1.00000000059292,0.578075259519915
10600.000000021,246.07027348648,1.00000000057706,0.577805077810173
10700.0000000214,249.571459775424,1.00000000058673,0.577406698514445
10800.0000000218,252.916932927983,1.00000000058474,0.577228758898996
10900.0000000221,256.120624745428,1.00000000056589,0.576425175254749
11000.0000000225,259.181691359426,1.0000000005643,0.576236235360485
11100.0000000229,262.086828175314,1.00000000056214,0.576460851060184
11200.0000000232,264.858820978034,1.00000000054688,0.574897160699566
11300.0000000236,267.476956684963,1.00000000055623,0.575562451919281
11400.0000000239,269.953792388529,1.00000000053192,0.575246535663001
11500.0000000243,272.291482725724,1.00000000052782,0.573611597602147
11600.0000000247,274.476924883534,1.00000000051887,0.575162560298196
11700.000000025,276.533489382876,1.00000000051122,0.573189043010292
11800.0000000254,278.444896085988,1.00000000050831,0.572278417395325
11900.0000000258,280.217587685744,1.00000000051228,0.573774197407754
12000.0000000261,281.863831239601,1.00000000050944,0.57249325639782
12100.0000000265,283.367163849334,1.00000000048774,0.571379126378078
12200.0000000269,284.746481299724,1.00000000048385,0.571770194783444
12300.0000000272,285.995931296405,1.00000000048712,0.57203288131259
12400.0000000276,287.11735827055,1.00000000047203,0.572662812855983
12500.0000000279,288.123521052816,1.0000000004784,0.569787155860994
12600.0000000283,289.001251361171,1.00000000045512,0.568191152356099
12700.0000000287,289.764144938418,1.00000000046315,0.571693998174886
12800.000000029,290.417062453678,1.00000000047207,0.573385672053168
12900.0000000294,290.959768723693,1.00000000044132,0.569423736388606
13000.0000000298,291.396810661912,1.00000000042321,0.564795356176322
13100.0000000301,291.719128407265,1.00000000043584,0.568701843479186
13200.0000000305,291.948392457291,1.00000000044749,0.574650308924468
13300.0000000309,292.091655252605,1.00000000044896,0.571096597259379
13400.0000000312,292.140249457311,1.00000000041194,0.56289506184622
13500.0000000316,292.093175571934,1.00000000039363,0.560469949721837
13600.0000000319,291.952739088383,1.0000000004387,0.571170628923858
13700.0000000323,291.746018918472,1.00000000045643,0.575770237858843
13800.0000000327,291.477577330055,1.00000000045137,0.567341749936159
13900.000000033,291.129029125764,1.00000000039544,0.554942701104876
14000.0000000334,290.698178566139,1.0000000003921,0.555453010677268
14100.0000000338,290.195243954723,1.00000000044754,0.571631125602657
14200.0000000341,289.650545538074,1.00000000050876,0.578087366929443
14300.0000000345,289.068641381017,1.00000000045869,0.564701601532814
14400.0000000349,288.42225196555,1.00000000038873,0.548132496934613
14500.0000000352,287.705256172961,1.00000000034948,0.545347800027163
14600.0000000356,286.929246028094,1.00000000045669,0.567410278169789
14700.0000000359,286.128417453433,1.00000000051751,0.581446440362556
14800.0000000363,285.314055098102,1.00000000047207,0.567196203186807
14900.0000000367,284.458455879065,1.00000000039675,0.546393680630672
15000.000000037,283.54544201698,1.00000000032219,0.531709092475483
15100.0000000374,282.575137760508,1.00000000041299,0.550985715292854
15200.0000000378,281.582363183215,1.0000000005098,0.578239601924415
15300.0000000381,280.594028642162,1.00000000058157,0.579461380745498
15400.0000000385,279.595631377106,1.00000000044042,0.553857051359494
15500.0000000389,278.564121940341,1.0000000003714,0.530164047728754
15600.0000000392,277.479968002306,1.00000000032196,0.521226014442893
15700.0000000396,276.357942249795,1.00000000044468,0.551144351772072
15800.0000000399,275.23345963945,1.00000000054933,0.58038647078544
15900.0000000403,274.121441051696,1.00000000059762,0.577915315939928
16000.0000000407,273.015052398407,1.00000000046621,0.549380274577387
16100.000000041,271.883204083971,1.0000000003692,0.52176394194686
16200.0000000414,270.710724119866,1.00000000031048,0.509440628262382
16300.0000000418,269.507053457341,1.00000000040207,0.533791651300733
16400.0000000418,268.298499594142,1.00000000056085,0.574220268964125
16500.0000000404,267.110637036908,1.0000000006237,0.58293553267375
16600.0000000389,265.940242037426,1.00000000052278,0.558261678703022
16700.0000000375,264.764429314416,1.0000000004194,0.527273407336402
16800.000000036,263.566294856326,1.00000000032259,0.50441856510882
16900.0000000346,262.335026174624,1.00000000034734,0.506016341995695
17000.0000000331,261.090044180659,1.00000000046674,0.541855167324059
17100.0000000317,259.854622336935,1.00000000059934,0.57703508857395
17200.0000000302,258.641514252292,1.00000000062079,0.578261662086615
17300.0000000287,257.447542297953,1.00000000054174,0.550449546160489
17400.0000000273,256.252788280116,1.0000000004029,0.519098982119483
17500.0000000258,255.043624107149,1.00000000032772,0.501081788125636
17600.0000000244,253.814432183828,1.00000000035011,0.501249334067113
17700.0000000229,252.572906105617,1.00000000042663,0.525382892185498
17800.0000000215,251.338853975626,1.00000000056899,0.562164262841082
17900.00000002,250.123671228907,1.00000000062444,0.576448668494798
18000.0000000186,248.928748810188,1.00000000055568,0.559675149538269
18100.0000000171,247.745601146155,1.0000000004859,0.528912121961946
18200.0000000156,246.559569183347,1.00000000037752,0.506235267734375
18300.0000000142,245.366179315567,1.00000000035321,0.499874120596875
18400.0000000127,244.162313377633,1.00000000037693,0.505024361523378
18500.0000000113,242.956203861361,1.00000000045603,0.523940357100487
18600.0000000098,241.758646151125,1.00000000053864,0.550430793626055
18700.0000000084,240.576143750441,1.00000000058445,0.564935510688127
18800.0000000069,239.411397833363,1.00000000058064,0.554694117483603
18900.0000000055,238.25881619747,1.00000000049658,0.529718196941097
19000.000000004,237.110586209203,1.00000000042354,0.510395343943576
19100.0000000026,235.962846462462,1.00000000038307,0.503811133965756
19200.0000000011,234.812119086381,1.00000000038945,0.505997790019158
19299.9999999996,233.662473375924,1.00000000042011,0.511859349133029
19399.9999999982,232.516402928745,1.00000000046844,0.522859728683773
19499.9999999967,231.37906083602,1.00000000052019,0.540749018976231
19599.9999999953,230.254892488944,1.00000000055665,0.549968515790412
19699.9999999938,229.143576073257,1.00000000055554,0.544293053057731
19799.9999999924,228.04310621426,1.00000000048877,0.528395003414421
19899.9999999909,226.950293733078,1.00000000044143,0.514609339507166
19999.9999999895,225.861930664734,1.00000000040843,0.509129221201029
20099.999999988,224.77842387832,1.00000000040661,0.511547340919029
20199.9999999865,223.698080598062,1.0000000004099,0.512653862922602
20299.9999999851,222.623307085657,1.00000000044148,0.513837388621798
20399.9999999836,221.555108280775,1.00000000044567,0.518017599313706
20499.9999999822,220.495229510268,1.00000000050452,0.529008822798019
20599.9999999807,219.445877975997,1.00000000053149,0.537483421575009
20699.9999999793,218.406693210803,1.00000000053849,0.537171969071645
20799.9999999778,217.376962713546,1.00000000048724,0.529834428254344
20899.9999999764,216.355917522432,1.00000000045391,0.520995398926466
20999.9999999749,215.342376798103,1.00000000044215,0.519083323372073
21099.9999999734,214.336852390828,1.00000000041951,0.520603932471988
21199.999999972,213.33812494052,1.00000000042231,0.517977267109501
21299.9999999705,212.346561681971,1.00000000040537,0.512211117553091
21399.9999999691,211.362063532726,1.00000000041889,0.510087898777691
21499.9999999676,210.385082210429,1.00000000045351,0.513274186633634
21599.9999999662,209.416775517282,1.00000000047986,0.519203595982134
21699.9999999647,208.457317276699,1.00000000052131,0.529386844732406
21799.9999999633,207.506264214343,1.00000000049071,0.536454026626632
21899.9999999618,206.564008975067,1.00000000048718,0.534733868983403
21999.9999999603,205.629921957944,1.00000000045951,0.529232477377995
22099.9999999589,204.704372455857,1.00000000045839,0.529255997654504
22199.9999999574,203.787375909638,1.00000000044904,0.529920740434368
22299.999999956,202.879289623683,1.00000000045213,0.52824812971169
22399.9999999545,201.980153907491,1.00000000041457,0.520076530942737
22499.9999999531,201.089664911094,1.0000000003758,0.507153536733227
22599.9999999516,200.20844893086,1.0000000003898,0.50159232604359
22699.9999999502,199.336317161305,1.00000000041745,0.504441686338253
22799.9999999487,198.472831146368,1.00000000046462,0.515117235681
22899.9999999473,197.617579037488,1.00000000049266,0.521073762091251
22999.9999999458,196.769624694613,1.00000000052317,0.532732261762943
23099.9999999443,195.928787230754,1.00000000047116,0.536492230783608
23199.9999999429,195.09586168906,1.00000000045229,0.533075004630132
23299.9999999414,194.270632092325,1.00000000043659,0.52978306896361
23399.99999994,193.453051576472,1.00000000048818,0.537923299780482
23499.9999999385,192.642882733537,1.00000000050041,0.54141619561999
23599.9999999371,191.841176898823,1.00000000044832,0.532982977248869
23699.9999999356,191.048972966909,1.00000000040997,0.520622633146696
23799.9999999342,190.267944989104,1.0000000003549,0.50100963303434
23899.9999999327,189.499152529073,1.00000000033962,0.489884411969842
23999.9999999312,188.741870559978,1.00000000040413,0.49252995723983
24099.9999999298,187.994076556948,1.00000000045518,0.50505740053294
24199.9999999283,187.253808366561,1.00000000049617,0.514876401369692
24299.9999999269,186.518979877707,1.00000000051108,0.522372867375269
24399.9999999254,185.789393729001,1.00000000050013,0.525385650275394
24499.999999924,185.065932581724,1.00000000046716,0.53173447261067
24599.9999999225,184.349047760823,1.0000000004452,0.5326257160425
24699.9999999211,183.638780756725,1.00000000048417,0.530970500697923
24799.9999999196,182.933902446035,1.00000000051541,0.540266469070886
24899.9999999181,182.233609747727,1.00000000055131,0.548302263203058
24999.9999999167,181.538686804462,1.00000000050626,0.541443183699704
25099.9999999152,180.851921092612,1.00000000044027,0.52449870325311
25199.9999999138,180.176418039397,1.00000000037432,0.508213228400182
25299.9999999123,179.515257640385,1.00000000031963,0.489403898169889
25399.9999999109,178.869134523555,1.0000000003486,0.481724904239464
25499.9999999094,178.235904160655,1.00000000039774,0.486538418023839
25599.999999908,177.611964029927,1.00000000045704,0.498684624252298
25699.9999999065,176.994149835798,1.00000000050312,0.508969032067597
25799.9999999051,176.380252131262,1.00000000053287,0.515146892857534
25899.9999999036,175.768891811718,1.00000000050732,0.514503189859513
25999.9999999021,175.161488022021,1.00000000046453,0.519037414438069
26099.9999999007,174.5583325283,1.00000000046513,0.530944626502208
26199.9999998992,173.959709545008,1.00000000045509,0.534384478442434
26299.9999998978,173.365069445345,1.00000000049915,0.535670601931621
26399.9999998963,172.772921760969,1.00000000051518,0.540053022800748
26499.9999998949,172.183049583809,1.00000000053869,0.544382019559326
26599.9999998934,171.596273106696,1.00000000052989,0.540456298726367
26699.999999892,171.015714924481,1.00000000045859,0.524585131242919
26799.9999998905,170.445223499172,1.00000000041324,0.508675412901218
26899.999999889,169.887913664363,1.0000000003831,0.499093338477708
26999.9999998876,169.345550600311,1.00000000035414,0.488760293497629
27099.9999998861,168.818546685401,1.00000000036828,0.481801213277182
27199.9999998847,168.304192067116,1.00000000041413,0.485306329211189
27299.9999998832,167.799242691032,1.00000000046614,0.492774721045375
27399.9999998818,167.299814665555,1.00000000048582,0.501339819662463
27499.9999998803,166.803779330799,1.00000000052657,0.50876949814701
27599.9999998789,166.308978400049,1.00000000051799,0.512213270063193
27699.9999998774,165.815073099255,1.00000000049665,0.512483972145756
27799.9999998759,165.322187857931,1.00000000050119,0.521102317627577
27899.9999998745,164.830341556468,1.0000000004813,0.530174932311269
27999.999999873,164.339911312062,1.00000000049652,0.536609210782569
28099.9999998716,163.851079520311,1.00000000048423,0.535938207331143
28199.9999998701,163.363909265886,1.00000000048133,0.532855418887963
28299.9999998687,162.879304253915,1.00000000049426,0.531713767301183
28399.9999998672,162.397315721447,1.00000000051514,0.534852322507207
28499.9999998658,161.91895522673,1.00000000049613,0.529788965219714
28599.9999998643,161.447258313326,1.00000000044315,0.517868814124862
28699.9999998629,160.984482574691,1.0000000004368,0.509404276216217
28799.9999998614,160.532947660605,1.00000000040129,0.502418666736245
28899.9999998599,160.09446539016,1.00000000040205,0.497312452881399
