Time,AGPnorm,Energy,Entropy
0,0,1,-7.46856007746575e-17
99.9999999999986,0.00181155280054179,1.00000000000047,0.00545639109856155
199.999999999993,0.0119285995260099,0.999999999998841,0.0158269606217955
300,0.0240076890333403,0.999999999998272,0.0289464474590956
400.000000000022,0.0357215241989468,0.999999999999591,0.0455665539672979
500.000000000045,0.0497179034994665,1.00000000000002,0.0660251989290817
600.000000000068,0.0680608755876943,0.999999999999296,0.0900921942072949
700.000000000091,0.0852762577745275,0.999999999998652,0.117700485141812
800.000000000113,0.102845687134148,1.00000000000069,0.150873254320656
900.000000000136,0.119628900961993,1.00000000001804,0.193420000369571
1000.00000000016,0.134811777906158,1.00000000012385,0.247565290614638
1100.0000000001,0.161562267915531,1.00000000039986,0.306900396878426
1200,0.239151797379267,1.00000000084952,0.361884275663002
1299.99999999991,0.39658478047556,1.0000000012384,0.410102573255421
1399.99999999982,0.729653386292761,1.00000000152864,0.451226874009833
1499.99999999973,1.38559953456745,1.00000000193217,0.484439086740119
1599.99999999964,2.43412029539043,1.0000000021164,0.51154846384733
1699.99999999955,3.87631940130524,1.00000000221707,0.534102450086098
1799.99999999946,5.73525939336712,1.00000000233296,0.551627510510705
1899.99999999937,8.01052807491812,1.00000000232741,0.564801923782616
1999.99999999928,10.6255324805884,1.00000000237066,0.574762015763684
2099.99999999919,13.4879180454478,1.00000000234459,0.582682866089096
2199.99999999909,16.5339173134237,1.00000000237688,0.587395137284022
2299.999999999,19.6896302181575,1.00000000230594,0.590285825329318
2399.99999999891,22.857035749633,1.00000000217103,0.591474661485161
2499.99999999882,25.951992580929,1.00000000223398,0.592647772918199
2599.99999999873,28.9291329713737,1.00000000209734,0.592305973017667
2699.99999999864,31.7471667227049,1.00000000205948,0.59049377337867
2799.99999999855,34.3550259230059,1.00000000192562,0.588914360416611
2899.99999999846,36.7147268776954,1.00000000194379,0.587544842520936
2999.99999999837,38.8088255727604,1.00000000180489,0.585238908202852
3099.99999999828,40.6396922237405,1.00000000168869,0.581539523853813
3199.99999999819,42.203039545146,1.00000000164292,0.57929603907007
3299.99999999809,43.4914013086827,1.00000000156683,0.578634282931176
3399.999999998,44.513367073401,1.00000000152986,0.575127970288608
3499.99999999791,45.284850539817,1.00000000145626,0.577614585420815
3599.99999999782,45.8219518195865,1.0000000014228,0.571565171857957
3699.99999999773,46.1484952196519,1.00000000138988,0.574115501509112
3799.99999999764,46.2775584270694,1.00000000124736,0.565059979789861
3899.99999999755,46.2378305266073,1.00000000140442,0.578694746838682
3999.99999999746,46.0509920085726,1.00000000111734,0.54970647712743
4099.99999999738,45.7539185521197,1.00000000151176,0.581086369038104
4199.99999999775,45.3612744979922,1.00000000110324,0.538491160069122
4299.99999999811,44.8780770097993,1.00000000160461,0.581023225142068
4399.99999999848,44.3623004925699,1.00000000117111,0.543235654996503
4499.99999999884,43.7649220208563,1.00000000134675,0.545113935633733
4599.9999999992,43.1679402678387,1.00000000185185,0.574686672224386
4699.99999999957,42.54531991353,1.00000000113144,0.5162707821703
4799.99999999993,41.8813308685147,1.00000000165807,0.557079734217841
4900.00000000029,41.2436022533907,1.00000000165765,0.553317698919283
5000.00000000066,40.592163294035,1.00000000115171,0.503038388608057
5100.00000000102,39.9191545701588,1.00000000152995,0.534387895312785
5200.00000000139,39.2744816320347,1.00000000185078,0.557983127257227
5300.00000000175,38.6408608522571,1.00000000111895,0.496715765372744
5400.00000000211,37.9936397140567,1.00000000132517,0.505545882440721
5500.00000000248,37.3584417716359,1.00000000164774,0.547549467952703
5600.00000000284,36.7499434356229,1.00000000155183,0.525546419762218
5700.00000000321,36.1514551377054,1.00000000111779,0.492568461441299
5800.00000000357,35.5558506429957,1.00000000138209,0.510428536436958
5900.00000000393,34.9728985159493,1.00000000154453,0.529774190275112
6000.0000000043,34.4102543882013,1.00000000167311,0.528232254677627
6100.00000000466,33.8640023833516,1.00000000123597,0.492616625170426
6200.00000000502,33.3320696316182,1.00000000136284,0.519054229936451
6300.00000000539,32.8131072868513,1.00000000134644,0.518264688990345
6400.00000000575,32.3095209601395,1.0000000015506,0.523588011751394
6500.00000000612,31.8211832855191,1.00000000153486,0.519202251062055
6600.00000000648,31.34941917636,1.00000000122183,0.503845271201376
6700.00000000684,30.8969722850517,1.00000000132716,0.519681915353064
6800.00000000721,30.4578183483066,1.00000000151891,0.535461718864434
6900.00000000757,30.03523250172,1.00000000119679,0.506328313276495
7000.00000000793,29.6296688554748,1.00000000152714,0.516813277138219
7100.0000000083,29.2334705532586,1.00000000161142,0.519986491302199
7200.00000000866,28.852544441679,1.000000001287,0.508335619015556
7300.00000000903,28.490898469361,1.00000000131448,0.516081586774376
7400.00000000939,28.1400540697441,1.00000000155915,0.535411631972256
7500.00000000975,27.7989090145278,1.00000000133396,0.528722168179548
7600.00000001012,27.478223666215,1.00000000122069,0.497498669522084
7700.00000001048,27.1717947998325,1.00000000158297,0.522608725752085
7800.00000001084,26.8710502014797,1.00000000157804,0.525471521677632
7900.00000001121,26.5804464216823,1.00000000143535,0.509902303619488
8000.00000001157,26.3055857360605,1.00000000136785,0.519976463053433
8100.00000001194,26.0432675984603,1.00000000137847,0.529524284587537
8200.0000000123,25.7844958297597,1.00000000156198,0.52984665468773
8300.00000001266,25.5332378898718,1.0000000013894,0.529878050563034
8400.00000001303,25.2980207689216,1.0000000012604,0.51395876649169
8500.00000001339,25.076291901155,1.00000000147481,0.517326768688758
8600.00000001376,24.86284880852,1.00000000156214,0.536069991880307
8700.00000001412,24.6539876969616,1.00000000149792,0.531495471879193
8800.00000001448,24.4546406485992,1.00000000139959,0.520021988182899
8900.00000001485,24.2684150499259,1.00000000137978,0.529435492334494
9000.00000001521,24.0887408528939,1.00000000151031,0.542777511543559
9100.00000001557,23.9175863895271,1.00000000140588,0.532487665786675
9200.00000001594,23.7524224798428,1.00000000142125,0.524167330846807
9300.0000000163,23.5889268060829,1.00000000155372,0.54028091784514
9400.00000001667,23.4283577587305,1.00000000147463,0.549127435578463
9500.00000001703,23.2789000206481,1.00000000131385,0.528518843476204
9600.00000001739,23.1416953713372,1.00000000147495,0.538931178555784
9700.00000001776,23.0083130151103,1.00000000162207,0.548567202280118
9800.00000001812,22.8785270205524,1.00000000155979,0.53347375195956
9900.00000001848,22.7561340989736,1.00000000137088,0.536785590385428
10000.0000000188,22.6457598976416,1.00000000137156,0.539717876565835
10100.0000000192,22.5373570620215,1.00000000168444,0.547719158696662
10200.0000000196,22.4267319749041,1.00000000147108,0.551003284065537
10300.0000000199,22.3272783608288,1.00000000120835,0.526637298691508
10400.0000000203,22.2398238652161,1.00000000149456,0.538718795418636
10500.0000000207,22.1499707080358,1.00000000157994,0.540326439948183
10600.000000021,22.0536595841459,1.00000000154648,0.554939097717582
10700.0000000214,21.9550914166516,1.00000000144754,0.562567947189778
10800.0000000218,21.8602893459525,1.00000000142001,0.558525975598101
10900.0000000221,21.771477737469,1.00000000147343,0.558283828457061
11000.0000000225,21.6876990723634,1.00000000145802,0.558915727147976
11100.0000000229,21.6096934436678,1.00000000148472,0.551266492496434
11200.0000000232,21.538528588108,1.00000000152878,0.540968403079137
11300.0000000236,21.4750538510325,1.00000000147347,0.542276115149162
11400.0000000239,21.4182799109669,1.00000000153469,0.558657919384369
11500.0000000243,21.3642261006265,1.00000000157899,0.563424174575811
11600.0000000247,21.3115659851671,1.00000000151992,0.55607667594913
11700.000000025,21.258621616342,1.000000001502,0.552830908855274
11800.0000000254,21.2097972129688,1.00000000146158,0.555765990911366
11900.0000000258,21.1684574361727,1.00000000143279,0.547765203705087
12000.0000000261,21.1332059533904,1.00000000153066,0.556106612664312
12100.0000000265,21.0981173830332,1.00000000148433,0.567285974089567
12200.0000000269,21.0619948336143,1.0000000015507,0.562896259689079
12300.0000000272,21.0203004296632,1.00000000161344,0.574551821877214
12400.0000000276,20.9702529377529,1.00000000163783,0.580625405378298
12500.0000000279,20.9126140404397,1.00000000156852,0.590099696489785
12600.0000000283,20.8523535678014,1.00000000158584,0.593567449165332
12700.0000000287,20.7958691059315,1.00000000143108,0.580994981816341
12800.000000029,20.7469861016084,1.00000000153043,0.578731504718375
12900.0000000294,20.705386094488,1.00000000158802,0.573072055437652
13000.0000000298,20.6718021358953,1.00000000153027,0.557561973652094
13100.0000000301,20.6435251145259,1.00000000149856,0.553493723497876
13200.0000000305,20.6213498798187,1.00000000154616,0.559680123673648
13300.0000000309,20.6024018409734,1.00000000156872,0.567655136059411
13400.0000000312,20.5847949683165,1.00000000167343,0.580397385047799
13500.0000000316,20.5679417752287,1.00000000159726,0.574151807933566
13600.0000000319,20.5523457587816,1.00000000150526,0.568520754811681
13700.0000000323,20.5409859155985,1.00000000155912,0.560280429730602
13800.0000000327,20.5329773449802,1.00000000159627,0.556278651047618
13900.000000033,20.523717232834,1.00000000154962,0.568568197394541
14000.0000000334,20.5167459124557,1.000000001452,0.571807260274715
14100.0000000338,20.5152124961226,1.00000000151611,0.578198614169499
14200.0000000341,20.5164058285832,1.00000000164357,0.586512905144652
14300.0000000345,20.5154371617967,1.00000000160084,0.599579555364942
14400.0000000349,20.5061425604775,1.00000000160102,0.602719119294989
14500.0000000352,20.4906512448586,1.00000000163747,0.607763350442117
14600.0000000356,20.4728189935546,1.00000000149776,0.597491495967423
14700.0000000359,20.4516721470894,1.0000000015021,0.595432162686954
14800.0000000363,20.424332258537,1.00000000162797,0.602137747397556
14900.0000000367,20.3904487144406,1.00000000159911,0.595475160550935
15000.000000037,20.3500823994158,1.0000000016741,0.599809299529883
15100.0000000374,20.3077285742192,1.00000000157387,0.601582258731104
15200.0000000378,20.2663824349983,1.00000000150167,0.597246058482706
15300.0000000381,20.2298494433045,1.000000001536,0.59246052821211
15400.0000000385,20.2002501058919,1.0000000015452,0.586619693553569
15500.0000000389,20.1769042427821,1.00000000161202,0.577714995445436
15600.0000000392,20.1606456918251,1.00000000159612,0.572670035279245
15700.0000000396,20.1517161629657,1.0000000014855,0.567271065902608
15800.0000000399,20.1494586995139,1.00000000161291,0.569794991606212
15900.0000000403,20.1513030816161,1.00000000155063,0.575081436203318
16000.0000000407,20.1546921375544,1.00000000167339,0.590227988023972
16100.000000041,20.1600278595238,1.0000000015903,0.584065504120682
16200.0000000414,20.1635851491744,1.00000000171438,0.585752496984234
16300.0000000418,20.1676666740088,1.00000000155961,0.577017400229584
16400.0000000418,20.1752631057859,1.00000000151285,0.573462944834742
16500.0000000404,20.1851949540612,1.00000000156117,0.578475723414644
16600.0000000389,20.1960979498772,1.00000000168726,0.586048655213389
16700.0000000375,20.2077596916142,1.00000000157964,0.58657093758652
16800.000000036,20.221503866962,1.00000000151757,0.584417370444054
16900.0000000346,20.2346464458794,1.00000000167872,0.585739151944689
17000.0000000331,20.2489213623305,1.00000000161399,0.580780950722639
17100.0000000317,20.2640055725962,1.00000000159158,0.57850010702065
17200.0000000302,20.281191129427,1.00000000161251,0.593917772424186
17300.0000000287,20.2978343036882,1.00000000165425,0.60569850310038
17400.0000000273,20.3116432992337,1.00000000168165,0.614140036630124
17500.0000000258,20.320375424523,1.00000000170979,0.627271985829869
17600.0000000244,20.3241985486141,1.00000000168829,0.628628071614125
17700.0000000229,20.3238473135323,1.00000000172069,0.627326451141655
17800.0000000215,20.3199962955853,1.00000000166798,0.621909548943381
17900.00000002,20.3122450306675,1.00000000161866,0.627277948457363
18000.0000000186,20.3013168035772,1.0000000015937,0.6280554724402
18100.0000000171,20.2875176297895,1.00000000171737,0.635266765293922
18200.0000000156,20.2723759461366,1.00000000161923,0.63347320916068
18300.0000000142,20.2552713651081,1.00000000164076,0.637461665346766
18400.0000000127,20.2337148050142,1.00000000168409,0.640592947218881
18500.0000000113,20.2052369818072,1.00000000180132,0.643089296010052
18600.0000000098,20.1699707433058,1.00000000169241,0.632551533318941
18700.0000000084,20.1312979583141,1.00000000173844,0.635154206764973
18800.0000000069,20.089290559092,1.00000000174209,0.628033188695052
18900.0000000055,20.0489859070478,1.00000000164165,0.623768022091399
19000.000000004,20.0119973285612,1.00000000162536,0.623634706701764
19100.0000000026,19.9789396002561,1.00000000156272,0.622493826878937
19200.0000000011,19.9519774141951,1.00000000161796,0.618085921390053
19299.9999999996,19.9307209212981,1.00000000168275,0.615776994290833
19399.9999999982,19.9150224979703,1.00000000169842,0.61680451776423
19499.9999999967,19.9048994225725,1.00000000170308,0.615210025226522
19599.9999999953,19.899799885613,1.00000000162659,0.60478922051282
19699.9999999938,19.9014310464876,1.00000000159633,0.592165998457283
19799.9999999924,19.9085296760655,1.0000000016834,0.595391593838092
19899.9999999909,19.9188314667796,1.00000000166762,0.602378954483059
19999.9999999895,19.9308813083031,1.00000000176583,0.605390368755075
20099.999999988,19.9428753802984,1.00000000185475,0.611209645854562
20199.9999999865,19.9564362444152,1.00000000166261,0.609976003922915
20299.9999999851,19.972327474592,1.00000000171062,0.605892723744704
20399.9999999836,19.9880330912342,1.00000000166829,0.606919253983522
20499.9999999822,20.0057996220905,1.00000000167531,0.600995174703356
20599.9999999807,20.0247212888672,1.00000000165886,0.593706503858222
20699.9999999793,20.046173383338,1.00000000168133,0.598225042917051
20799.9999999778,20.0686073984508,1.00000000166607,0.601044012728646
20899.9999999764,20.09196619339,1.00000000172015,0.606330069909144
20999.9999999749,20.1142429839157,1.00000000173422,0.605740867670147
21099.9999999734,20.135888481567,1.00000000172927,0.607476891167733
21199.999999972,20.1586463914433,1.00000000170175,0.612060481766102
21299.9999999705,20.1847643818694,1.00000000170431,0.614199059678748
21399.9999999691,20.2114006572444,1.00000000177173,0.620067255891352
21499.9999999676,20.2362953701437,1.00000000173899,0.626795000201524
21599.9999999662,20.2572083327371,1.00000000179401,0.637072543636408
21699.9999999647,20.2741542169189,1.00000000180517,0.650432486315007
21799.9999999633,20.2869828232466,1.00000000185893,0.653935262633547
21899.9999999618,20.298024276333,1.00000000169013,0.650922779632934
21999.9999999603,20.3079943725559,1.000000001769,0.643600903541107
22099.9999999589,20.3177794501728,1.00000000171006,0.642483444516223
22199.9999999574,20.3302158914781,1.000000001719,0.646994077045959
22299.999999956,20.3435276339826,1.00000000182394,0.655038954343764
22399.9999999545,20.3559076791686,1.00000000178672,0.654195976114663
22499.9999999531,20.3658499770193,1.00000000187501,0.656165500434034
22599.9999999516,20.3714180950082,1.00000000181497,0.650954658193249
22699.9999999502,20.3737563983505,1.00000000172689,0.653116723292804
22799.9999999487,20.373737731245,1.0000000019097,0.653316889274753
22899.9999999473,20.3721982331388,1.00000000177743,0.655872292981479
22999.9999999458,20.3705189248643,1.00000000174733,0.644880579402456
23099.9999999443,20.3684815491796,1.00000000184579,0.647111140775158
23199.9999999429,20.3644765584562,1.00000000183197,0.642084843733057
23299.9999999414,20.3583968379115,1.00000000176122,0.641483726543746
23399.99999994,20.3507254458136,1.0000000017887,0.646351784461935
23499.9999999385,20.3431172814398,1.00000000175454,0.647675158403205
23599.9999999371,20.3349220086513,1.00000000181263,0.655457365725878
23699.9999999356,20.3237001966018,1.00000000190048,0.664693178975284
23799.9999999342,20.3113260326039,1.00000000184473,0.661324973298471
23899.9999999327,20.2979677736905,1.00000000185309,0.662290270539224
23999.9999999312,20.2818026101616,1.00000000188919,0.666684017388486
24099.9999999298,20.265409942584,1.00000000177792,0.659643689243512
24199.9999999283,20.2459229356667,1.0000000019859,0.661846105464228
24299.9999999269,20.2222163269893,1.00000000179567,0.650607577283359
24399.9999999254,20.1972478821744,1.0000000018612,0.654108224792867
24499.999999924,20.1711910154417,1.00000000183124,0.658784210983404
24599.9999999225,20.1446394919212,1.00000000188082,0.658868231094626
24699.9999999211,20.1163116392414,1.00000000192091,0.662771997683249
24799.9999999196,20.0855343407892,1.00000000191939,0.667591275983129
24899.9999999181,20.0509586894652,1.00000000199612,0.665287247743832
24999.9999999167,20.0136858824817,1.00000000193752,0.667218139799252
25099.9999999152,19.976058102799,1.00000000189538,0.665811515900429
25199.9999999138,19.9395691499124,1.00000000180488,0.665452152950656
25299.9999999123,19.905313804614,1.000000001762,0.662845016279746
25399.9999999109,19.8746513302837,1.00000000180979,0.65919966184087
25499.9999999094,19.8471962722755,1.0000000018091,0.645529136110411
25599.999999908,19.8229875129349,1.00000000182305,0.637958970940026
25699.9999999065,19.8030671462743,1.00000000178475,0.639456935200539
25799.9999999051,19.7891647519379,1.00000000188998,0.645011668195138
25899.9999999036,19.7803965974874,1.00000000187925,0.649655026845778
25999.9999999021,19.775284945301,1.00000000186202,0.652092415920524
26099.9999999007,19.7765558215234,1.00000000180862,0.650311548419993
26199.9999998992,19.7829422605062,1.00000000189982,0.644718181217803
26299.9999998978,19.7945772930201,1.00000000172548,0.636656538736596
26399.9999998963,19.8130587588015,1.00000000180146,0.626558951208004
26499.9999998949,19.8352199406004,1.00000000195841,0.628968936655516
26599.9999998934,19.8585765043622,1.00000000188813,0.625436490828994
26699.999999892,19.885749229879,1.00000000187274,0.626078000964426
26799.9999998905,19.911912099561,1.00000000207467,0.629531449144556
26899.999999889,19.9376812047939,1.00000000186397,0.615137774721002
26999.9999998876,19.967763273141,1.00000000188201,0.616370093408133
27099.9999998861,19.9984060938007,1.00000000198302,0.616319738300798
27199.9999998847,20.0301459175714,1.00000000188602,0.611504564544264
27299.9999998832,20.066223262902,1.00000000193885,0.616635462098184
27399.9999998818,20.1040302628337,1.0000000019562,0.617314500212465
27499.9999998803,20.1414769523916,1.00000000195962,0.610311125635242
27599.9999998789,20.1801519130046,1.00000000194831,0.615271890154925
27699.9999998774,20.2212417359726,1.00000000200838,0.613504633796318
27799.9999998759,20.2623243748646,1.00000000195948,0.618631142198393
27899.9999998745,20.30482038666,1.00000000188993,0.616158030719005
27999.999999873,20.3493441111048,1.00000000204507,0.617225065565267
28099.9999998716,20.3937467166292,1.00000000199168,0.617210563370645
28199.9999998701,20.439336354273,1.00000000196804,0.616555600302341
28299.9999998687,20.483537129775,1.00000000210113,0.620187389569977
28399.9999998672,20.5288232647147,1.0000000019778,0.622687331204837
28499.9999998658,20.5771932461249,1.00000000206748,0.626847313256062
28599.9999998643,20.6240941244642,1.00000000205055,0.640510886224767
28699.9999998629,20.6711745110578,1.00000000206619,0.642454892995225
28799.9999998614,20.7179635811513,1.00000000216499,0.645363051055997
28899.9999998599,20.7594529455159,1.00000000217756,0.649693753607778
28999.9999998585,20.7997773557617,1.00000000201299,0.64720085057446
