Time,AGPnorm,Energy,Entropy
0,0,1,-7.64017221159869e-17
99.9999999999986,0.00164590971318534,1.00000000000167,0.00505482986526302
199.999999999993,0.0108325007600639,1.00000000000167,0.0148727514306893
300,0.022051968752873,1.00000000000032,0.0273409792800175
400.000000000022,0.0331908383456523,0.999999999999925,0.0428969535475575
500.000000000045,0.0465917208574641,1.00000000000055,0.0619166774505897
600.000000000068,0.0634781338490781,1.00000000000152,0.0843682961582286
700.000000000091,0.080015580587818,1.00000000000119,0.110148091325846
800.000000000113,0.0966132647650178,1.00000000000092,0.140321188976946
900.000000000136,0.113637240813132,1.00000000000778,0.17797251724126
1000.00000000016,0.129056812254558,1.00000000006673,0.226211378056905
1100.0000000001,0.149506953466008,1.00000000024521,0.282683359557109
1200,0.201953271845122,1.00000000057938,0.338315893088587
1299.99999999991,0.309412848045215,1.00000000098624,0.387637737662182
1399.99999999982,0.541706059772787,1.00000000130271,0.43041207715937
1499.99999999973,1.03255490317347,1.00000000162094,0.465969322287392
1599.99999999964,1.8815635762515,1.0000000019526,0.495239628066656
1699.99999999955,3.11925297183563,1.00000000201268,0.519726912614357
1799.99999999946,4.77106093480544,1.0000000020508,0.539236151778215
1899.99999999937,6.8475750289665,1.00000000215524,0.554037199498676
1999.99999999928,9.30809411542812,1.00000000226635,0.566025669676344
2099.99999999919,12.0899139247463,1.00000000234579,0.575054150368042
2199.99999999909,15.1240749145556,1.0000000022771,0.581302499208727
2299.999999999,18.3267737104326,1.00000000210972,0.585462314770195
2399.99999999891,21.6021898880101,1.00000000209973,0.588271801558958
2499.99999999882,24.8761752352097,1.00000000194512,0.590197187068757
2599.99999999873,28.0982025197316,1.00000000199856,0.589952734467259
2699.99999999864,31.2045906130513,1.00000000194782,0.588883217829004
2799.99999999855,34.1342754659256,1.00000000181886,0.588350865630566
2899.99999999846,36.8425618035944,1.00000000190734,0.587004044629592
2999.99999999837,39.3124128453319,1.0000000016824,0.58450986350782
3099.99999999828,41.5344647796621,1.00000000160822,0.580624306062179
3199.99999999819,43.4897234826652,1.00000000163387,0.578709144570664
3299.99999999809,45.1638785635748,1.00000000156673,0.577613368155841
3399.999999998,46.5585361738504,1.00000000147774,0.575647549470588
3499.99999999791,47.6910605493288,1.00000000142975,0.573066760598459
3599.99999999782,48.5726471245184,1.00000000132949,0.57472096641692
3699.99999999773,49.2079293441871,1.00000000129038,0.569407713957133
3799.99999999764,49.6249538077129,1.00000000133311,0.569442924150356
3899.99999999755,49.8220348721324,1.00000000127952,0.57262367349412
3999.99999999746,49.8614441630965,1.00000000119252,0.563362582500259
4099.99999999738,49.7257949880512,1.00000000122815,0.564820086466263
4199.99999999775,49.4844871816214,1.00000000133155,0.566714710787115
4299.99999999811,49.1128077108643,1.00000000110873,0.542778895383651
4399.99999999848,48.6639597736845,1.00000000150238,0.5808295515677
4499.99999999884,48.1582391087237,1.00000000101708,0.533594412584963
4599.9999999992,47.5645448600965,1.00000000130278,0.560520536924988
4699.99999999957,46.9742605182772,1.00000000141026,0.560178064455171
4799.99999999993,46.3333770612396,1.0000000009612,0.508773912484489
4900.00000000029,45.6521518953003,1.00000000161562,0.573123361527942
5000.00000000066,45.0006001612448,1.00000000139371,0.545928393607359
5100.00000000102,44.3219798841938,1.00000000092799,0.494169364647593
5200.00000000139,43.6173251122811,1.00000000150649,0.547172888036985
5300.00000000175,42.9460022170264,1.00000000161715,0.558412838915883
5400.00000000211,42.2801596648181,1.00000000108623,0.490350234291969
5500.00000000248,41.5947296363717,1.00000000118042,0.497612351242941
5600.00000000284,40.9223636833356,1.00000000170648,0.554482510852831
5700.00000000321,40.2801503091426,1.00000000140951,0.526081634774736
5800.00000000357,39.644827960056,1.00000000109126,0.483517866553759
5900.00000000393,39.0077363359989,1.00000000117892,0.502465070802359
6000.0000000043,38.383714536926,1.00000000149382,0.532696985616573
6100.00000000466,37.7828538101794,1.00000000159223,0.534225923557002
6200.00000000502,37.1986197946144,1.00000000119859,0.489215615084233
6300.00000000539,36.6263696467861,1.00000000111044,0.500262157262469
6400.00000000575,36.0652753641525,1.00000000127342,0.518037576353648
6500.00000000612,35.5197925327974,1.00000000150254,0.521078290121742
6600.00000000648,34.9903550198692,1.00000000159667,0.528563306332878
6700.00000000684,34.477305970494,1.00000000116122,0.50203770024878
6800.00000000721,33.9835830667605,1.00000000108819,0.499017823887018
6900.00000000757,33.504540886518,1.00000000134765,0.528126974135081
7000.00000000793,33.0409795080578,1.00000000113426,0.511848843876576
7100.0000000083,32.5942892933432,1.00000000130057,0.513769696698719
7200.00000000866,32.1587715619862,1.00000000161691,0.528877843755042
7300.00000000903,31.7363734975294,1.00000000129794,0.509632877540968
7400.00000000939,31.3359319882785,1.00000000112831,0.498189369566777
7500.00000000975,30.9513629680774,1.00000000145388,0.526534670946586
7600.00000001012,30.5750668784427,1.00000000138267,0.532137925689106
7700.00000001048,30.2167247380425,1.00000000110728,0.498291442917882
7800.00000001084,29.8755465219771,1.00000000132124,0.508088602301076
7900.00000001121,29.5414775111948,1.00000000159472,0.532009494326548
8000.00000001157,29.213534576644,1.00000000139928,0.510573220727438
8100.00000001194,28.9041244453926,1.00000000120379,0.503219625253677
8200.0000000123,28.6116610498036,1.00000000127278,0.5170686182493
8300.00000001266,28.3277534907688,1.00000000145736,0.525956447588986
8400.00000001303,28.0466728174262,1.00000000140146,0.526302047488515
8500.00000001339,27.779837423714,1.00000000113113,0.516203751099765
8600.00000001376,27.5298400270693,1.00000000128876,0.508120046736523
8700.00000001412,27.287739996844,1.00000000145701,0.529660175841072
8800.00000001448,27.0503203321377,1.0000000014671,0.530923143175373
8900.00000001485,26.8192876514484,1.00000000131932,0.521414548681297
9000.00000001521,26.6036684118741,1.00000000124458,0.514319919888791
9100.00000001557,26.4003283215305,1.00000000141659,0.533095345631965
9200.00000001594,26.2051034789012,1.00000000127497,0.528906056234081
9300.0000000163,26.0172357031357,1.00000000138147,0.527193110859001
9400.00000001667,25.8329809542569,1.00000000137597,0.523588046775298
9500.00000001703,25.6526267368422,1.00000000140108,0.546743625066544
9600.00000001739,25.478969153366,1.00000000131379,0.53751702557044
9700.00000001776,25.3151905635435,1.00000000121386,0.524057742264793
9800.00000001812,25.160174868046,1.00000000141834,0.540028194561412
9900.00000001848,25.0095111054409,1.00000000138878,0.541387423418192
10000.0000000188,24.8618004360183,1.00000000134188,0.534851929797536
10100.0000000192,24.7263159482575,1.00000000126171,0.532303028067226
10200.0000000196,24.6041671771244,1.0000000013087,0.530920617611058
10300.0000000199,24.4824430922627,1.00000000144873,0.542117804302169
10400.0000000203,24.3614059894812,1.00000000130388,0.538247396632564
10500.0000000207,24.2541813329103,1.00000000113217,0.521818751051248
10600.000000021,24.1568730360629,1.00000000140392,0.535211942562635
10700.0000000214,24.0574228836115,1.00000000147862,0.539287289340807
10800.0000000218,23.949528439422,1.00000000150108,0.556303918903373
10900.0000000221,23.8383591580048,1.00000000133818,0.562055636271008
11000.0000000225,23.7320361333012,1.00000000118251,0.547980541114678
11100.0000000229,23.6326015817834,1.00000000126723,0.549735830312794
11200.0000000232,23.5387395738331,1.00000000140743,0.549650110293457
11300.0000000236,23.4489040400069,1.000000001341,0.545452519393378
11400.0000000239,23.3646635506371,1.00000000140024,0.537650407345748
11500.0000000243,23.2880546491624,1.00000000132316,0.542197823667452
11600.0000000247,23.2211317439784,1.00000000136012,0.546872916133747
11700.000000025,23.160696852928,1.00000000140993,0.551545390848682
11800.0000000254,23.102420020642,1.00000000134622,0.545361022313722
11900.0000000258,23.0419618085894,1.00000000136414,0.548427291053246
12000.0000000261,22.9857661763497,1.00000000131661,0.543007092901127
12100.0000000265,22.939916324179,1.00000000123914,0.534970609046739
12200.0000000269,22.9003621230423,1.00000000135726,0.552294701595614
12300.0000000272,22.8582281222056,1.00000000139629,0.567276195189817
12400.0000000276,22.8138824903485,1.00000000139886,0.554164160936228
12500.0000000279,22.7644026142688,1.00000000139406,0.562439643220989
12600.0000000283,22.708912690571,1.00000000146336,0.564365994308826
12700.0000000287,22.6463061021137,1.00000000151066,0.582184387772574
12800.000000029,22.5782182846069,1.00000000135217,0.583725131494746
12900.0000000294,22.5107359134053,1.00000000128871,0.578107357719773
13000.0000000298,22.4498922146127,1.00000000132747,0.569021110420776
13100.0000000301,22.3975885553946,1.00000000136632,0.560521329415441
13200.0000000305,22.3506716997976,1.00000000130564,0.550001817179795
13300.0000000309,22.3099492947888,1.00000000142712,0.551892354302806
13400.0000000312,22.2759849068695,1.00000000133065,0.555069559497889
13500.0000000316,22.2491877309315,1.00000000131744,0.56418032169101
13600.0000000319,22.2286182984311,1.00000000138815,0.565158681006471
13700.0000000323,22.2074740894643,1.00000000139464,0.565787540486815
13800.0000000327,22.1843674936663,1.00000000141961,0.564194994279143
13900.000000033,22.1658419020429,1.00000000129674,0.554041444572827
14000.0000000334,22.1537544124624,1.00000000130102,0.551885675210227
14100.0000000338,22.1445233498601,1.00000000140097,0.55737348377393
14200.0000000341,22.1364040822346,1.00000000143405,0.5670616815266
14300.0000000345,22.1296973540522,1.00000000133917,0.572560146771981
14400.0000000349,22.1226448825667,1.00000000145996,0.582082859987941
14500.0000000352,22.1128818199041,1.00000000146283,0.59160829756631
14600.0000000356,22.097259318375,1.00000000147932,0.592070728153912
14700.0000000359,22.0796414011476,1.00000000138696,0.590256611061773
14800.0000000363,22.0608788951602,1.00000000139359,0.593615225540365
14900.0000000367,22.0419995996202,1.00000000142229,0.591284571540857
15000.000000037,22.018694627837,1.00000000141466,0.588609990763163
15100.0000000374,21.9856668747104,1.00000000155229,0.591700905751688
15200.0000000378,21.9424286994206,1.00000000156972,0.592790495888758
15300.0000000381,21.8921957258191,1.00000000153465,0.601480654262727
15400.0000000385,21.839212370706,1.00000000137888,0.603018582544393
15500.0000000389,21.7885974273526,1.00000000133665,0.593004071195905
15600.0000000392,21.7449529035533,1.00000000139195,0.58720922108237
15700.0000000396,21.7099916802694,1.00000000144399,0.583937340882493
15800.0000000399,21.6815788000258,1.00000000140445,0.581794907494966
15900.0000000403,21.6595133225135,1.00000000146099,0.582908066919412
16000.0000000407,21.6454064494513,1.00000000134993,0.578961009602107
16100.000000041,21.6362547302178,1.00000000145487,0.581434318589379
16200.0000000414,21.6330736149377,1.00000000132908,0.587451845579198
16300.0000000418,21.6355985629921,1.00000000146002,0.589096678877847
16400.0000000418,21.6377395989613,1.00000000153394,0.582829533896004
16500.0000000404,21.6398468441829,1.00000000149659,0.585029171782183
16600.0000000389,21.6447415357483,1.00000000139327,0.577368064822452
16700.0000000375,21.6525788848507,1.00000000154134,0.57057973134684
16800.000000036,21.6638029334132,1.00000000144847,0.575157081885033
16900.0000000346,21.6783271218286,1.00000000141959,0.585634377517315
17000.0000000331,21.6955433736581,1.0000000014739,0.590633491265081
17100.0000000317,21.712427392381,1.00000000141318,0.588357914311108
17200.0000000302,21.7251829298536,1.00000000158874,0.589557086479023
17300.0000000287,21.7356662668326,1.00000000144715,0.576539238016685
17400.0000000273,21.7442709498638,1.000000001519,0.586687761345052
17500.0000000258,21.7534946854919,1.00000000150545,0.601655545591208
17600.0000000244,21.7638544792391,1.00000000140726,0.607711962980673
17700.0000000229,21.7712492627568,1.00000000153954,0.611481692274811
17800.0000000215,21.7751717271652,1.00000000154827,0.627994349419745
17900.00000002,21.7759202892395,1.00000000147258,0.627298480416163
18000.0000000186,21.7740331942155,1.00000000155762,0.623113477235965
18100.0000000171,21.7690032520942,1.00000000149541,0.62840555455256
18200.0000000156,21.7617149730213,1.0000000015586,0.638969569160932
18300.0000000142,21.7508767944631,1.00000000150491,0.639443082542128
18400.0000000127,21.7357410106097,1.00000000145927,0.643200095469765
18500.0000000113,21.7186531713584,1.00000000140961,0.63595044516214
18600.0000000098,21.6985020077616,1.00000000148729,0.633445795453848
18700.0000000084,21.6726740643049,1.00000000149841,0.637654775418455
18800.0000000069,21.64232824122,1.00000000144457,0.632952500841246
18900.0000000055,21.6054831649993,1.00000000158925,0.638180854337018
19000.000000004,21.5637123446066,1.00000000161324,0.631236082242469
19100.0000000026,21.5173784713561,1.00000000156687,0.631806366674509
19200.0000000011,21.4695949894041,1.00000000145013,0.635698249976018
19299.9999999996,21.424659898851,1.00000000145804,0.637511376346977
19399.9999999982,21.3836429922789,1.00000000147438,0.637232902551975
19499.9999999967,21.3486053315099,1.00000000142641,0.636188848007947
19599.9999999953,21.3200291922946,1.00000000145091,0.628013815508861
19699.9999999938,21.2975791600251,1.00000000149324,0.62450503798538
19799.9999999924,21.2803461038026,1.00000000151157,0.623175381369162
19899.9999999909,21.2702679154402,1.0000000015033,0.609737796248226
19999.9999999895,21.2667757470192,1.00000000140909,0.595930796809884
20099.999999988,21.2689594533809,1.00000000154042,0.596181966127028
20199.9999999865,21.2759607662556,1.00000000152094,0.601255685288847
20299.9999999851,21.2876666821652,1.00000000149275,0.602878013639513
20399.9999999836,21.3025986344276,1.00000000156623,0.608137616328906
20499.9999999822,21.3180109347899,1.00000000158881,0.610761124260661
20599.9999999807,21.3352362658465,1.00000000155688,0.604076279754606
20699.9999999793,21.351759187105,1.00000000154505,0.603145039163685
20799.9999999778,21.3711872787753,1.00000000144366,0.598134838205197
20899.9999999764,21.3939103528485,1.0000000015455,0.592096281495216
20999.9999999749,21.4199451088098,1.00000000151384,0.595193302000177
21099.9999999734,21.4469182694822,1.00000000152675,0.601654593516604
21199.999999972,21.4754467914972,1.00000000161763,0.603877768945642
21299.9999999705,21.5038824773777,1.00000000163518,0.599757391036828
21399.9999999691,21.5310304584601,1.00000000159751,0.608686565297341
21499.9999999676,21.5588422383895,1.00000000153386,0.605239522744941
21599.9999999662,21.5850887708051,1.00000000158042,0.6035227808613
21699.9999999647,21.6070924092584,1.00000000171102,0.610121280302833
21799.9999999633,21.6217583924521,1.00000000167506,0.610693637079464
21899.9999999618,21.6337489110043,1.00000000150467,0.612864654641346
21999.9999999603,21.6463056994481,1.00000000154652,0.627694985622854
22099.9999999589,21.6607395507009,1.00000000158757,0.634250369781815
22199.9999999574,21.6747557040516,1.00000000160889,0.634440643202382
22299.999999956,21.6879352935767,1.00000000170928,0.636614901547602
22399.9999999545,21.6981651712389,1.00000000162547,0.637906245986508
22499.9999999531,21.7072787880612,1.00000000143458,0.636708608337154
22599.9999999516,21.7186027250858,1.00000000160381,0.636600051891037
22699.9999999502,21.730416683358,1.00000000162065,0.637162561531468
22799.9999999487,21.7404663521554,1.00000000161963,0.638234998165979
22899.9999999473,21.7485060514333,1.0000000016501,0.633753240832771
22999.9999999458,21.751237051478,1.00000000168691,0.631318205358389
23099.9999999443,21.751478612058,1.00000000161556,0.639183885572659
23199.9999999429,21.7502913361218,1.00000000161703,0.63804753137418
23299.9999999414,21.7486842282305,1.00000000159813,0.637619516428458
23399.99999994,21.74605085768,1.00000000158489,0.64155944125464
23499.9999999385,21.7428386368341,1.00000000159369,0.64605552603026
23599.9999999371,21.740397760892,1.00000000146394,0.637495171520638
23699.9999999356,21.738548384799,1.00000000153673,0.640860220211928
23799.9999999342,21.7342140168202,1.00000000160193,0.645588228808207
23899.9999999327,21.7262975662193,1.00000000165576,0.646746904336182
23999.9999999312,21.7137525596969,1.00000000168298,0.649837410795209
24099.9999999298,21.6982991287617,1.00000000167394,0.647737259947848
24199.9999999283,21.682086582969,1.00000000149979,0.646596620003634
24299.9999999269,21.6647873032456,1.00000000161591,0.650978857975302
24399.9999999254,21.6450955529048,1.00000000156576,0.648632535303561
24499.999999924,21.6253915394982,1.0000000015619,0.652612362986481
24599.9999999225,21.6029821835831,1.00000000161138,0.651691112843451
24699.9999999211,21.5802840181762,1.00000000153162,0.649554145257421
24799.9999999196,21.5571219388388,1.00000000154606,0.647023009753218
24899.9999999181,21.5313251382228,1.00000000161428,0.645650841624556
24999.9999999167,21.502228941824,1.0000000017026,0.653894417712965
25099.9999999152,21.4697083245113,1.00000000170394,0.652864352325853
25199.9999999138,21.4349762448388,1.000000001618,0.655177485980492
25299.9999999123,21.3986162618106,1.00000000172156,0.655963455473914
25399.9999999109,21.3593627273072,1.00000000163739,0.65524320829603
25499.9999999094,21.3186695245328,1.0000000015959,0.653987598490376
25599.999999908,21.276965654082,1.00000000164983,0.655174708846822
25699.9999999065,21.2345464837761,1.00000000155962,0.654140361346906
25799.9999999051,21.1938388888354,1.00000000156111,0.646324520999149
25899.9999999036,21.15586772617,1.00000000149299,0.634854166475617
25999.9999999021,21.121935275294,1.00000000144086,0.623721596760168
26099.9999999007,21.0938108388058,1.00000000159048,0.625600834059327
26199.9999998992,21.0720406828868,1.00000000155172,0.622892151279223
26299.9999998978,21.0552219148569,1.00000000163927,0.623004514039813
26399.9999998963,21.0425856609648,1.00000000163642,0.631320931916288
26499.9999998949,21.0351438629194,1.0000000015072,0.622990160589532
26599.9999998934,21.0341678653847,1.00000000160549,0.612277878427696
26699.999999892,21.038625278152,1.00000000152653,0.603910353834808
26799.9999998905,21.0490313813737,1.00000000158443,0.59976616429487
26899.999999889,21.0648348814404,1.00000000165375,0.598412146812033
26999.9999998876,21.0836873917984,1.00000000165438,0.600541391270706
27099.9999998861,21.1062395193777,1.00000000160664,0.59791226695212
27199.9999998847,21.1318944179446,1.00000000170175,0.605692666412174
27299.9999998832,21.1571282349252,1.00000000178293,0.608814420326258
27399.9999998818,21.1834945032844,1.00000000159255,0.600716096268198
27499.9999998803,21.2118733943694,1.00000000177499,0.598268786159924
27599.9999998789,21.2405608597991,1.00000000166036,0.589993710623822
27699.9999998774,21.2719283589778,1.00000000157787,0.593635287694367
27799.9999998759,21.3073088678238,1.00000000161305,0.602025453623116
27899.9999998745,21.3418498841831,1.00000000163098,0.595008757330342
27999.999999873,21.3773957522139,1.00000000164498,0.597250490619447
28099.9999998716,21.4154824825419,1.00000000150862,0.596132837406278
28199.9999998701,21.4568989191299,1.00000000166033,0.603819116463401
28299.9999998687,21.4991654623509,1.0000000017053,0.610309835170997
28399.9999998672,21.5405571605735,1.00000000168164,0.613926652204278
28499.9999998658,21.5812648209143,1.00000000166811,0.622309518229802
28599.9999998643,21.6232819453885,1.00000000170101,0.618687914277902
28699.9999998629,21.6639504569934,1.00000000175142,0.613944849468588
28799.9999998614,21.7005542933065,1.00000000178149,0.615576515664575
28899.9999998599,21.7336620023197,1.0000000016757,0.619915451461992
28999.9999998585,21.7637255507935,1.00000000180102,0.633950859212353
