Time,AGPnorm,Energy,Entropy
0,0,1,6.94075742493232e-18
99.9999999999986,0.00722392778526426,1.00000000000404,0.0210051768487449
199.999999999993,0.0202859611219562,1.00000000000096,0.0613360786720793
300,0.0404708366296006,1.00000000000378,0.121412886882171
400.000000000022,0.0604537794756076,1.00000000003428,0.208527574394743
500.000000000045,0.0803078330879177,1.00000000051335,0.333306170633862
600.000000000068,0.265218940031005,1.00000000159419,0.450139883476795
700.000000000091,0.925399771704679,1.00000000238435,0.522273027035092
800.000000000113,2.37961997226207,1.00000000274113,0.561708073187455
900.000000000136,4.62505074214587,1.00000000287548,0.577834855771221
1000.00000000016,7.33338901445765,1.00000000274008,0.583182659910838
1100.0000000001,10.2538634355461,1.00000000260884,0.579212925778809
1200,12.9834290063421,1.00000000250048,0.571466045366325
1299.99999999991,15.375622659617,1.0000000022555,0.564313682057233
1399.99999999982,17.2606758481347,1.00000000219079,0.557094360971084
1499.99999999973,18.6123510590497,1.00000000202052,0.552492360201133
1599.99999999964,19.4414177053604,1.00000000168775,0.532844784921428
1699.99999999955,19.8513612564803,1.00000000172241,0.539687757510253
1799.99999999946,19.8599898660269,1.00000000176395,0.551723039819732
1899.99999999937,19.6785657828593,1.00000000127234,0.49253350632788
1999.99999999928,19.2403433593744,1.00000000186443,0.553564354287698
2099.99999999919,18.8053833059458,1.00000000149472,0.497570692191015
2199.99999999909,18.1989985987789,1.00000000139793,0.467355011857239
2299.999999999,17.6349493900993,1.00000000240548,0.580804846205922
2399.99999999891,17.0856641076673,1.00000000111211,0.396812216974807
2499.99999999882,16.4736210456221,1.00000000165153,0.474537229396645
2599.99999999873,15.9036482433803,1.00000000250546,0.571452567185713
2699.99999999864,15.3973797455236,1.00000000159951,0.466915990259798
2799.99999999855,14.8963878356467,1.00000000110823,0.381184703131187
2899.99999999846,14.401724266357,1.00000000183482,0.508817501610768
2999.99999999837,13.9274351539043,1.00000000211945,0.539636609275044
3099.99999999828,13.4922561127697,1.00000000201997,0.554947975743687
3199.99999999819,13.1036842663723,1.00000000089529,0.389239175226822
3299.99999999809,12.7797819063658,1.00000000146861,0.418848163642702
3399.999999998,12.4537080340389,1.00000000210013,0.530706605402739
3499.99999999791,12.1350086535341,1.00000000159573,0.521107689784202
3599.99999999782,11.8209839183924,1.00000000211518,0.535453989822501
3699.99999999773,11.5049509490319,1.00000000214879,0.570279184064962
3799.99999999764,11.2302841503426,1.00000000111779,0.44544529837092
3899.99999999755,11.053216496441,1.00000000113276,0.387238707435416
3999.99999999746,10.9333682024725,1.00000000193109,0.474590233812294
4099.99999999738,10.7898094376357,1.00000000190765,0.527412027633072
4199.99999999775,10.6288667073782,1.00000000191559,0.552908105960978
4299.99999999811,10.4628716949516,1.00000000155207,0.544667529354339
4399.99999999848,10.2936226638137,1.00000000163719,0.548078864371235
4499.99999999884,10.1107753393315,1.00000000208945,0.542188308826731
4599.9999999992,9.91065349977433,1.0000000023482,0.579888962822143
4699.99999999957,9.72223755102391,1.00000000147321,0.52449535168844
4799.99999999993,9.61226710976691,1.00000000108337,0.413278084163025
4900.00000000029,9.62115012980686,1.00000000132623,0.409015011420727
5000.00000000066,9.672397954833,1.0000000018467,0.470460844536503
5100.00000000102,9.69281445367147,1.00000000211614,0.532699851769734
5200.00000000139,9.68191321627365,1.00000000171623,0.553639276054057
5300.00000000175,9.65727268855194,1.00000000183531,0.562088292364045
5400.00000000211,9.61365598451012,1.00000000194998,0.572427895290602
5500.00000000248,9.55335132132991,1.00000000181898,0.556081052118249
5600.00000000284,9.47655399621276,1.00000000210163,0.572796364672644
5700.00000000321,9.3880586808924,1.00000000167295,0.576258689891727
5800.00000000357,9.30321024274131,1.00000000158168,0.576518597007601
5900.00000000393,9.20854982956724,1.00000000178574,0.579811874944845
6000.0000000043,9.09945079498454,1.00000000228657,0.587411922951405
6100.00000000466,8.97637406534198,1.00000000251201,0.587857465625391
6200.00000000502,8.84606465561265,1.00000000200107,0.576586034719149
6300.00000000539,8.7359543690283,1.00000000136932,0.508201750591863
6400.00000000575,8.70335522787838,1.00000000102377,0.43486086885603
6500.00000000612,8.78852173529706,1.00000000116932,0.420399694516779
6600.00000000648,8.94812021320336,1.00000000168799,0.459806221911539
6700.00000000684,9.1100353434878,1.00000000206997,0.500644934873413
6800.00000000721,9.2392467123142,1.00000000189938,0.529478376057834
6900.00000000757,9.34701563404321,1.00000000189991,0.56204738640704
7000.00000000793,9.42717601023101,1.0000000020118,0.571702880556922
7100.0000000083,9.4796432499103,1.00000000198897,0.591526901540067
7200.00000000866,9.5071886252502,1.00000000185168,0.596994451998589
7300.00000000903,9.50654798966729,1.00000000203496,0.603753152683469
7400.00000000939,9.48793544455517,1.00000000191419,0.585193139653412
7500.00000000975,9.46401818299337,1.0000000019023,0.583384911868776
7600.00000001012,9.44117010024162,1.00000000176773,0.571142675691717
7700.00000001048,9.41496738705838,1.00000000198278,0.555287406285109
7800.00000001084,9.3795230874429,1.00000000201218,0.574439175830159
7900.00000001121,9.34153818358635,1.00000000180556,0.580422857156236
8000.00000001157,9.30949797965141,1.00000000191334,0.587168740449101
8100.00000001194,9.27282918925328,1.00000000182196,0.593953255266732
8200.0000000123,9.2331403001389,1.00000000188264,0.585665897508457
8300.00000001266,9.18615644574097,1.00000000202635,0.586487732763227
8400.00000001303,9.13337147093366,1.00000000194635,0.587206037182746
8500.00000001339,9.06963850652607,1.00000000203209,0.614583056899251
8600.00000001376,8.9983318269647,1.00000000176221,0.61992417209915
8700.00000001412,8.92693337284627,1.00000000166655,0.610235000302056
8800.00000001448,8.85402123602509,1.00000000183826,0.614412732849027
8900.00000001485,8.77778544942531,1.00000000210955,0.608690957951188
9000.00000001521,8.69889535839569,1.00000000229106,0.610225072991991
9100.00000001557,8.62133878754172,1.00000000246112,0.597814588943994
9200.00000001594,8.54463165711545,1.00000000262152,0.584578940902077
9300.0000000163,8.46114537283429,1.00000000209893,0.568582928537364
9400.00000001667,8.37466330604758,1.00000000173316,0.53759692459896
9500.00000001703,8.30961124823108,1.00000000144198,0.488378873945697
9600.00000001739,8.30759946178894,1.0000000010915,0.439216826106903
9700.00000001776,8.40168408237808,1.00000000124397,0.429279464396588
9800.00000001812,8.59108203689894,1.00000000154049,0.437525844649501
9900.00000001848,8.83503484956241,1.0000000017437,0.460290322422002
10000.0000000188,9.0926197638409,1.00000000225416,0.484417608756111
10100.0000000192,9.33238031297355,1.00000000203415,0.515300800546753
10200.0000000196,9.55274343939955,1.00000000220713,0.538687276374326
10300.0000000199,9.74869564590444,1.00000000210023,0.552122280438767
10400.0000000203,9.92463708633657,1.00000000208806,0.570809525072422
10500.0000000207,10.0796629201152,1.00000000205757,0.594226368532264
10600.000000021,10.2118727453086,1.00000000213551,0.609054705550601
10700.0000000214,10.3142105081185,1.00000000219886,0.611586912711028
10800.0000000218,10.3981424908228,1.00000000207699,0.624680562966576
10900.0000000221,10.4573506325453,1.00000000210538,0.643260161825353
11000.0000000225,10.4954022239813,1.00000000214061,0.639791954291594
11100.0000000229,10.5166126926518,1.00000000206423,0.640410353027233
11200.0000000232,10.5319920474421,1.00000000210449,0.632831999702836
11300.0000000236,10.5391085556509,1.00000000214784,0.639875113007087
11400.0000000239,10.541839459877,1.00000000196505,0.634468679795994
11500.0000000243,10.5317744760909,1.00000000234616,0.641657089194427
11600.0000000247,10.5107283086574,1.00000000208811,0.625698381189209
11700.000000025,10.4926878864718,1.00000000206775,0.624055580374848
11800.0000000254,10.4654000367035,1.00000000209596,0.633963526478425
11900.0000000258,10.4302428100669,1.00000000211763,0.637892662603056
12000.0000000261,10.3917903972195,1.0000000022765,0.647461294642685
12100.0000000265,10.3508436851335,1.00000000209746,0.650918934753419
12200.0000000269,10.3071731222306,1.00000000208831,0.653485473638597
12300.0000000272,10.2642315578467,1.00000000201926,0.641614530962837
12400.0000000276,10.2273050347599,1.0000000020387,0.624347109401506
12500.0000000279,10.1965832950913,1.00000000206025,0.624208938204914
12600.0000000283,10.1710730634393,1.00000000216326,0.618660451916648
12700.0000000287,10.1522030865309,1.00000000208872,0.619962683904045
12800.000000029,10.1382471927492,1.00000000206733,0.621856356130164
12900.0000000294,10.1231178510155,1.00000000222385,0.63378525332749
13000.0000000298,10.1043676819775,1.00000000212995,0.633919903319939
13100.0000000301,10.0876411102228,1.0000000022212,0.618417716571769
13200.0000000305,10.0705699638859,1.00000000222478,0.612184746974966
13300.0000000309,10.0564356629269,1.00000000198762,0.617363215164284
13400.0000000312,10.0465477760306,1.00000000217157,0.605769920908416
13500.0000000316,10.0373908132945,1.00000000216092,0.592715523862269
13600.0000000319,10.0216538064502,1.00000000217619,0.608179769411765
13700.0000000323,10.0053447445606,1.00000000201866,0.604265417021181
13800.0000000327,9.99278402087434,1.00000000220904,0.611354551124713
13900.000000033,9.97795555160742,1.00000000223415,0.635285537974417
14000.0000000334,9.96406989742311,1.00000000210754,0.631516169221623
14100.0000000338,9.95149665757491,1.00000000219851,0.626655317806285
14200.0000000341,9.93437775105696,1.00000000223272,0.635183558053029
14300.0000000345,9.91743434523387,1.00000000215931,0.637069737308538
14400.0000000349,9.90117786034543,1.0000000020716,0.631268442116994
14500.0000000352,9.87873911946365,1.00000000237714,0.649751070159893
14600.0000000356,9.85411865442809,1.00000000203124,0.635800895437726
14700.0000000359,9.8386136866123,1.00000000212475,0.646185923261159
14800.0000000363,9.82026968292482,1.00000000236824,0.651877618669915
14900.0000000367,9.79611478359604,1.00000000223586,0.629776181191689
15000.000000037,9.76923168118628,1.00000000221599,0.631022881952053
15100.0000000374,9.74222757036308,1.00000000218175,0.644980748020579
15200.0000000378,9.72023917456402,1.00000000213221,0.655748053603922
15300.0000000381,9.69822090712645,1.00000000235032,0.658475182804768
15400.0000000385,9.67121272870001,1.00000000235437,0.65436605809381
15500.0000000389,9.64054667499378,1.00000000240994,0.650527759710718
15600.0000000392,9.61342705726643,1.00000000198554,0.634688950374789
15700.0000000396,9.58414499900601,1.00000000248836,0.65265233942072
15800.0000000399,9.55084734475626,1.00000000229942,0.648798817075841
15900.0000000403,9.51785810302748,1.00000000218714,0.646767229214755
16000.0000000407,9.48627014587868,1.00000000222161,0.649323212512262
16100.000000041,9.45378908797264,1.00000000214192,0.65184241504179
16200.0000000414,9.42109327640803,1.00000000219593,0.659318625008524
16300.0000000418,9.38566079238912,1.00000000227428,0.668951058110787
16400.0000000418,9.34601740627926,1.00000000219661,0.652892518762725
16500.0000000404,9.30629272418477,1.00000000221367,0.645290260782592
16600.0000000389,9.26337012337495,1.00000000247378,0.651650003068666
16700.0000000375,9.21775869525299,1.00000000228713,0.653917259693157
16800.000000036,9.17297527193806,1.00000000217847,0.652441167053154
16900.0000000346,9.12511627368837,1.00000000243936,0.6667162710963
17000.0000000331,9.07479603303939,1.00000000241729,0.663043463026884
17100.0000000317,9.02433545197339,1.00000000217658,0.658453776265424
17200.0000000302,8.97385055010225,1.0000000022119,0.659436168423305
17300.0000000287,8.92325300522918,1.00000000235482,0.672266968087437
17400.0000000273,8.8730627706114,1.00000000211602,0.65103157519249
17500.0000000258,8.82394128087558,1.00000000214885,0.653051054831949
17600.0000000244,8.77626458847261,1.00000000225212,0.658245743030319
17700.0000000229,8.73182137347381,1.00000000221679,0.660003381804251
17800.0000000215,8.69176232130684,1.00000000237986,0.662102749779704
17900.00000002,8.65771298803632,1.0000000024726,0.673868020976288
18000.0000000186,8.63459354357133,1.00000000287958,0.67626700309159
18100.0000000171,8.61890164761617,1.00000000260836,0.679511810324649
18200.0000000156,8.62179400187933,1.00000000262261,0.683834582253408
18300.0000000142,8.62669334547441,1.00000000275651,0.685596086439168
18400.0000000127,8.64825691071775,1.00000000303419,0.67156590679798
18500.0000000113,8.65734413521285,1.00000000274332,0.664145911237415
18600.0000000098,8.66569752365068,1.00000000257399,0.642784541900191
18700.0000000084,8.65141922264413,1.00000000226201,0.620701229415234
18800.0000000069,8.62297665422084,1.00000000208812,0.603873876234789
18900.0000000055,8.58314403283642,1.00000000214911,0.572043921246984
19000.000000004,8.54426808194046,1.00000000184355,0.542501206280394
19100.0000000026,8.52966132824574,1.0000000016726,0.516444034885857
19200.0000000011,8.56022677391374,1.00000000161134,0.49220530763903
19299.9999999996,8.66256482145109,1.00000000153899,0.475066327298718
19399.9999999982,8.84457821006282,1.0000000017083,0.465300501276672
19499.9999999967,9.12328338319429,1.00000000183861,0.471742912011837
19599.9999999953,9.46498938249741,1.00000000195609,0.474891050378662
19699.9999999938,9.89590885569166,1.00000000207153,0.481853035642425
19799.9999999924,10.3402689447628,1.00000000217184,0.492618574733739
19899.9999999909,10.8384516903861,1.00000000233697,0.505418699551277
19999.9999999895,11.3139449059337,1.00000000253445,0.518001709285599
20099.999999988,11.8042929866158,1.00000000239717,0.527737316244047
20199.9999999865,12.2674948463986,1.00000000246218,0.54015218989802
20299.9999999851,12.7202305733325,1.00000000255589,0.542838283372181
20399.9999999836,13.158615379033,1.00000000262254,0.555207908413755
20499.9999999822,13.571099857406,1.00000000231707,0.561299233697618
20599.9999999807,13.9785708868231,1.00000000265022,0.573393392192453
20699.9999999793,14.3584835933388,1.00000000238977,0.578100265072729
20799.9999999778,14.7360936637727,1.00000000256972,0.589556852608455
20899.9999999764,15.0902859664824,1.00000000235114,0.599374315063164
20999.9999999749,15.4353934200205,1.00000000222941,0.605138467909908
21099.9999999734,15.7663724404316,1.0000000025754,0.634330851953681
21199.999999972,16.0557687922248,1.00000000266165,0.63385214734919
21299.9999999705,16.3359728501642,1.00000000249608,0.644973447057177
21399.9999999691,16.586777488604,1.00000000254879,0.662003154386038
21499.9999999676,16.8248108749759,1.0000000024162,0.656506437095657
21599.9999999662,17.0359720899759,1.00000000245424,0.66428080614141
21699.9999999647,17.2301734683117,1.00000000264248,0.671973584270761
21799.9999999633,17.4095660867437,1.00000000248153,0.670521096525067
21899.9999999618,17.5729508654499,1.00000000266488,0.664662772464759
21999.9999999603,17.7261959734141,1.00000000252623,0.673752412290708
22099.9999999589,17.8630640813071,1.00000000270123,0.669915564189041
22199.9999999574,17.9954286303418,1.00000000242868,0.667265532876071
22299.999999956,18.1095882417087,1.00000000272957,0.661894672075231
22399.9999999545,18.2167948666544,1.00000000254504,0.663338921528788
22499.9999999531,18.317009123249,1.0000000024541,0.666870285942164
22599.9999999516,18.4075454489596,1.00000000247258,0.683816225975039
22699.9999999502,18.4962419296539,1.00000000245995,0.684004687218943
22799.9999999487,18.5756039248537,1.0000000023245,0.672953383334353
22899.9999999473,18.6538038757446,1.00000000236913,0.676738129932853
22999.9999999458,18.7203227441663,1.00000000244826,0.659110012207241
23099.9999999443,18.7775516440921,1.00000000234122,0.672285075944331
23199.9999999429,18.8285068726358,1.00000000254737,0.668044162669145
23299.9999999414,18.8861852780016,1.00000000279425,0.673297770919293
23399.99999994,18.9507793112981,1.00000000243945,0.673977863137288
23499.9999999385,19.0116717184328,1.0000000026809,0.67076548271211
23599.9999999371,19.0688427028118,1.00000000270358,0.666913097752739
23699.9999999356,19.1135327403442,1.00000000260615,0.67238904945163
23799.9999999342,19.1478659489016,1.0000000028644,0.667390809921852
23899.9999999327,19.1812784141082,1.00000000261992,0.674353488044574
23999.9999999312,19.2205313357309,1.00000000245259,0.657939095195394
24099.9999999298,19.265457688371,1.00000000269026,0.651576988217107
24199.9999999283,19.3032885017164,1.00000000255866,0.665407210688598
24299.9999999269,19.3361090464678,1.00000000274342,0.662318254906281
24399.9999999254,19.3642510606421,1.0000000025145,0.655506159936273
24499.999999924,19.3998120286596,1.00000000250238,0.649927371333702
24599.9999999225,19.4421242188329,1.00000000252778,0.670650762716587
24699.9999999211,19.4819568168943,1.00000000254315,0.681344214199257
24799.9999999196,19.514610375388,1.00000000285139,0.676940574197778
24899.9999999181,19.5449125651424,1.00000000273276,0.667146507358887
24999.9999999167,19.5820907320861,1.00000000248061,0.657274901696758
25099.9999999152,19.6248372920444,1.00000000250949,0.662003574436925
25199.9999999138,19.6684433103007,1.000000003239,0.670445973532035
25299.9999999123,19.7106116407867,1.00000000263201,0.676740296151758
25399.9999999109,19.7603271364715,1.00000000263459,0.655204856257363
25499.9999999094,19.8138381683224,1.00000000260079,0.676021393913094
25599.999999908,19.862821301244,1.00000000239033,0.674292751638
25699.9999999065,19.9073520512282,1.00000000294614,0.665371529268312
25799.9999999051,19.9498877765818,1.00000000276604,0.662451983197502
25899.9999999036,20.0010939608753,1.0000000023255,0.656268914261348
25999.9999999021,20.0474796693409,1.00000000288036,0.691768687648335
26099.9999999007,20.0838477426815,1.0000000027776,0.677681901123121
26199.9999998992,20.1200511438888,1.00000000275024,0.672145477231601
26299.9999998978,20.1602561876552,1.00000000237955,0.665390196438594
26399.9999998963,20.2031320142231,1.00000000290785,0.667396499311808
26499.9999998949,20.2436014288876,1.00000000264913,0.66928160429656
26599.9999998934,20.2787434265386,1.00000000278838,0.657982154909342
26699.999999892,20.3132666112627,1.00000000281141,0.653657690606259
26799.9999998905,20.3480367395159,1.00000000282487,0.655292741421511
26899.999999889,20.3834486530696,1.00000000261437,0.6572173500208
26999.9999998876,20.4218097438977,1.00000000272313,0.633662973096131
27099.9999998861,20.461259711023,1.00000000245734,0.640892674177574
27199.9999998847,20.5039523385904,1.00000000281942,0.650166848050174
27299.9999998832,20.5465735252873,1.00000000286141,0.666620681539357
27399.9999998818,20.5865790504782,1.00000000274541,0.667017534913749
27499.9999998803,20.6206231027948,1.00000000313409,0.666289230862334
27599.9999998789,20.6556965238122,1.00000000314275,0.660170352903212
27699.9999998774,20.6858196747333,1.00000000299111,0.67709784509606
27799.9999998759,20.7149396297732,1.00000000298666,0.677737118621
27899.9999998745,20.7445246013845,1.00000000280571,0.654274991661398
27999.999999873,20.7866493872025,1.00000000254846,0.629926883760807
28099.9999998716,20.8466205713828,1.00000000241928,0.658304593669247
28199.9999998701,20.91175583691,1.00000000283688,0.686953054305503
28299.9999998687,20.9825161576154,1.00000000274414,0.678819621133206
28399.9999998672,21.0583852744112,1.00000000284938,0.674089512996814
28499.9999998658,21.137897597104,1.00000000276028,0.673613212867931
28599.9999998643,21.2156483242067,1.00000000273367,0.666656161388992
28699.9999998629,21.2927805567347,1.00000000286615,0.670983005882832
28799.9999998614,21.3687496024242,1.00000000291969,0.669815715316549
28899.9999998599,21.436052180419,1.00000000300243,0.677741491109997
28999.9999998585,21.5037862444565,1.00000000246467,0.683160505075516
