Time,AGPnorm,Energy,Entropy
0,0,1,-6.94075742493258e-19
99.9999999999986,0.0068228260839011,1.00000000000144,0.0201400444841052
199.999999999993,0.0190817257508388,1.00000000000089,0.0589506586224994
300,0.0385694633737675,1.00000000000126,0.116535188920915
400.000000000022,0.0573637051382387,1.00000000002397,0.198745996997768
500.000000000045,0.0759846485100356,1.00000000039043,0.318049568717829
600.000000000068,0.223723190250089,1.0000000013242,0.436343312361711
700.000000000091,0.797425676445841,1.00000000213003,0.513134449775268
800.000000000113,2.13535862522229,1.00000000264214,0.55552207012307
900.000000000136,4.29511426676603,1.00000000281649,0.574525432536784
1000.00000000016,6.98866852634242,1.00000000275245,0.581279857781679
1100.0000000001,9.96806294442291,1.00000000250288,0.579012143383519
1200,12.8327655476324,1.00000000240003,0.571312215547468
1299.99999999991,15.4025527353498,1.00000000226127,0.565066204338518
1399.99999999982,17.4939172521529,1.00000000209385,0.558325979625975
1499.99999999973,19.0494227569955,1.00000000193525,0.550115762579689
1599.99999999964,20.0780346480012,1.00000000165437,0.529366167511463
1699.99999999955,20.6458552136168,1.00000000174347,0.550275158314164
1799.99999999946,20.7821627861411,1.00000000147163,0.526053965761855
1899.99999999937,20.6989602053169,1.00000000152838,0.526557997907288
1999.99999999928,20.3077050680862,1.00000000144034,0.514493812612359
2099.99999999919,19.8969550751051,1.00000000193585,0.547932400794013
2199.99999999909,19.3187066593765,1.00000000098569,0.42112590916051
2299.999999999,18.7180545891853,1.00000000232223,0.582803825045998
2399.99999999891,18.1773447037133,1.00000000133849,0.454303443134311
2499.99999999882,17.5538573351061,1.00000000118946,0.414908691299333
2599.99999999873,16.9417330873113,1.00000000232031,0.562877965433678
2699.99999999864,16.4136692486189,1.00000000182134,0.524550548692298
2799.99999999855,15.890267975523,1.00000000091302,0.364292538454729
2899.99999999846,15.371109619011,1.00000000160261,0.469335118560752
2999.99999999837,14.865374990914,1.00000000198924,0.534521357318339
3099.99999999828,14.3991326480601,1.00000000225467,0.57012446914642
3199.99999999819,13.9737539411005,1.00000000110751,0.444414445631258
3299.99999999809,13.6102369711348,1.00000000111454,0.37670492376326
3399.999999998,13.2699563481319,1.00000000190789,0.49957890313675
3499.99999999791,12.9264771187087,1.00000000158071,0.530745155905115
3599.99999999782,12.5981008064177,1.00000000170568,0.517063359263628
3699.99999999773,12.2624577700657,1.00000000240224,0.568645968858876
3799.99999999764,11.9500483128215,1.00000000148503,0.513294412306492
3899.99999999755,11.7117409082119,1.00000000091338,0.387932803169393
3999.99999999746,11.568024524588,1.00000000140743,0.413110584358449
4099.99999999738,11.4236205004009,1.00000000181714,0.511919433221544
4199.99999999775,11.2585098516651,1.00000000184006,0.542406742321414
4299.99999999811,11.0786804391887,1.00000000159546,0.541050984286191
4399.99999999848,10.9001150004945,1.0000000015428,0.545556666907945
4499.99999999884,10.7135926422855,1.00000000194102,0.532680296067543
4599.9999999992,10.5093151690511,1.00000000222067,0.561974357784075
4699.99999999957,10.2983862958834,1.00000000206971,0.573585417936866
4799.99999999993,10.1285780783763,1.00000000109739,0.465496098155226
4900.00000000029,10.0675458478819,1.00000000096483,0.397229731773019
5000.00000000066,10.1022381938721,1.00000000155805,0.432360708348169
5100.00000000102,10.1434366882677,1.00000000176992,0.495266287947292
5200.00000000139,10.1419507367703,1.00000000188737,0.547771252258678
5300.00000000175,10.121236182713,1.00000000159327,0.551542916934487
5400.00000000211,10.0854123722484,1.00000000163687,0.574853143965775
5500.00000000248,10.0283440732341,1.00000000181583,0.566828433682668
5600.00000000284,9.95486950948881,1.00000000164987,0.551688985572159
5700.00000000321,9.86396092582507,1.00000000184187,0.583619602558038
5800.00000000357,9.77096295368168,1.00000000144911,0.569103032976843
5900.00000000393,9.67836162829901,1.0000000016093,0.584869912344453
6000.0000000043,9.57093378137871,1.00000000188562,0.586340999737938
6100.00000000466,9.44763671079662,1.00000000215911,0.588289340193207
6200.00000000502,9.31333349939695,1.00000000219685,0.592565034869926
6300.00000000539,9.17927242465292,1.00000000167335,0.565871298873139
6400.00000000575,9.08225087094146,1.00000000118386,0.489211964345948
6500.00000000612,9.08005064792447,1.00000000102366,0.428113992591536
6600.00000000648,9.1917111540008,1.00000000132629,0.431057576167721
6700.00000000684,9.36192191256211,1.00000000165169,0.4678947755775
6800.00000000721,9.51822577448937,1.00000000198709,0.509567660418621
6900.00000000757,9.64359805389721,1.00000000174056,0.535703105455373
7000.00000000793,9.74415788476121,1.0000000017717,0.56762743092941
7100.0000000083,9.81814253682354,1.00000000177813,0.577272779925735
7200.00000000866,9.86884673726293,1.00000000186064,0.59901509430596
7300.00000000903,9.89015254512868,1.00000000183516,0.60183030147758
7400.00000000939,9.8807199335082,1.00000000190303,0.602048980118453
7500.00000000975,9.85800470051428,1.00000000172178,0.585944626681737
7600.00000001012,9.83256638102538,1.00000000173921,0.586775589510686
7700.00000001048,9.81118100777624,1.00000000170442,0.568045204582913
7800.00000001084,9.78225499234151,1.00000000191048,0.559948574856641
7900.00000001121,9.74409988547272,1.00000000180261,0.584789814962903
8000.00000001157,9.70584720809559,1.00000000164619,0.581780202274333
8100.00000001194,9.67090698957116,1.00000000188064,0.589526755976594
8200.0000000123,9.63244647994467,1.00000000165934,0.59752838352229
8300.00000001266,9.5908437359833,1.00000000181759,0.585610662002876
8400.00000001303,9.54425964207324,1.00000000178679,0.579321253061379
8500.00000001339,9.49074617618621,1.00000000194137,0.588077654096029
8600.00000001376,9.42386863920794,1.00000000197279,0.620735244765174
8700.00000001412,9.34961560810527,1.00000000171237,0.614311662656803
8800.00000001448,9.27686603667678,1.0000000014973,0.6120559735262
8900.00000001485,9.20183142421661,1.00000000173199,0.614677899500788
9000.00000001521,9.12396585076373,1.00000000198779,0.610094130938089
9100.00000001557,9.04391438084578,1.00000000212969,0.620893219716946
9200.00000001594,8.96510449210995,1.00000000221905,0.610830547337713
9300.0000000163,8.88685285098438,1.00000000233537,0.599854040097363
9400.00000001667,8.80099702068092,1.00000000196535,0.587057098024693
9500.00000001703,8.71253023237938,1.00000000153408,0.548595145660761
9600.00000001739,8.64482876680364,1.00000000122243,0.499616494116048
9700.00000001776,8.64003430125823,1.00000000102963,0.456055979321354
9800.00000001812,8.72826169948196,1.0000000011887,0.440085941340905
9900.00000001848,8.91339573227567,1.0000000015488,0.448215116953518
10000.0000000188,9.15724509617955,1.00000000148243,0.46712897602867
10100.0000000192,9.41652917444724,1.00000000206665,0.48954332018538
10200.0000000196,9.6595311126568,1.00000000186127,0.517180401539173
10300.0000000199,9.88112273057804,1.00000000208503,0.541353435764867
10400.0000000203,10.0768471939126,1.00000000188065,0.549172782596806
10500.0000000207,10.256495216459,1.00000000193017,0.569407657371484
10600.000000021,10.4155047026586,1.0000000019118,0.591836538412722
10700.0000000214,10.5528587342759,1.00000000194573,0.60400413108722
10800.0000000218,10.6626951791979,1.0000000020174,0.601270724327354
10900.0000000221,10.7513914192165,1.00000000182545,0.618011325655341
11000.0000000225,10.8123091038258,1.00000000198684,0.64142359669262
11100.0000000229,10.8563543556568,1.00000000205388,0.63709523703473
11200.0000000232,10.8860960215606,1.00000000179945,0.635016902336056
11300.0000000236,10.9084980523122,1.00000000190586,0.62828283747138
11400.0000000239,10.9190063599671,1.00000000194586,0.639758536028268
11500.0000000243,10.921309254598,1.00000000186046,0.633261233219299
11600.0000000247,10.9167623391186,1.00000000204805,0.631076719368885
11700.000000025,10.8985415330324,1.00000000190293,0.625914724564933
11800.0000000254,10.8805089357134,1.00000000190799,0.621209927689119
11900.0000000258,10.8537195976572,1.00000000194981,0.632777994917006
12000.0000000261,10.818836170265,1.00000000197893,0.627703009724319
12100.0000000265,10.7801174246827,1.00000000203524,0.638097682300917
12200.0000000269,10.735329675388,1.00000000194076,0.646793336770827
12300.0000000272,10.6854633830528,1.00000000206007,0.649276180551037
12400.0000000276,10.6356329033696,1.00000000187062,0.637875034290266
12500.0000000279,10.592428489463,1.00000000183763,0.621697239439906
12600.0000000283,10.5600211813184,1.0000000017266,0.607408783869015
12700.0000000287,10.5363316102128,1.00000000183916,0.60871415135268
12800.000000029,10.5177410657915,1.00000000183722,0.611419714018101
12900.0000000294,10.5021621715377,1.00000000188414,0.609896817599207
13000.0000000298,10.4874615659537,1.00000000207083,0.612676224658019
13100.0000000301,10.4671806449997,1.00000000208317,0.622885749724833
13200.0000000305,10.4426457329763,1.00000000213485,0.620016913517015
13300.0000000309,10.4189601676354,1.00000000194256,0.606245973511192
13400.0000000312,10.3960382510566,1.00000000187996,0.61874187448884
13500.0000000316,10.3765054514499,1.00000000189843,0.613600155647167
13600.0000000319,10.3585063155021,1.00000000183588,0.597392954986243
13700.0000000323,10.338287156563,1.00000000218065,0.6064281351969
13800.0000000327,10.3119265544226,1.00000000190349,0.61247395562046
13900.000000033,10.2880261586271,1.00000000182829,0.610737523905013
14000.0000000334,10.2655950981251,1.00000000205929,0.629676258797011
14100.0000000338,10.2443640273297,1.0000000018201,0.623194595511624
14200.0000000341,10.2275072423827,1.0000000018986,0.619127461461339
14300.0000000345,10.2075471343673,1.00000000208521,0.61364061229849
14400.0000000349,10.1854933985295,1.00000000183329,0.6362074324109
14500.0000000352,10.1673074150157,1.00000000175521,0.63107979013197
14600.0000000356,10.1461510244426,1.00000000222131,0.641624070883094
14700.0000000359,10.1195050717455,1.00000000178401,0.634983393796309
14800.0000000363,10.0986725885748,1.00000000172509,0.618769190490993
14900.0000000367,10.0787125502379,1.00000000209396,0.646813697009163
15000.000000037,10.0508630551207,1.00000000197138,0.640528485362985
15100.0000000374,10.0214850706598,1.00000000195662,0.634139759676415
15200.0000000378,9.98770817523637,1.00000000192478,0.633105235828769
15300.0000000381,9.95482248806645,1.00000000190316,0.653490496589516
15400.0000000385,9.92527263237877,1.00000000188268,0.656826607725231
15500.0000000389,9.89511503409967,1.00000000215066,0.648369530041589
15600.0000000392,9.8589514887796,1.00000000205028,0.640797199672263
15700.0000000396,9.82407740426322,1.00000000185597,0.631371232484777
15800.0000000399,9.79251370677077,1.00000000198715,0.646082059696814
15900.0000000403,9.75497339521916,1.00000000209594,0.643049047880724
16000.0000000407,9.71624712155887,1.00000000195944,0.632130083889401
16100.000000041,9.68052313256361,1.00000000191769,0.642113782203755
16200.0000000414,9.64513289131451,1.00000000204183,0.634053129628745
16300.0000000418,9.60973029772224,1.00000000196941,0.654608609945282
16400.0000000418,9.57172306016067,1.00000000206291,0.660738223572205
16500.0000000404,9.53040581305204,1.0000000022341,0.657590729671581
16600.0000000389,9.48891843014864,1.00000000200666,0.628647802478245
16700.0000000375,9.44538094974249,1.00000000221966,0.651946467801123
16800.000000036,9.39765259104577,1.0000000020692,0.659198997408941
16900.0000000346,9.34972965620492,1.0000000019083,0.64703575040537
17000.0000000331,9.30249161781479,1.00000000207014,0.658557857473816
17100.0000000317,9.25194709366729,1.00000000228614,0.665836385761158
17200.0000000302,9.1996411263122,1.00000000203428,0.656427574304552
17300.0000000287,9.14761494848265,1.0000000021486,0.638068247433193
17400.0000000273,9.0959547390931,1.00000000203693,0.656676843219114
17500.0000000258,9.04472838824607,1.00000000207982,0.661456380022551
17600.0000000244,8.99461761579359,1.00000000182101,0.651794032963405
17700.0000000229,8.94701300406638,1.00000000200494,0.652574431717415
17800.0000000215,8.90217987517569,1.00000000206468,0.656874742316788
17900.00000002,8.86278584481218,1.00000000216354,0.662391592225022
18000.0000000186,8.83023966543261,1.00000000209919,0.660922692661563
18100.0000000171,8.80525230731385,1.00000000221396,0.675692609829266
18200.0000000156,8.79314901224727,1.0000000025405,0.675292638267776
18300.0000000142,8.78751401215718,1.00000000254016,0.681013500195321
18400.0000000127,8.79950848769506,1.00000000192858,0.674041145322159
18500.0000000113,8.80992175098435,1.00000000289545,0.674160041516429
18600.0000000098,8.83418668423143,1.00000000306815,0.654420835120978
18700.0000000084,8.84351160052919,1.00000000246733,0.635996341689248
18800.0000000069,8.85094763476204,1.0000000024245,0.615306118330646
18900.0000000055,8.83598140971934,1.00000000227973,0.598326682967288
19000.000000004,8.806531249846,1.00000000197991,0.587782889977941
19100.0000000026,8.76486323804113,1.00000000178267,0.557374287488596
19200.0000000011,8.72386240604061,1.00000000159866,0.530630112942032
19299.9999999996,8.70602472937065,1.00000000137162,0.507272560441888
19399.9999999982,8.73139119328937,1.00000000152919,0.488080829720434
19499.9999999967,8.82326527559713,1.00000000144022,0.47652067471975
19599.9999999953,8.98916987318473,1.00000000148051,0.472601897375528
19699.9999999938,9.24690481369479,1.00000000156647,0.474676258147378
19799.9999999924,9.56787409966453,1.00000000171387,0.476588239044821
19899.9999999909,9.97256617540085,1.00000000193955,0.48944294470123
19999.9999999895,10.3901607575671,1.0000000021638,0.49495052455069
20099.999999988,10.8536933253372,1.00000000221716,0.508872141685043
20199.9999999865,11.2874950266748,1.00000000242228,0.519858925550075
20299.9999999851,11.7342520254279,1.00000000234878,0.525269528561202
20399.9999999836,12.1523902078114,1.00000000234964,0.534030922192986
20499.9999999822,12.5625930832767,1.00000000233209,0.536010990401307
20599.9999999807,12.9621187179083,1.00000000234618,0.548470213871225
20699.9999999793,13.3354736705141,1.00000000220481,0.555030760745226
20799.9999999778,13.7089035530897,1.00000000251334,0.567630236561861
20899.9999999764,14.0538956569187,1.00000000220617,0.569952131927492
20999.9999999749,14.4090361526212,1.00000000236297,0.574350309661617
21099.9999999734,14.7491140103812,1.0000000022755,0.589708285256755
21199.999999972,15.0835532089623,1.00000000223855,0.584849458879257
21299.9999999705,15.4170404147087,1.00000000246274,0.61300704545719
21399.9999999691,15.7152939946603,1.00000000249346,0.613834490640308
21499.9999999676,16.0139107010318,1.00000000226088,0.628842531037765
21599.9999999662,16.2874898402116,1.00000000255136,0.639411478165233
21699.9999999647,16.5553989565483,1.00000000225051,0.635076139720814
21799.9999999633,16.8027542044177,1.00000000253183,0.65552550067915
21899.9999999618,17.0369709030124,1.00000000270828,0.664954002529181
21999.9999999603,17.249590126366,1.00000000264339,0.667134848912967
22099.9999999589,17.441618555049,1.00000000246942,0.66663716994887
22199.9999999574,17.6331929906997,1.00000000224796,0.667181765227718
22299.999999956,17.815170768106,1.00000000235171,0.676353520329646
22399.9999999545,17.9965027505448,1.00000000250815,0.671299813810317
22499.9999999531,18.1572975778393,1.00000000258283,0.676650646059658
22599.9999999516,18.310094780636,1.00000000296727,0.671679544104668
22699.9999999502,18.4590805532299,1.00000000237778,0.666698904131183
22799.9999999487,18.5995079774301,1.00000000262279,0.681652735137125
22899.9999999473,18.7303460430413,1.00000000267297,0.68322749227655
22999.9999999458,18.8507041365829,1.00000000227112,0.678228945355857
23099.9999999443,18.9792892136712,1.00000000267692,0.665364057118473
23199.9999999429,19.1002404983343,1.00000000265447,0.65825109975457
23299.9999999414,19.2138281372298,1.00000000277645,0.656791956716931
23399.99999994,19.3122915733783,1.00000000266809,0.674301923223459
23499.9999999385,19.4117764238903,1.0000000022963,0.663842481336139
23599.9999999371,19.5155451873416,1.00000000264984,0.678856838408676
23699.9999999356,19.6187643727127,1.00000000268413,0.664613994518037
23799.9999999342,19.7263171539913,1.00000000287278,0.675723522273464
23899.9999999327,19.8270715539986,1.0000000026057,0.680559622069016
23999.9999999312,19.9176325048581,1.00000000282766,0.675767879422212
24099.9999999298,19.9969116140084,1.00000000242026,0.679077181402077
24199.9999999283,20.0744498038158,1.00000000273694,0.681994108785754
24299.9999999269,20.1614803108819,1.00000000250325,0.657467199301874
24399.9999999254,20.2510181116172,1.00000000265032,0.655180429713374
24499.999999924,20.3423253222071,1.00000000251828,0.667028197081881
24599.9999999225,20.4193926901794,1.00000000273194,0.668253377796945
24699.9999999211,20.4902524346873,1.00000000292516,0.658602361101643
24799.9999999196,20.5689047862274,1.00000000255029,0.656844428750297
24899.9999999181,20.6591196568035,1.00000000248452,0.668317966509151
24999.9999999167,20.7486970105771,1.00000000264456,0.687390576934399
25099.9999999152,20.8269224748886,1.00000000263515,0.668013337895878
25199.9999999138,20.907884004346,1.00000000245529,0.668348745119013
25299.9999999123,20.9974641265998,1.00000000252773,0.670695530606701
25399.9999999109,21.0937222431446,1.00000000271152,0.682074167646537
25499.9999999094,21.1849628629891,1.00000000248185,0.67494031859499
25599.999999908,21.2799448022985,1.00000000273007,0.656369828778811
25699.9999999065,21.3970494312023,1.00000000260972,0.645064600927991
25799.9999999051,21.5170973681331,1.00000000287027,0.661408218868328
25899.9999999036,21.6232566747827,1.00000000306179,0.670050475419692
25999.9999999021,21.7192502202151,1.00000000287056,0.658012236078807
26099.9999999007,21.8137610525877,1.00000000277822,0.658181667418233
26199.9999998992,21.9156922608821,1.00000000281019,0.649512940256158
26299.9999998978,22.0213320573584,1.00000000267847,0.67637607832144
26399.9999998963,22.120450408842,1.00000000310278,0.683625917903992
26499.9999998949,22.2067691814249,1.0000000030223,0.670949143476871
26599.9999998934,22.3004811438244,1.00000000279966,0.655888016668251
26699.999999892,22.4040908409826,1.00000000258019,0.660647407286898
26799.9999998905,22.5094186648998,1.00000000293902,0.660625689967371
26899.999999889,22.6039465845912,1.00000000297991,0.661439085767116
26999.9999998876,22.6962039720733,1.00000000274201,0.657770971973239
27099.9999998861,22.7966392251784,1.00000000284536,0.658857161380035
27199.9999998847,22.9021438510591,1.00000000296126,0.65530555161062
27299.9999998832,23.0136179255882,1.00000000275168,0.654025590378897
27399.9999998818,23.1241988709504,1.00000000330487,0.663380911653447
27499.9999998803,23.2263150413415,1.00000000308015,0.664765006899216
27599.9999998789,23.3133896498318,1.00000000280967,0.664707667855246
27699.9999998774,23.3935905239902,1.00000000315673,0.674867350021368
27799.9999998759,23.4733521027271,1.00000000258756,0.675187024566702
27899.9999998745,23.5575094785806,1.00000000277402,0.678398851321727
27999.999999873,23.6458230494149,1.00000000302732,0.671208827039705
28099.9999998716,23.7407435341266,1.00000000291657,0.657695631721461
28199.9999998701,23.8533260173437,1.00000000275234,0.661804657922304
28299.9999998687,23.9914621521592,1.00000000271562,0.640426622969571
28399.9999998672,24.1484375522652,1.00000000287536,0.652343277429771
28499.9999998658,24.312540180792,1.00000000310047,0.663157995724353
28599.9999998643,24.4790389272562,1.00000000285346,0.652805835619893
28699.9999998629,24.6438355163317,1.0000000030204,0.668087730763811
28799.9999998614,24.8107088711704,1.0000000028075,0.668230193440502
28899.9999998599,24.9800651352169,1.00000000323852,0.667867843965237
28999.9999998585,25.1518485564275,1.00000000325441,0.668089331322621
