Time,AGPnorm,Energy,Entropy
0,0,1,-7.55093390184956e-17
99.9999999999986,0.000370367018518893,1.00000000000006,0.00147899943627139
199.999999999993,0.00252269993481246,0.999999999999162,0.0044490488553169
300,0.00533781290439199,0.999999999998881,0.00828098511236744
400.000000000022,0.00827414378835847,0.999999999999715,0.0130762744722538
500.000000000045,0.0116832719345147,1.00000000000007,0.0189567842098712
600.000000000068,0.0163614323923758,0.999999999999514,0.0257397592498792
700.000000000091,0.021789435551291,0.999999999998901,0.0330579901475946
800.000000000113,0.0272702429732684,0.999999999999409,0.0409622700801644
900.000000000136,0.0334710939495651,1.00000000000006,0.0497028038122132
1000.00000000016,0.0401412889707078,0.999999999999617,0.059206370237074
1100.0000000001,0.0476630549651801,0.999999999999198,0.0694062260176376
1200,0.0548142161279203,0.999999999999125,0.0802227203415785
1299.99999999991,0.0629360431887213,0.999999999999969,0.0919043895655058
1399.99999999982,0.0707300834152634,0.999999999999762,0.104626719865959
1499.99999999973,0.0792233045514786,0.999999999999447,0.118346136024671
1599.99999999964,0.0877487002224524,0.999999999999281,0.133267287394581
1699.99999999955,0.0961281488072035,1.00000000000033,0.149533493936952
1799.99999999946,0.104618303546162,1.00000000000185,0.167789858945736
1899.99999999937,0.112580520834534,1.00000000000408,0.188111292208004
1999.99999999928,0.122272702741592,1.00000000001141,0.210816205025512
2099.99999999919,0.134120289569238,1.00000000002664,0.235478323347045
2199.99999999909,0.148938777007627,1.0000000000492,0.261821913910962
2299.999999999,0.168556877614401,1.00000000007788,0.288924571233416
2399.99999999891,0.213072022555291,1.00000000011795,0.315378982274775
2499.99999999882,0.307980857120952,1.00000000017398,0.340563258200233
2599.99999999873,0.470910428212018,1.00000000021146,0.364078065369467
2699.99999999864,0.729978817878686,1.00000000024572,0.385872005188595
2799.99999999855,1.14282582468389,1.00000000029811,0.405412734976707
2899.99999999846,1.77425111872923,1.00000000034938,0.423064959988587
2999.99999999837,2.66184734997952,1.0000000003964,0.43878587492314
3099.99999999828,3.83880380994714,1.00000000042473,0.453194483256354
3199.99999999819,5.36395213125407,1.00000000046164,0.466029033408657
3299.99999999809,7.29081367936125,1.00000000047358,0.477284578707669
3399.999999998,9.64365520000627,1.00000000050209,0.487158898257412
3499.99999999791,12.4248948383829,1.00000000053199,0.496117029848594
3599.99999999782,15.6544341426475,1.0000000005348,0.504133600123195
3699.99999999773,19.3491286820032,1.00000000056924,0.510726002870055
3799.99999999764,23.4973157292611,1.00000000054848,0.516354805600713
3899.99999999755,28.0691324962654,1.00000000058466,0.521627970116231
3999.99999999746,33.0440254384756,1.00000000059147,0.526407241834866
4099.99999999738,38.4093998689803,1.00000000059818,0.529591811066011
4199.99999999775,44.1249667033933,1.00000000057003,0.532372815103839
4299.99999999811,50.1436165548602,1.0000000005806,0.53562238817969
4399.99999999848,56.4220445232689,1.00000000055638,0.537481180122411
4499.99999999884,62.9337920525487,1.00000000055684,0.538509981148526
4599.9999999992,69.6342590279583,1.00000000055708,0.539812882912489
4699.99999999957,76.4646900423615,1.0000000005434,0.540872366292771
4799.99999999993,83.386378821297,1.00000000055295,0.540908759453421
4900.00000000029,90.3660451338532,1.00000000054384,0.541083849858005
5000.00000000066,97.3679194587818,1.00000000053754,0.541274777569508
5100.00000000102,104.341220276528,1.00000000053858,0.540277897673968
5200.00000000139,111.249780292029,1.0000000005058,0.540279496139775
5300.00000000175,118.06793740531,1.00000000051501,0.540204421964788
5400.00000000211,124.770927473247,1.00000000052041,0.538611643721922
5500.00000000248,131.325632915605,1.00000000050125,0.537613551867699
5600.00000000284,137.698711934151,1.00000000048184,0.537319661842662
5700.00000000321,143.875474812912,1.00000000049291,0.535826589972251
5800.00000000357,149.84155410768,1.00000000047417,0.533640456563349
5900.00000000393,155.578140150881,1.00000000045723,0.53260749750339
6000.0000000043,161.061447717913,1.00000000045027,0.531846501179708
6100.00000000466,166.280100681117,1.00000000045266,0.529960938384886
6200.00000000502,171.229690416544,1.00000000044531,0.527867980875368
6300.00000000539,175.903587721984,1.00000000042294,0.527033487662542
6400.00000000575,180.293348986072,1.00000000039609,0.526690705492699
6500.00000000612,184.388281125077,1.00000000041828,0.524297712836532
6600.00000000648,188.189707330464,1.00000000040831,0.521393084008536
6700.00000000684,191.702145238323,1.00000000037903,0.520955570745688
6800.00000000721,194.930420547818,1.00000000037684,0.52253833896233
6900.00000000757,197.872212813528,1.00000000038738,0.521060906262816
7000.00000000793,200.524712009034,1.00000000034524,0.515611760124776
7100.0000000083,202.892890002193,1.00000000035501,0.511420142366363
7200.00000000866,204.986183636092,1.00000000034378,0.515472349332658
7300.00000000903,206.824877138283,1.0000000003266,0.523274842546789
7400.00000000939,208.423289893975,1.00000000034925,0.522266239514943
7500.00000000975,209.776050489317,1.00000000033734,0.510141758582306
7600.00000001012,210.866973506229,1.0000000003029,0.497708006172119
7700.00000001048,211.69868867197,1.00000000030763,0.50252719628814
7800.00000001084,212.311783448109,1.00000000034153,0.521605443463181
7900.00000001121,212.758399092226,1.00000000035735,0.533522551787792
8000.00000001157,213.058131152477,1.00000000034516,0.524806499469803
8100.00000001194,213.177050926227,1.00000000028291,0.497392169038404
8200.0000000123,213.066604042135,1.00000000023403,0.475356868094956
8300.00000001266,212.727904857152,1.00000000024276,0.488104138857098
8400.00000001303,212.232610144294,1.00000000033462,0.521387631624136
8500.00000001339,211.667218911119,1.00000000037749,0.544034918121328
8600.00000001376,211.069312870253,1.00000000038745,0.542232804270647
8700.00000001412,210.405578200047,1.00000000031907,0.510869995293291
8800.00000001448,209.598541655281,1.00000000022023,0.463700996122353
8900.00000001485,208.600041081805,1.00000000017576,0.443266955332206
9000.00000001521,207.442833402752,1.00000000024081,0.474888448115583
9100.00000001557,206.215508030001,1.00000000035859,0.521891380997835
9200.00000001594,205.000385853733,1.00000000043921,0.55059719031006
9300.0000000163,203.833029853423,1.00000000044315,0.552715433932479
9400.00000001667,202.690640661953,1.00000000038447,0.525856771369093
9500.00000001703,201.503456813429,1.00000000026596,0.46906449214542
9600.00000001739,200.198803183036,1.0000000001633,0.410149921644952
9700.00000001776,198.756261320923,1.00000000014682,0.404267305471133
9800.00000001812,197.224305452354,1.0000000002458,0.457467199539854
9900.00000001848,195.678762173433,1.00000000036875,0.514318447450913
10000.0000000188,194.179754703484,1.00000000047193,0.546324972386871
10100.0000000192,192.755710708918,1.00000000047218,0.555604979118131
10200.0000000196,191.399357541549,1.00000000044632,0.542566251191655
10300.0000000199,190.069893244858,1.00000000036834,0.499153399548823
10400.0000000203,188.70771835161,1.00000000023974,0.428865023130825
10500.0000000207,187.268494164745,1.00000000013677,0.365505241616906
10600.000000021,185.74813438575,1.00000000013736,0.35981456179092
10700.0000000214,184.180998551998,1.0000000002268,0.414758375094064
10800.0000000218,182.612744780811,1.00000000036877,0.481646158488398
10900.0000000221,181.079047485887,1.00000000044193,0.525098646767545
11000.0000000225,179.602296426671,1.00000000049016,0.543256935868467
11100.0000000229,178.191559576389,1.00000000049435,0.547388598597317
11200.0000000232,176.839718845197,1.00000000044879,0.536743163337211
11300.0000000236,175.522419430109,1.00000000037581,0.504504522760648
11400.0000000239,174.206001349006,1.00000000029648,0.446651422751883
11500.0000000243,172.861916244837,1.00000000019794,0.378746191466855
11600.0000000247,171.480571434829,1.00000000013881,0.337186777842012
11700.000000025,170.074384232538,1.00000000014977,0.344895112754559
11800.0000000254,168.665176596327,1.00000000022988,0.393486645197245
11900.0000000258,167.268824119829,1.00000000032163,0.457094248512081
12000.0000000261,165.894246417933,1.0000000004019,0.501755453445381
12100.0000000265,164.548795297155,1.00000000045274,0.521394475213089
12200.0000000269,163.239313547252,1.00000000045478,0.528050506040218
12300.0000000272,161.969092148743,1.00000000045752,0.532877784003978
12400.0000000276,160.735360311294,1.00000000043058,0.531806305162789
12500.0000000279,159.528295748902,1.00000000038275,0.512610138150013
12600.0000000283,158.334219387368,1.00000000031069,0.473577203171358
12700.0000000287,157.142038075041,1.00000000026107,0.424696747052811
12800.000000029,155.948887335535,1.00000000021523,0.378982170154428
12900.0000000294,154.760498680401,1.00000000018374,0.351156959434835
13000.0000000298,153.586392898942,1.00000000018682,0.354840022973374
13100.0000000301,152.434107422974,1.00000000021719,0.382271721651445
13200.0000000305,151.305170141289,1.00000000028132,0.420820170498101
13300.0000000309,150.195179787065,1.00000000035166,0.465933658447915
13400.0000000312,149.098936334469,1.00000000036495,0.499021146781358
13500.0000000316,148.014234318902,1.0000000003676,0.507855533761903
13600.0000000319,146.940871269269,1.00000000038542,0.503209526046477
13700.0000000323,145.879022639149,1.00000000042362,0.504126222535161
13800.0000000327,144.829773376279,1.00000000045737,0.518265750956588
13900.000000033,143.795240991405,1.00000000044496,0.533614897729779
14000.0000000334,142.776691370415,1.00000000040325,0.531893611899637
14100.0000000338,141.773088913034,1.00000000033721,0.507042761791959
14200.0000000341,140.783266761891,1.00000000028194,0.464726576368505
14300.0000000345,139.80973078124,1.00000000020731,0.41953835496378
14400.0000000349,138.859195497757,1.00000000019025,0.384125942842321
14500.0000000352,137.938784100531,1.00000000020561,0.367414066278896
14600.0000000356,137.052620309796,1.00000000024174,0.368190137670868
14700.0000000359,136.201166606656,1.00000000026964,0.387659672210604
14800.0000000363,135.380640349581,1.00000000028943,0.416808507194769
14900.0000000367,134.582852038556,1.00000000030641,0.441521056771924
15000.000000037,133.7982147062,1.0000000003559,0.465225590782131
15100.0000000374,133.019190542858,1.00000000036725,0.487873586761967
15200.0000000378,132.243153024448,1.00000000034275,0.503467421745072
15300.0000000381,131.473368543913,1.0000000003037,0.499760577194121
15400.0000000385,130.713592849262,1.00000000028554,0.484747277098444
15500.0000000389,129.962414360928,1.00000000029987,0.47595714867147
15600.0000000392,129.212273887913,1.00000000037527,0.482612508876727
15700.0000000396,128.455514979998,1.00000000044752,0.501904770896789
15800.0000000399,127.690338457066,1.00000000044897,0.523631469744884
15900.0000000403,126.920516830216,1.00000000046593,0.537221722220546
16000.0000000407,126.151937973491,1.0000000004337,0.534680969322526
16100.000000041,125.390442377233,1.00000000035385,0.51467471691498
16200.0000000414,124.642751096165,1.00000000030088,0.480209135288046
16300.0000000418,123.917563917764,1.0000000002254,0.439433244032051
16400.0000000418,123.226324604578,1.00000000017819,0.403151356979141
16500.0000000404,122.579157175513,1.00000000016718,0.377556711595458
16600.0000000389,121.979632253786,1.00000000020307,0.366499206902896
16700.0000000375,121.422847288529,1.00000000024656,0.374038807367811
16800.000000036,120.899349204827,1.00000000029334,0.391733065681737
16900.0000000346,120.400054504186,1.00000000032769,0.415257992337416
17000.0000000331,119.917711878224,1.00000000032997,0.439044168387249
17100.0000000317,119.445010894909,1.00000000035259,0.459956486620811
17200.0000000302,118.974471616004,1.00000000034666,0.474087606375772
17300.0000000287,118.500413725724,1.00000000036744,0.485854704664188
17400.0000000273,118.019588430786,1.00000000036727,0.495904051706786
17500.0000000258,117.532678483115,1.00000000035317,0.503620398665679
17600.0000000244,117.044490130903,1.00000000031957,0.506116128119349
17700.0000000229,116.56184863634,1.00000000027485,0.501563458253275
17800.0000000215,116.089616348338,1.00000000027073,0.493707707445243
17900.00000002,115.627702368789,1.00000000028398,0.485761711697581
18000.0000000186,115.169095838599,1.00000000032061,0.481062479612705
18100.0000000171,114.70452357435,1.00000000037567,0.480856460711393
18200.0000000156,114.226226120135,1.00000000041152,0.488674217653689
18300.0000000142,113.729823384701,1.00000000042627,0.49984915011806
18400.0000000127,113.215332406293,1.00000000044624,0.514137045489395
18500.0000000113,112.686302003733,1.00000000044949,0.52947586053875
18600.0000000098,112.148999721157,1.00000000041351,0.53803539241077
18700.0000000084,111.610687814309,1.00000000038139,0.532988734138254
18800.0000000069,111.079448589307,1.00000000034044,0.514853066199349
18900.0000000055,110.564264548665,1.00000000028522,0.486133429313304
19000.000000004,110.075175091307,1.00000000023409,0.453328499219914
19100.0000000026,109.62167992916,1.00000000020319,0.42596801697112
19200.0000000011,109.211263768168,1.00000000020174,0.408648967904721
19299.9999999996,108.848794094469,1.00000000021282,0.396183571058699
19399.9999999982,108.535353217605,1.00000000021556,0.389059080704466
19499.9999999967,108.267474324994,1.00000000024791,0.387644005576609
19599.9999999953,108.035898190451,1.00000000028091,0.395585109091642
19699.9999999938,107.827344477927,1.0000000003259,0.415688697135939
19799.9999999924,107.628358765275,1.0000000003268,0.440271668664301
19899.9999999909,107.430560129841,1.00000000035795,0.459470424733264
19999.9999999895,107.232325407655,1.00000000034362,0.471205012133474
20099.999999988,107.037041459915,1.0000000003378,0.477530147857085
20199.9999999865,106.849068153197,1.00000000029724,0.479042236907174
20299.9999999851,106.670077005854,1.00000000028822,0.479216301716765
20399.9999999836,106.496501917608,1.00000000030332,0.483886399388084
20499.9999999822,106.319914492336,1.00000000032876,0.494308356075275
20599.9999999807,106.130010672523,1.00000000036157,0.507130997787092
20699.9999999793,105.918878851945,1.00000000038901,0.518191206527761
20799.9999999778,105.683422423388,1.00000000037963,0.525738533598049
20899.9999999764,105.426587837828,1.00000000037478,0.530307203818394
20999.9999999749,105.155485251472,1.0000000003539,0.531748242950345
21099.9999999734,104.87850574449,1.00000000031288,0.529030378598299
21199.999999972,104.602569924683,1.00000000028806,0.521212634487794
21299.9999999705,104.331551962349,1.00000000027822,0.510642487554387
21399.9999999691,104.066020291957,1.00000000027394,0.502948244343916
21499.9999999676,103.804816394486,1.00000000028851,0.498392807695986
21599.9999999662,103.545120644157,1.00000000029759,0.492173719023403
21699.9999999647,103.282835852283,1.00000000032001,0.488025253230835
21799.9999999633,103.012928164567,1.00000000035618,0.490520137449053
21899.9999999618,102.729764301617,1.00000000040168,0.498173362076409
21999.9999999603,102.428092063684,1.00000000039848,0.510371658883859
22099.9999999589,102.105540408702,1.00000000043917,0.524736023853806
22199.9999999574,101.764543419388,1.00000000044114,0.537548619106394
22299.999999956,101.410408018646,1.00000000043732,0.542934642803836
22399.9999999545,101.049855887398,1.00000000040002,0.541005857376833
22499.9999999531,100.690094294085,1.00000000035367,0.533122432157908
22599.9999999516,100.339237169178,1.00000000032173,0.515465744570241
22699.9999999502,100.005926430027,1.00000000028264,0.490542019762295
22799.9999999487,99.6989800774066,1.00000000023649,0.467522206889384
22899.9999999473,99.4273423191358,1.00000000020021,0.445690582123644
22999.9999999458,99.1983082685927,1.00000000018936,0.426747019920979
23099.9999999443,99.0163381771469,1.00000000020559,0.415388910526459
23199.9999999429,98.8819915872721,1.00000000022157,0.406945656934927
23299.9999999414,98.7914145322211,1.00000000024251,0.400393778835109
23399.99999994,98.7377754737881,1.00000000027059,0.402137993247192
23499.9999999385,98.7139935740254,1.00000000028631,0.407602770392403
23599.9999999371,98.7122297074524,1.00000000030312,0.413910097547111
23699.9999999356,98.7251991892324,1.00000000031587,0.421562071964725
23799.9999999342,98.746814284305,1.000000000311,0.430894269677615
23899.9999999327,98.7718827758282,1.00000000033425,0.444128513738185
23999.9999999312,98.7953436805106,1.00000000036005,0.459606935576659
24099.9999999298,98.814111722883,1.00000000033966,0.471560942592758
24199.9999999283,98.8266744601451,1.0000000003368,0.479627399914136
24299.9999999269,98.8327092420975,1.00000000034082,0.48890645499653
24399.9999999254,98.8329830296102,1.00000000033547,0.500067162260365
24499.999999924,98.8291478781088,1.00000000032917,0.510766120285265
24599.9999999225,98.8240036889268,1.00000000031327,0.516002626684018
24699.9999999211,98.8200775962054,1.00000000030352,0.517063527198473
24799.9999999196,98.8188307797692,1.00000000029823,0.517919462065459
24899.9999999181,98.8184552292414,1.00000000030709,0.519190562355661
24999.9999999167,98.8149661724082,1.00000000031615,0.522003955528296
25099.9999999152,98.8027476786174,1.00000000033701,0.52530720164451
25199.9999999138,98.7759998085151,1.00000000034533,0.526804460503711
25299.9999999123,98.7311588042755,1.00000000035152,0.527248038939789
25399.9999999109,98.6671415158662,1.00000000035142,0.525751899305173
25499.9999999094,98.5841141661534,1.00000000035108,0.522262724033176
25599.999999908,98.4825741032648,1.00000000036144,0.518354483716801
25699.9999999065,98.362419297479,1.00000000036763,0.514941205846774
25799.9999999051,98.2241826813296,1.00000000037485,0.517858356707354
25899.9999999036,98.0702824498523,1.00000000037507,0.527410151979369
25999.9999999021,97.905331965606,1.00000000036214,0.532932036173548
26099.9999999007,97.7349190092154,1.00000000033161,0.531672147054939
26199.9999998992,97.5638751001922,1.00000000030172,0.527010050650018
26299.9999998978,97.3955203135305,1.00000000027898,0.523122685210589
26399.9999998963,97.2316046030879,1.00000000026949,0.521698171242971
26499.9999998949,97.0728340464657,1.00000000027625,0.521874388932324
26599.9999998934,96.9192555015404,1.00000000028068,0.523560233976559
26699.999999892,96.7694532272405,1.00000000028983,0.525863340997544
26799.9999998905,96.6206711151149,1.00000000029309,0.527021167550345
26899.999999889,96.4700111936928,1.00000000030467,0.526443907044316
26999.9999998876,96.3154068317429,1.00000000031336,0.525915037750265
27099.9999998861,96.1551934836995,1.00000000032842,0.52492338325235
27199.9999998847,95.9876037075241,1.0000000003396,0.523347513234423
27299.9999998832,95.8107063054241,1.00000000037045,0.521577958311558
27399.9999998818,95.6225739203257,1.000000000386,0.519503255145407
27499.9999998803,95.4213387993546,1.00000000041208,0.518857841480244
27599.9999998789,95.2055023778103,1.00000000043116,0.522920232457453
27699.9999998774,94.9749622975073,1.00000000044449,0.53043129758627
27799.9999998759,94.7316866781568,1.00000000043599,0.537064353382137
27899.9999998745,94.4792223597867,1.00000000042305,0.540617584069948
27999.999999873,94.2220030161973,1.00000000037329,0.54144376727235
28099.9999998716,93.965104499755,1.00000000034146,0.539058350567085
28199.9999998701,93.7139958111698,1.00000000031824,0.530062804434837
28299.9999998687,93.4744288832375,1.00000000029358,0.514851901721749
28399.9999998672,93.2524013814306,1.00000000025239,0.498799262866862
28499.9999998658,93.0543012507507,1.00000000023641,0.481942837937672
28599.9999998643,92.8862049778464,1.00000000021793,0.466698329193429
28699.9999998629,92.7535078850962,1.00000000021451,0.453977503334509
28799.9999998614,92.6597787758398,1.00000000019951,0.440320771729154
28899.9999998599,92.6068722628984,1.00000000020572,0.428241850468284
