Time,AGPnorm,Energy,Entropy
0,0,1,3.81741658371277e-18
99.9999999999986,0.00825447906269335,1.00000000000066,0.0225846831771366
199.999999999993,0.0212505480734469,1.00000000000044,0.0658902402445637
300,0.0424506695343697,1.00000000000127,0.13156687275033
400.000000000022,0.0640092086652404,1.00000000006881,0.22882475592447
500.000000000045,0.0922529064847692,1.00000000075522,0.363747999450231
600.000000000068,0.361615339677296,1.00000000192438,0.474904677977836
700.000000000091,1.21259799078969,1.00000000279336,0.539076420767741
800.000000000113,2.87961018172329,1.00000000311362,0.571533389582918
900.000000000136,5.25791953965296,1.00000000300719,0.583571562915451
1000.00000000016,7.9679792191621,1.00000000286644,0.58513464406905
1100.0000000001,10.7284697911668,1.00000000272231,0.57976417570161
1200,13.1917521743242,1.00000000241801,0.570153236974434
1299.99999999991,15.2241540942142,1.00000000238647,0.562307579859578
1399.99999999982,16.7286625469944,1.00000000218412,0.552191425353358
1499.99999999973,17.7082688395609,1.00000000205948,0.55454738696635
1599.99999999964,18.198432816278,1.00000000194234,0.551811206322816
1699.99999999955,18.326779787,1.00000000155162,0.51013718067362
1799.99999999946,18.1730961013846,1.00000000225258,0.579226936587059
1899.99999999937,17.8154818433734,1.00000000114986,0.45747303289923
1999.99999999928,17.3573206618371,1.00000000245927,0.58410010281873
2099.99999999919,16.8547308703485,1.00000000098066,0.410972085106134
2199.99999999909,16.2587426359876,1.00000000239811,0.555282117409809
2299.999999999,15.7467053052227,1.00000000194263,0.51795750143289
2399.99999999891,15.1911547581188,1.00000000108995,0.391268150832522
2499.99999999882,14.6251562606679,1.00000000233659,0.546602350181774
2599.99999999873,14.1273389952237,1.00000000201415,0.550555754116999
2699.99999999864,13.6554005595383,1.000000001112,0.384204498176409
2799.99999999855,13.1985759356945,1.00000000174141,0.468461524437819
2899.99999999846,12.751689212413,1.00000000207606,0.530666535084773
2999.99999999837,12.3328511432105,1.00000000238467,0.564825379656188
3099.99999999828,11.9550713686743,1.00000000130811,0.454538845332293
3199.99999999819,11.644823965888,1.00000000140289,0.395603033245664
3299.99999999809,11.3487961420839,1.00000000217556,0.513261315064731
3399.999999998,11.0525965491,1.00000000179363,0.524944670843273
3499.99999999791,10.7673762729993,1.00000000207808,0.526865429853806
3599.99999999782,10.4740906986419,1.00000000254637,0.56745630802265
3699.99999999773,10.2085443045613,1.00000000150825,0.489783272625044
3799.99999999764,10.0280760162349,1.00000000111638,0.401334928243634
3899.99999999755,9.91292702165268,1.00000000181748,0.459379043715883
3999.99999999746,9.78059021692144,1.00000000207505,0.525132242607826
4099.99999999738,9.63749290802569,1.00000000204401,0.54942607106913
4199.99999999775,9.48167040611744,1.00000000181658,0.553597867955622
4299.99999999811,9.32435558927564,1.00000000170827,0.549998867797361
4399.99999999848,9.15858595260853,1.00000000218621,0.539686247542987
4499.99999999884,8.97474751199133,1.00000000268491,0.574772230534154
4599.9999999992,8.79985973056821,1.00000000170693,0.531771534158176
4699.99999999957,8.69664751559993,1.00000000115038,0.427097639911607
4799.99999999993,8.70125454518505,1.00000000144357,0.421642581814521
4900.00000000029,8.73503941586986,1.00000000186203,0.478006890942218
5000.00000000066,8.74403063288752,1.00000000220642,0.533239489693785
5100.00000000102,8.72639933414649,1.00000000191737,0.554614296978009
5200.00000000139,8.69425627977023,1.00000000195395,0.570691577669016
5300.00000000175,8.64880431863628,1.00000000191156,0.570708975802755
5400.00000000211,8.58989258647958,1.00000000182814,0.561004587479538
5500.00000000248,8.51347209457757,1.00000000213398,0.575226884433609
5600.00000000284,8.42729346232792,1.00000000180009,0.578088174619857
5700.00000000321,8.34348628862705,1.00000000177301,0.584753797347781
5800.00000000357,8.25074571704508,1.00000000199148,0.579469183997586
5900.00000000393,8.14479015539806,1.00000000251285,0.585249699119812
6000.0000000043,8.02861279496106,1.00000000248886,0.581445776153575
6100.00000000466,7.90954788318947,1.00000000200904,0.565003598765174
6200.00000000502,7.82388279722609,1.00000000125048,0.492057712217012
6300.00000000539,7.82524712849021,1.00000000123672,0.438087598630292
6400.00000000575,7.92716409862794,1.00000000138589,0.443430664300117
6500.00000000612,8.06471054769109,1.00000000200246,0.485678770226942
6600.00000000648,8.18935042259902,1.00000000204937,0.522581421846433
6700.00000000684,8.29068196549025,1.00000000196728,0.546648629481125
6800.00000000721,8.37278531033381,1.00000000207141,0.576701679585602
6900.00000000757,8.42653295606901,1.0000000021525,0.593217392937649
7000.00000000793,8.4569717883609,1.00000000207941,0.606970218072813
7100.0000000083,8.46509164624439,1.00000000214104,0.61738689331353
7200.00000000866,8.45098867736479,1.00000000210939,0.614314802349902
7300.00000000903,8.42784175646441,1.00000000202469,0.602443565634552
7400.00000000939,8.40293892905115,1.00000000199985,0.59693384857907
7500.00000000975,8.380283153625,1.00000000208311,0.57882064603016
7600.00000001012,8.34851253282411,1.00000000210955,0.577734357145902
7700.00000001048,8.30966306157867,1.000000001988,0.594611267945499
7800.00000001084,8.27581219107833,1.00000000178759,0.595112751213032
7900.00000001121,8.24014907224946,1.0000000021153,0.611341227981073
8000.00000001157,8.20329146972777,1.00000000186947,0.60880826791615
8100.00000001194,8.16114454686346,1.00000000203133,0.602946769245982
8200.0000000123,8.11430707070562,1.0000000019954,0.593200035989329
8300.00000001266,8.05757529016375,1.00000000223458,0.616336085157158
8400.00000001303,7.99266781520322,1.00000000211537,0.62951570366678
8500.00000001339,7.92459278539404,1.00000000187042,0.625435694628532
8600.00000001376,7.85744266146691,1.00000000203968,0.630786217358198
8700.00000001412,7.78772783174843,1.00000000211832,0.628133833867192
8800.00000001448,7.71551918334097,1.00000000235569,0.631972439240303
8900.00000001485,7.64357426829764,1.00000000258056,0.636236194338552
9000.00000001521,7.57165262485789,1.00000000263807,0.61900498090004
9100.00000001557,7.49485454311614,1.00000000238468,0.596626723455025
9200.00000001594,7.41633318540801,1.00000000187447,0.565664332020011
9300.0000000163,7.35937979134987,1.00000000148544,0.514178960611165
9400.00000001667,7.36077357879378,1.00000000126198,0.463936066770873
9500.00000001703,7.44851848586542,1.00000000139027,0.452164882355533
9600.00000001739,7.62178758498957,1.0000000016441,0.457159851059687
9700.00000001776,7.83544554174678,1.00000000198531,0.484637108012358
9800.00000001812,8.0557612424911,1.00000000234355,0.50333197301009
9900.00000001848,8.26139564284395,1.0000000020148,0.527326547004139
10000.0000000188,8.44878985993887,1.00000000230605,0.550026136180492
10100.0000000192,8.61471078159862,1.00000000213332,0.559475546070558
10200.0000000196,8.76342923637839,1.00000000226936,0.579365602662559
10300.0000000199,8.88941363365168,1.00000000214789,0.603506350496031
10400.0000000203,8.99526079241935,1.00000000225177,0.617006180966409
10500.0000000207,9.07791563319175,1.00000000209532,0.609537029504397
10600.000000021,9.14222779521096,1.00000000227518,0.631009569747237
10700.0000000214,9.18467007807135,1.00000000220315,0.645103367281825
10800.0000000218,9.21051144310841,1.00000000220387,0.637364395881917
10900.0000000221,9.22540755029512,1.00000000207055,0.636155555025815
11000.0000000225,9.23643858282838,1.00000000218424,0.632492479461341
11100.0000000229,9.23602614924307,1.0000000023562,0.638339757964313
11200.0000000232,9.23209930328288,1.00000000213264,0.63470296272904
11300.0000000236,9.21832036746724,1.00000000221364,0.627628934636078
11400.0000000239,9.19781182662507,1.00000000226511,0.625675956657296
11500.0000000243,9.17418070595532,1.00000000242899,0.637535167119576
11600.0000000247,9.14212652049102,1.00000000225409,0.634053905687562
11700.000000025,9.10659479132398,1.00000000223309,0.640364548816198
11800.0000000254,9.06711470237594,1.00000000230642,0.652409355191897
11900.0000000258,9.02535348867007,1.00000000230294,0.652200535175178
12000.0000000261,8.98231189826814,1.00000000210484,0.639958640701476
12100.0000000265,8.94331024986862,1.00000000213326,0.62071313025354
12200.0000000269,8.91085513543756,1.00000000238064,0.602250964023822
12300.0000000272,8.8851118986902,1.00000000224183,0.605705653117686
12400.0000000276,8.86495420014455,1.00000000222632,0.615192881492255
12500.0000000279,8.85028877740493,1.00000000228574,0.623250386897335
12600.0000000283,8.83689699120016,1.0000000022952,0.621413026457861
12700.0000000287,8.81841216665194,1.0000000023046,0.628699623869337
12800.000000029,8.79796097681238,1.00000000198141,0.616404803530403
12900.0000000294,8.77970102920427,1.0000000024497,0.613401613052682
13000.0000000298,8.76174412969357,1.00000000247445,0.617646287106052
13100.0000000301,8.74613971569602,1.00000000219775,0.611154935931715
13200.0000000305,8.73240068483135,1.00000000230282,0.609609957008451
13300.0000000309,8.71875340096142,1.00000000257835,0.616478194328583
13400.0000000312,8.70171214510112,1.00000000228062,0.61687133614131
13500.0000000316,8.68584270943475,1.00000000227618,0.623795678191459
13600.0000000319,8.67106154877175,1.00000000251214,0.64468236864044
13700.0000000323,8.65787006476193,1.00000000223195,0.640138887404941
13800.0000000327,8.64911514135926,1.00000000222853,0.630320753378206
13900.000000033,8.63819594091941,1.00000000239254,0.617471645692385
14000.0000000334,8.6268783664668,1.00000000243294,0.631086451915047
14100.0000000338,8.6133472907747,1.00000000222143,0.644895063015519
14200.0000000341,8.5964059244509,1.00000000261584,0.659099640975583
14300.0000000345,8.57541519631447,1.00000000270635,0.656330608946501
14400.0000000349,8.55614999667294,1.0000000023255,0.661670541380924
14500.0000000352,8.53311207922239,1.00000000246254,0.661703620985741
14600.0000000356,8.50815514334762,1.00000000245118,0.645852538036329
14700.0000000359,8.48464053894298,1.00000000244587,0.659082574633907
14800.0000000363,8.4615079231416,1.00000000234074,0.654274485943961
14900.0000000367,8.44116640017003,1.00000000256702,0.663517883497589
15000.000000037,8.4207304534485,1.0000000024361,0.656147586338539
15100.0000000374,8.39826980913253,1.00000000252523,0.650334354352237
15200.0000000378,8.37281376751363,1.00000000250213,0.645826499907822
15300.0000000381,8.34819741632042,1.00000000223246,0.651138437660879
15400.0000000385,8.31961579371075,1.00000000271726,0.653195254010675
15500.0000000389,8.29040632661318,1.00000000250473,0.64804436414182
15600.0000000392,8.26346362618222,1.00000000234949,0.646444523139874
15700.0000000396,8.23750874645934,1.00000000263819,0.652616439730557
15800.0000000399,8.20758145423926,1.00000000249215,0.659686761798921
15900.0000000403,8.17729068750563,1.00000000240257,0.64896968954666
16000.0000000407,8.14728266996805,1.00000000249783,0.658270823800694
16100.000000041,8.11393410743339,1.00000000244142,0.652199399393796
16200.0000000414,8.07959136480943,1.00000000249999,0.65788172204142
16300.0000000418,8.04250793241135,1.00000000263923,0.670190947591737
16400.0000000418,8.00399985410586,1.00000000260009,0.659927254605251
16500.0000000404,7.96547440459859,1.00000000281396,0.673785834486399
16600.0000000389,7.92293055223127,1.00000000265164,0.655482557920365
16700.0000000375,7.87919511913267,1.00000000240323,0.663496522594042
16800.000000036,7.83487385524885,1.00000000252569,0.659608331624066
16900.0000000346,7.79063913375745,1.00000000260996,0.676922310339734
17000.0000000331,7.74675727496388,1.000000002352,0.677155535790836
17100.0000000317,7.70326821108458,1.00000000241541,0.668450769206367
17200.0000000302,7.6606670452934,1.0000000023814,0.66831424361987
17300.0000000287,7.61963644103872,1.00000000262007,0.667059165283712
17400.0000000273,7.58103590239521,1.00000000255901,0.663214676997864
17500.0000000258,7.54596825287871,1.00000000277737,0.664571930301703
17600.0000000244,7.51745350199399,1.00000000331371,0.668768549951698
17700.0000000229,7.4937132028185,1.00000000295251,0.676122833330087
17800.0000000215,7.48178910381211,1.00000000399234,0.679490122308243
17900.00000002,7.47200342663694,1.00000000290083,0.681705533858455
18000.0000000186,7.47431389864179,1.00000000343527,0.674960321299569
18100.0000000171,7.46978578150819,1.0000000030415,0.660322498242495
18200.0000000156,7.46683612443705,1.00000000283003,0.646354570018626
18300.0000000142,7.44917318366733,1.00000000296181,0.625361801745006
18400.0000000127,7.42145561022613,1.00000000243691,0.610192939123115
18500.0000000113,7.38676468963141,1.00000000222329,0.58397705545156
18600.0000000098,7.35475210801516,1.0000000019708,0.558748777538522
18700.0000000084,7.34697531507409,1.00000000185861,0.529272708180221
18800.0000000069,7.38047552790264,1.00000000191463,0.507323998698467
18900.0000000055,7.47833321674857,1.00000000177044,0.490576332804366
19000.000000004,7.64662830893397,1.0000000016947,0.485412507473613
19100.0000000026,7.90085992415391,1.00000000202049,0.492320612717229
19200.0000000011,8.20535101010305,1.00000000216885,0.489848322483645
19299.9999999996,8.57731550701356,1.00000000240331,0.497903453071555
19399.9999999982,8.95272683826779,1.00000000238816,0.503827260293545
19499.9999999967,9.36491794581685,1.00000000288474,0.515434660651094
19599.9999999953,9.75781717845584,1.00000000276561,0.523912252359927
19699.9999999938,10.1617404580243,1.00000000280112,0.531344578529097
19799.9999999924,10.5486265384618,1.00000000277266,0.543281250463607
19899.9999999909,10.9274689514613,1.00000000286532,0.545261307042598
19999.9999999895,11.3013971781511,1.00000000265255,0.557469452813969
20099.999999988,11.6608467251495,1.00000000266979,0.55797899538577
20199.9999999865,12.0178019038599,1.00000000263778,0.572595061689993
20299.9999999851,12.3549843751598,1.00000000261924,0.588040536220927
20399.9999999836,12.6937467641254,1.00000000228399,0.603375840157467
20499.9999999822,13.0078832160275,1.00000000259175,0.614330197288542
20599.9999999807,13.3069909057389,1.00000000266337,0.616731055444088
20699.9999999793,13.6002104582946,1.00000000293252,0.639880411097533
20799.9999999778,13.8594558552841,1.00000000291527,0.637148219119531
20899.9999999764,14.1120221438357,1.00000000282834,0.657447510714256
20999.9999999749,14.3381857250533,1.00000000268726,0.663606197593376
21099.9999999734,14.5500072925589,1.00000000279039,0.654354823489094
21199.999999972,14.740486281142,1.00000000270757,0.660657452253863
21299.9999999705,14.9145577207333,1.00000000282176,0.670943531926899
21399.9999999691,15.0833131432228,1.00000000264637,0.667707363064895
21499.9999999676,15.2282320322063,1.00000000291825,0.665723253051344
21599.9999999662,15.3649161306452,1.00000000279841,0.675804542715156
21699.9999999647,15.4837559283303,1.000000002691,0.682904590915778
21799.9999999633,15.5968024013768,1.00000000301251,0.682465521417146
21899.9999999618,15.7021063196923,1.00000000282682,0.685025600769672
21999.9999999603,15.8095779538459,1.00000000265956,0.681456536492088
22099.9999999589,15.9089623132896,1.00000000286879,0.68089436477612
22199.9999999574,15.9870165667962,1.0000000030733,0.677719094652658
22299.999999956,16.0611435581447,1.00000000280094,0.68095664558732
22399.9999999545,16.1293448392312,1.00000000286787,0.678670526176176
22499.9999999531,16.2007751129553,1.00000000319368,0.675152820738609
22599.9999999516,16.2675506863217,1.00000000297332,0.680821753906125
22699.9999999502,16.3267645585067,1.00000000267291,0.671532570036656
22799.9999999487,16.3860213785741,1.0000000026835,0.673552017521465
22899.9999999473,16.4496683587592,1.00000000293573,0.670372871178303
22999.9999999458,16.5150440037502,1.00000000275314,0.680948362516899
23099.9999999443,16.5756978093909,1.00000000300952,0.669787661018664
23199.9999999429,16.6348654118844,1.00000000305757,0.67145578954305
23299.9999999414,16.6821497806555,1.00000000297909,0.675518501642234
23399.99999994,16.7246918096845,1.00000000296804,0.681729223421203
23499.9999999385,16.7672004506032,1.00000000260009,0.67425323775567
23599.9999999371,16.8185067769251,1.0000000028162,0.656462180736911
23699.9999999356,16.8767113864858,1.00000000265548,0.666325699726331
23799.9999999342,16.926693307827,1.00000000321657,0.675497746217418
23899.9999999327,16.9676898555352,1.00000000297607,0.685812005656775
23999.9999999312,17.0083661394354,1.00000000274934,0.663245885637074
24099.9999999298,17.0546273535816,1.00000000287365,0.669587660138575
24199.9999999283,17.1054881852596,1.00000000304415,0.682186587438385
24299.9999999269,17.1515418756163,1.00000000335201,0.687814615082204
24399.9999999254,17.1915974282001,1.00000000306961,0.683260186665412
24499.999999924,17.2364454774392,1.00000000280264,0.667740123504277
24599.9999999225,17.2992279038021,1.00000000270703,0.668256469337837
24699.9999999211,17.366461958774,1.00000000296658,0.673918806802853
24799.9999999196,17.4321112650138,1.00000000305702,0.653459746282992
24899.9999999181,17.5047958336688,1.00000000300387,0.652065784033841
24999.9999999167,17.5813933288111,1.00000000321865,0.663726553777035
25099.9999999152,17.6508056810911,1.00000000306724,0.681194618866412
25199.9999999138,17.711083646013,1.00000000309942,0.665444884499425
25299.9999999123,17.7673569319361,1.00000000299567,0.666585640146987
25399.9999999109,17.8290413718696,1.00000000342925,0.662620036356346
25499.9999999094,17.8927321259406,1.000000002898,0.671723601302024
25599.999999908,17.9532961373027,1.00000000328816,0.680476791913506
25699.9999999065,18.0096501414227,1.0000000029706,0.673899408402622
25799.9999999051,18.0723272867602,1.00000000261607,0.658795870715329
25899.9999999036,18.1377944902651,1.00000000299477,0.676479821054162
25999.9999999021,18.2007043502006,1.00000000323225,0.678510787009407
26099.9999999007,18.2573538891102,1.00000000304667,0.6707351125321
26199.9999998992,18.3129916744569,1.00000000291984,0.668008845762705
26299.9999998978,18.3745703089255,1.00000000322749,0.667458595360203
26399.9999998963,18.4431518499395,1.00000000332037,0.660732764800481
26499.9999998949,18.5176579669649,1.00000000291833,0.680307599682739
26599.9999998934,18.5920566119673,1.00000000302953,0.69151197120622
26699.999999892,18.6650438400409,1.00000000325753,0.683862712847307
26799.9999998905,18.7277443302818,1.00000000322187,0.681417084121727
26899.999999889,18.7852242294429,1.00000000319234,0.685377805305689
26999.9999998876,18.8398709263922,1.00000000338698,0.689187035522775
27099.9999998861,18.8971564718864,1.00000000308073,0.698059810652831
27199.9999998847,18.9545098532877,1.00000000303117,0.682980761164166
27299.9999998832,19.0203199506401,1.00000000305645,0.677428821441143
27399.9999998818,19.1022553172108,1.00000000296569,0.66321426886994
27499.9999998803,19.2042054083264,1.00000000291975,0.660016627557951
27599.9999998789,19.3174559240285,1.00000000329328,0.657724796829841
27699.9999998774,19.4327251472538,1.0000000032116,0.670502693471162
27799.9999998759,19.5468183486309,1.00000000317168,0.679541678133416
27899.9999998745,19.6657157259537,1.00000000340256,0.673558565579221
27999.999999873,19.7910847962587,1.00000000331679,0.683930509183099
28099.9999998716,19.9091735152177,1.00000000334868,0.705640034959265
28199.9999998701,20.0181514582507,1.00000000342873,0.69599784622164
28299.9999998687,20.1288679272891,1.00000000284768,0.69316600180816
28399.9999998672,20.2362714876057,1.00000000320207,0.682675386922155
28499.9999998658,20.3372039356165,1.00000000314854,0.687104713497434
28599.9999998643,20.4388273223702,1.0000000036534,0.697245410053737
28699.9999998629,20.5442310317002,1.00000000325752,0.68481706118691
28799.9999998614,20.6567253209521,1.0000000035745,0.681853126542567
28899.9999998599,20.7767877988737,1.00000000313838,0.672787653738392
28999.9999998585,20.8999129717864,1.00000000322009,0.677662290632217
29099.999999857,21.0102236918483,1.00000000342156,0.682032958247103
