Time,AGPnorm,Energy,Entropy
0,0,1,-1.1232014179001e-17
99.9999999999986,1.221179904194e-05,0.999999999999164,0.000578745978226675
199.999999999993,0.00104938591906412,1.00000000000216,0.000901357172579028
300,0.00261748537487083,0.999999999998437,0.00158567722043237
400.000000000022,0.00366333518082459,1.00000000000116,0.00274703614545538
500.000000000045,0.00443446218335903,1.00000000000066,0.00361377695784584
600.000000000068,0.00631676860779686,0.999999999998695,0.00513715119298184
700.000000000091,0.00776092808353067,1.0000000000022,0.00656223970121671
800.000000000113,0.0101973722436849,0.999999999998863,0.00804673955557952
900.000000000136,0.0127991002550231,1.0000000000005,0.010000403632646
1000.00000000016,0.0146739695037061,1.00000000000122,0.0116643647648512
1100.0000000001,0.0175707462227264,0.999999999998455,0.0137810521559829
1200,0.020663610219862,1.00000000000204,0.0159256974571356
1299.99999999991,0.024193624297572,0.999999999999416,0.0179866403668925
1399.99999999982,0.0278300136918729,0.999999999999827,0.0205218205075978
1499.99999999973,0.0309155955604434,1.00000000000162,0.0228021446627056
1599.99999999964,0.0350162618337215,0.999999999998482,0.0253850425253141
1699.99999999955,0.0393740340998785,1.00000000000169,0.0281234313245801
1799.99999999946,0.0436815493670219,0.99999999999999,0.030692802036051
1899.99999999937,0.0481591984827986,0.999999999999232,0.0337087251217976
1999.99999999928,0.0525255228742958,1.00000000000185,0.0365429733571233
2099.99999999919,0.0578206581673891,0.999999999998751,0.0395567294084349
2199.99999999909,0.0631321704507223,1.00000000000117,0.0428375531881506
2299.999999999,0.0679505990134495,1.00000000000051,0.0459026657689226
2399.99999999891,0.073122892409687,0.999999999998833,0.0493630542864924
2499.99999999882,0.0786683453521247,1.00000000000193,0.0527587338974828
2599.99999999873,0.084895739968252,0.999999999999162,0.0562274176194887
2699.99999999864,0.0908705257907601,1.00000000000053,0.0600438442675841
2799.99999999855,0.0961631901764247,1.00000000000092,0.0636290187415123
2899.99999999846,0.102018726600618,0.99999999999871,0.0675637490294703
2999.99999999837,0.108437280450169,1.00000000000187,0.0715740294870716
3099.99999999828,0.115145253427898,0.999999999999605,0.0755740294173951
3199.99999999819,0.121458151582401,0.999999999999847,0.0799649562820303
3299.99999999809,0.127343813306814,1.00000000000121,0.0841608385133185
3399.999999998,0.133902608280628,0.999999999998855,0.0886753073594788
3499.99999999791,0.140852081101745,1.00000000000164,0.0934086244127902
3599.99999999782,0.147595025846447,1.00000000000002,0.0980712994035804
3699.99999999773,0.153997415906377,0.999999999999311,0.103158007295835
3799.99999999764,0.160501014281714,1.00000000000139,0.108169208994942
3899.99999999755,0.167639936866619,0.999999999999168,0.113468639034156
3999.99999999746,0.174790384764665,1.0000000000012,0.11915315364971
4099.99999999738,0.181316421210603,1.00000000000044,0.124742201141644
4199.99999999775,0.187781865996345,0.999999999999099,0.130828153634499
4299.99999999811,0.194684046705593,1.00000000000163,0.137052616559572
4399.99999999848,0.202119817282461,0.999999999999652,0.143603508627274
4499.99999999884,0.209116293493053,1.0000000000009,0.150737720775611
4599.9999999992,0.215370239402795,1.0000000000014,0.157875337540955
4699.99999999957,0.222196076739602,1.00000000000021,0.165662399542524
4799.99999999993,0.229064674301731,1.00000000000367,0.17390317403658
4900.00000000029,0.236607871829813,1.00000000000326,0.182505428955467
5000.00000000066,0.243567402176671,1.00000000000551,0.191846733511734
5100.00000000102,0.249384763232725,1.00000000000958,0.201246254221744
5200.00000000139,0.258402247534134,1.00000000001204,0.211164618047576
5300.00000000175,0.265632521680543,1.0000000000188,0.221537913302914
5400.00000000211,0.275446933275142,1.00000000002373,0.231797848248764
5500.00000000248,0.28823546987545,1.00000000003051,0.24248066424954
5600.00000000284,0.298891041776456,1.0000000000411,0.252889200279594
5700.00000000321,0.322923126513613,1.00000000004879,0.263362130496801
5800.00000000357,0.347572565122279,1.00000000006085,0.273963420251562
5900.00000000393,0.382649662382066,1.0000000000726,0.283944459709306
6000.0000000043,0.438788521382137,1.00000000008376,0.294090959519382
6100.00000000466,0.499432156104586,1.00000000009479,0.303928025812314
6200.00000000502,0.598258475512034,1.0000000001069,0.313503423916345
6300.00000000539,0.719786387704396,1.00000000011929,0.323185101934357
6400.00000000575,0.87223273653697,1.00000000013035,0.332185082726474
6500.00000000612,1.08679679849025,1.00000000014571,0.341162923799815
6600.00000000648,1.3320589348856,1.00000000015681,0.350068666519519
6700.00000000684,1.65607666824635,1.00000000016843,0.358458443400675
6800.00000000721,2.05162039452815,1.00000000018574,0.366924745232685
6900.00000000757,2.51286962991636,1.00000000020481,0.374832114689366
7000.00000000793,3.09421510843798,1.00000000021028,0.382661590874897
7100.0000000083,3.75376573888225,1.00000000022129,0.390513432940422
7200.00000000866,4.53978296559391,1.00000000023358,0.397643748727697
7300.00000000903,5.46281041151652,1.00000000024406,0.404904744232384
7400.00000000939,6.49458182253803,1.000000000253,0.411835872613499
7500.00000000975,7.70577701705281,1.00000000026903,0.418384875615019
7600.00000001012,9.05412497906233,1.0000000002674,0.425125300705222
7700.00000001048,10.5711575452215,1.00000000027909,0.431165682683538
7800.00000001084,12.2890900025531,1.00000000028137,0.437261260249949
7900.00000001121,14.1580586687126,1.00000000029003,0.443216807916906
8000.00000001157,16.2522617341134,1.00000000029227,0.448645335295699
8100.00000001194,18.5395115168586,1.00000000031085,0.45420168366061
8200.0000000123,21.0235055185506,1.00000000032583,0.459268602090756
8300.00000001266,23.754771174761,1.00000000032374,0.464290201776265
8400.00000001303,26.6712342891733,1.00000000032275,0.469360786411549
8500.00000001339,29.8361572524538,1.00000000033187,0.473742652696207
8600.00000001376,33.2342013792247,1.00000000033483,0.478327721706268
8700.00000001412,36.8401672284591,1.00000000034985,0.482506723260331
8800.00000001448,40.7142485558153,1.00000000034984,0.486567368467817
8900.00000001485,44.7944553605246,1.00000000035291,0.490749643285218
9000.00000001521,49.1220204394802,1.00000000036671,0.494237398953747
9100.00000001557,53.700433242673,1.00000000035847,0.497925204606437
9200.00000001594,58.4822469692539,1.00000000035436,0.501485698840308
9300.0000000163,63.527069464151,1.00000000035629,0.504615601975603
9400.00000001667,68.7829207921628,1.00000000036499,0.507915419012301
9500.00000001703,74.2644936062591,1.00000000036743,0.510772334072036
9600.00000001739,79.9908228694685,1.00000000036519,0.513645794879652
9700.00000001776,85.9035538247156,1.0000000003688,0.51655700987056
9800.00000001812,92.0528213853176,1.00000000037387,0.518807778502557
9900.00000001848,98.4019835622361,1.00000000038798,0.521464812972629
10000.0000000188,104.941723397155,1.00000000037268,0.523746897647922
10100.0000000192,111.700034952401,1.0000000003844,0.525847731729753
10200.0000000196,118.617729275407,1.00000000038795,0.528331183768291
10300.0000000199,125.731683364478,1.00000000037015,0.530013866746346
10400.0000000203,133.019157054909,1.00000000038332,0.531958069810799
10500.0000000207,140.454283480083,1.00000000037119,0.53392113086395
10600.000000021,148.068250908514,1.00000000037611,0.535331421607018
10700.0000000214,155.807229147182,1.00000000036535,0.537329784595906
10800.0000000218,163.693863170436,1.00000000036848,0.538608617151429
10900.0000000221,171.718112986871,1.0000000003777,0.539898152986702
11000.0000000225,179.843723873152,1.00000000037414,0.541642101652085
11100.0000000229,188.100780972216,1.00000000036772,0.542439814371521
11200.0000000232,196.44528304284,1.00000000036633,0.543833040337346
11300.0000000236,204.885206075812,1.00000000037678,0.545030152331668
11400.0000000239,213.421286978705,1.00000000037218,0.54551624568387
11500.0000000243,222.012587263165,1.00000000037352,0.547008779749342
11600.0000000247,230.685745080542,1.00000000037432,0.547725518018005
11700.000000025,239.406691957832,1.00000000036856,0.548131625006078
11800.0000000254,248.171829346572,1.00000000036906,0.549569553845317
11900.0000000258,256.990711224734,1.00000000036392,0.549717853585591
12000.0000000261,265.820681917424,1.00000000035296,0.550403489379178
12100.0000000265,274.682917838195,1.00000000035648,0.55140316497743
12200.0000000269,283.557257940987,1.00000000036345,0.551330719011097
12300.0000000272,292.426855380114,1.00000000034813,0.552068644075251
12400.0000000276,301.307232320144,1.00000000035284,0.552693683577154
12500.0000000279,310.16250056186,1.0000000003536,0.552706736873132
12600.0000000283,319.003447086812,1.00000000034809,0.553279047074362
12700.0000000287,327.821212097169,1.00000000034047,0.553379373590425
12800.000000029,336.594731848694,1.00000000034384,0.553424938089057
12900.0000000294,345.338191140011,1.00000000034311,0.55411875980443
13000.0000000298,354.024549685002,1.00000000034709,0.554029540271382
13100.0000000301,362.658678281352,1.00000000033385,0.554043820317354
13200.0000000305,371.236172012188,1.00000000034111,0.554236851403108
13300.0000000309,379.737891887388,1.00000000033523,0.554199279783517
13400.0000000312,388.173742107893,1.00000000033205,0.554416914411157
13500.0000000316,396.524718323608,1.00000000032283,0.554513959867171
13600.0000000319,404.792271915644,1.00000000031214,0.554278274435737
13700.0000000323,412.975369817426,1.00000000031971,0.554125130103901
13800.0000000327,421.056591304785,1.00000000032053,0.554297641303552
13900.000000033,429.045034982023,1.00000000031592,0.55407993558777
14000.0000000334,436.925269802521,1.00000000030893,0.554141950833186
14100.0000000338,444.697586515241,1.00000000030935,0.554001318344939
14200.0000000341,452.363854116918,1.00000000030547,0.553460056859667
14300.0000000345,459.906872477454,1.00000000031166,0.553494495791343
14400.0000000349,467.335729913724,1.00000000031445,0.553609615048007
14500.0000000352,474.640521726531,1.00000000030474,0.553210419179917
14600.0000000356,481.817215183756,1.00000000029923,0.552709067453944
14700.0000000359,488.870915185426,1.00000000029071,0.552780364260139
14800.0000000363,495.787469421853,1.00000000030417,0.552648009546567
14900.0000000367,502.573843741521,1.00000000029673,0.552246597755115
15000.000000037,509.223120426384,1.00000000029518,0.552102283620695
15100.0000000374,515.732050136677,1.00000000028931,0.552051449918781
15200.0000000378,522.106084610653,1.00000000028583,0.551470672307412
15300.0000000381,528.332682422503,1.00000000027791,0.551092333336513
15400.0000000385,534.418200038098,1.00000000027699,0.551172565908479
15500.0000000389,540.360848904087,1.000000000283,0.550988073958779
15600.0000000392,546.155485735755,1.00000000027125,0.55040148142137
15700.0000000396,551.805276865588,1.00000000027213,0.550220391852123
15800.0000000399,557.304467273963,1.000000000277,0.550330747480997
15900.0000000403,562.657878504239,1.00000000026369,0.549618062206622
16000.0000000407,567.864744671697,1.00000000026251,0.549648339786342
16100.000000041,572.919083306683,1.00000000026087,0.548718902929138
16200.0000000414,577.828468037293,1.00000000026695,0.549931216095873
16300.0000000418,582.587638161388,1.00000000025425,0.548418615042679
16400.0000000418,587.198732720149,1.00000000026965,0.548836098282192
16500.0000000404,591.664096226342,1.00000000026267,0.547310378944823
16600.0000000389,595.978535524944,1.00000000026627,0.548035890587549
16700.0000000375,600.148430547464,1.00000000024954,0.546892664883027
16800.000000036,604.168421035491,1.00000000026051,0.547433880716265
16900.0000000346,608.042745716582,1.0000000002511,0.546961777423465
17000.0000000331,611.772580876815,1.00000000025151,0.547125569913432
17100.0000000317,615.355646167716,1.00000000023519,0.545949510299582
17200.0000000302,618.795154376742,1.00000000024313,0.54506915503633
17300.0000000287,622.089903165401,1.00000000023447,0.54481412201737
17400.0000000273,625.241271893327,1.00000000023682,0.545164089033736
17500.0000000258,628.253368022506,1.00000000023552,0.545715951188328
17600.0000000244,631.123185947524,1.00000000023907,0.545769096817125
17700.0000000229,633.856723806548,1.0000000002401,0.545119781270512
17800.0000000215,636.451756136095,1.00000000022627,0.543513875176621
17900.00000002,638.909180865165,1.00000000023086,0.542045613721327
18000.0000000186,641.230682583454,1.00000000022343,0.541377658520619
18100.0000000171,643.414616770336,1.00000000021885,0.542947274454737
18200.0000000156,645.468858537879,1.00000000022204,0.544675902754125
18300.0000000142,647.395156426315,1.00000000022098,0.546064257871298
18400.0000000127,649.196980701537,1.00000000023072,0.544958427890333
18500.0000000113,650.875064401296,1.0000000002273,0.542312446938738
18600.0000000098,652.425519600472,1.00000000021634,0.538769012333563
18700.0000000084,653.848456175097,1.00000000020192,0.536840138253508
18800.0000000069,655.144188964664,1.00000000020577,0.538429457196719
18900.0000000055,656.316528731023,1.0000000002082,0.5425155489374
19000.000000004,657.376515260896,1.00000000021899,0.546942891811189
19100.0000000026,658.329645330142,1.00000000021945,0.548247233704551
19200.0000000011,659.182247795276,1.00000000021884,0.545574580257518
19299.9999999996,659.930030861891,1.00000000020445,0.539508868001592
19399.9999999982,660.563731925896,1.00000000019668,0.533021137290818
19499.9999999967,661.079884348172,1.00000000017902,0.530528392844092
19599.9999999953,661.476972808702,1.00000000019012,0.53358554405046
19699.9999999938,661.766994707668,1.0000000001956,0.54154773022259
19799.9999999924,661.965712601814,1.00000000020924,0.548919319275818
19899.9999999909,662.08526560396,1.0000000002219,0.552555430183336
19999.9999999895,662.135249672242,1.00000000022155,0.549516277392287
20099.999999988,662.107408854186,1.00000000021276,0.540301505079032
20199.9999999865,661.989862276357,1.00000000018523,0.529256438738512
20299.9999999851,661.768892470752,1.00000000016684,0.521472544214975
20399.9999999836,661.438252411546,1.00000000016458,0.522331246934924
20499.9999999822,661.008959355098,1.00000000018132,0.531728300389524
20599.9999999807,660.500069029002,1.00000000020495,0.54480649692011
20699.9999999793,659.934832663367,1.00000000022364,0.554716787615482
20799.9999999778,659.329745114512,1.00000000023359,0.556961524796481
20899.9999999764,658.684920012527,1.00000000022944,0.550266528510974
20999.9999999749,657.990763173315,1.00000000020555,0.536335895387788
21099.9999999734,657.225629334977,1.0000000001792,0.51970469560948
21199.999999972,656.370687751586,1.00000000014875,0.507982907161483
21299.9999999705,655.42026441668,1.00000000014523,0.508270376936032
21399.9999999691,654.384172689531,1.00000000016757,0.521526140042946
21499.9999999676,653.288183001326,1.00000000019768,0.540783023404665
21599.9999999662,652.158842209137,1.00000000023285,0.555311954412507
21699.9999999647,651.016145432041,1.00000000026202,0.561619842033276
21799.9999999633,649.867782803045,1.00000000025157,0.557806332689913
21899.9999999618,648.703234730897,1.00000000023558,0.543221906000839
21999.9999999603,647.502260498204,1.00000000018951,0.521758019142417
22099.9999999589,646.239086286807,1.00000000015358,0.500093289230699
22199.9999999574,644.896443260167,1.0000000001301,0.488542298552466
22299.999999956,643.472990946314,1.00000000014065,0.494131461553051
22399.9999999545,641.985360123385,1.00000000016877,0.515664732801196
22499.9999999531,640.461231173363,1.00000000021788,0.54064452982386
22599.9999999516,638.928685021545,1.00000000025351,0.558733420071245
22699.9999999502,637.406608178961,1.00000000028528,0.565655897405986
22799.9999999487,635.901831982535,1.00000000028039,0.562151084148229
22899.9999999473,634.404264025232,1.0000000002514,0.547768550322919
22999.9999999458,632.893879710864,1.00000000020298,0.523499455897733
23099.9999999443,631.343929809577,1.00000000016569,0.495154505781301
23199.9999999429,629.733726030423,1.0000000001274,0.474366508294014
23299.9999999414,628.053975836648,1.00000000011804,0.470472944746441
23399.99999994,626.313113429984,1.00000000013717,0.488417580288882
23499.9999999385,624.534157373625,1.00000000019069,0.518784209342456
23599.9999999371,622.743735147951,1.00000000024337,0.54610565675562
23699.9999999356,620.965783894926,1.0000000002826,0.563354715012675
23799.9999999342,619.215682122991,1.00000000029263,0.569006313366756
23899.9999999327,617.494923721462,1.00000000029737,0.564374431805138
23999.9999999312,615.794868692783,1.00000000026561,0.550151321813826
24099.9999999298,614.096594039373,1.00000000022459,0.524588204520638
24199.9999999283,612.376128816154,1.00000000017334,0.492298637639799
24299.9999999269,610.612834411299,1.0000000001233,0.46443989622429
24399.9999999254,608.79491880437,1.00000000010624,0.45263553638754
24499.999999924,606.925685290229,1.00000000011213,0.46267423187883
24599.9999999225,605.019222621042,1.00000000016125,0.492277190481717
24699.9999999211,603.098505216438,1.00000000021993,0.525880447127216
24799.9999999196,601.185763209637,1.00000000026566,0.551647848568808
24899.9999999181,599.297577896184,1.00000000029337,0.565686248765917
24999.9999999167,597.443177150543,1.00000000030744,0.569190272342976
25099.9999999152,595.623262478179,1.00000000029846,0.563455318179883
25199.9999999138,593.828444850803,1.0000000002787,0.549735857124388
25299.9999999123,592.044984696667,1.00000000023217,0.525993954001227
25399.9999999109,590.252784630939,1.00000000018108,0.493220751758743
25499.9999999094,588.435187907612,1.00000000013936,0.461387158884993
25599.999999908,586.580095185925,1.00000000011065,0.441663332673141
25699.9999999065,584.685841596433,1.00000000010363,0.441825995656174
25799.9999999051,582.760455569197,1.00000000013345,0.462451650206974
25899.9999999036,580.817841640873,1.00000000017889,0.495874381555016
25999.9999999021,578.875643786137,1.00000000023353,0.528769518771389
26099.9999999007,576.949015289719,1.00000000027373,0.551711193829235
26199.9999998992,575.048555452049,1.00000000031718,0.562960413469214
26299.9999998978,573.180341478428,1.00000000031124,0.564876742379682
26399.9999998963,571.344262252011,1.00000000030545,0.559105846242483
26499.9999998949,569.53420892525,1.00000000027447,0.548136293237081
26599.9999998934,567.741528131679,1.00000000025433,0.529070164735865
26699.999999892,565.952168820912,1.0000000001969,0.500751760136161
26799.9999998905,564.15395075669,1.00000000016474,0.471105346962904
26899.999999889,562.336588431592,1.00000000013112,0.444855119949137
26999.9999998876,560.496040760494,1.00000000011061,0.432440936016893
27099.9999998861,558.633151269606,1.00000000011999,0.43732094793503
27199.9999998847,556.753829684971,1.00000000014461,0.45737671859076
27299.9999998832,554.868736912988,1.00000000018553,0.486841270308073
27399.9999998818,552.987637094723,1.00000000023135,0.517326727319028
27499.9999998803,551.120209083975,1.00000000025898,0.540083184192296
27599.9999998789,549.273955699332,1.00000000029744,0.552634197499437
27699.9999998774,547.453112733408,1.00000000030482,0.55604424943459
27799.9999998759,545.6581636093,1.00000000029296,0.552473613568388
27899.9999998745,543.888029063936,1.00000000029078,0.545099146237482
27999.999999873,542.136949703922,1.00000000026045,0.531684949465773
28099.9999998716,540.398600222834,1.00000000024615,0.516635389581599
28199.9999998701,538.665555027101,1.00000000020828,0.493887531487932
28299.9999998687,536.930223464928,1.00000000017104,0.470527847997923
28399.9999998672,535.187743319913,1.00000000014989,0.450334454112795
28499.9999998658,533.435532678261,1.00000000012976,0.43607138416837
28599.9999998643,531.674462730364,1.00000000013279,0.434776396029258
28699.9999998629,529.906312733483,1.00000000014279,0.444844611215165
28799.9999998614,528.13665098792,1.00000000016598,0.463731891455513
