Time,AGPnorm,Energy,Entropy
0,0,1,-7.86441206686574e-17
99.9999999999986,0.000675654346538494,1.0000000000014,0.00232590699072392
199.999999999993,0.00437359079487218,1.0000000000015,0.00690946813283524
300,0.0088441131666519,1.00000000000027,0.0128771705969285
400.000000000022,0.0139026677994494,0.999999999999807,0.0201582590978153
500.000000000045,0.0193590510806193,1.00000000000056,0.029083534270031
600.000000000068,0.027437129284425,1.00000000000162,0.0393808039477762
700.000000000091,0.0350351452853278,1.00000000000077,0.0506885436613651
800.000000000113,0.0444656081190963,1.00000000000025,0.0629334348535825
900.000000000136,0.0534372684335438,0.999999999999938,0.076539876515867
1000.00000000016,0.0640185562565754,1.00000000000127,0.0915737315014498
1100.0000000001,0.0743641398687143,1.00000000000119,0.108355689741055
1200,0.085106700720332,1.00000000000077,0.126553698439095
1299.99999999991,0.0961811252835824,1.00000000000083,0.147268317120062
1399.99999999982,0.106481810851502,1.00000000000292,0.170790476698495
1499.99999999973,0.117844563048658,1.00000000001207,0.198584519319462
1599.99999999964,0.129908336542259,1.00000000003369,0.230073830756505
1699.99999999955,0.148603109755553,1.00000000008094,0.264622733627033
1799.99999999946,0.169882211691476,1.00000000015555,0.300014468033173
1899.99999999937,0.214487375278483,1.00000000023715,0.334333002708978
1999.99999999928,0.330054580196576,1.00000000033179,0.365979146478263
2099.99999999919,0.565556565948018,1.00000000043932,0.394057596934516
2199.99999999909,0.9552118844964,1.00000000054776,0.419214117897439
2299.999999999,1.55871926542333,1.00000000064864,0.441364197881974
2399.99999999891,2.46625626822613,1.0000000006905,0.461046114166687
2499.99999999882,3.74449296852246,1.00000000076223,0.477933181044074
2599.99999999873,5.4176460676378,1.00000000081234,0.492679627885444
2699.99999999864,7.50880683263622,1.00000000084685,0.505514669962766
2799.99999999855,10.0420938938293,1.00000000089604,0.516202571910902
2899.99999999846,13.0321106447773,1.00000000088582,0.525449599072991
2999.99999999837,16.4567044826182,1.00000000093427,0.533118848725059
3099.99999999828,20.2871471653925,1.00000000088983,0.539546234022498
3199.99999999819,24.4802939064754,1.00000000099506,0.544824803411981
3299.99999999809,28.9950056932693,1.0000000009052,0.549367012008379
3399.999999998,33.7829825941401,1.00000000093469,0.552410465546876
3499.99999999791,38.796710093546,1.00000000098504,0.554574080842187
3599.99999999782,43.9786951297564,1.00000000089805,0.557208918961032
3699.99999999773,49.2601453772906,1.00000000091778,0.558284792685878
3799.99999999764,54.5936705340437,1.00000000086442,0.558868177478325
3899.99999999755,59.9361479616607,1.00000000088456,0.559077133427122
3999.99999999746,65.2408159936482,1.00000000086997,0.559316178601678
4099.99999999738,70.4573000064049,1.00000000083649,0.557735137357349
4199.99999999775,75.5393086501603,1.00000000083907,0.557832582909984
4299.99999999811,80.4585381753552,1.00000000083131,0.556573350564583
4399.99999999848,85.1953528533922,1.0000000007824,0.554780919332693
4499.99999999884,89.7213105581324,1.00000000074308,0.554028545513415
4599.9999999992,94.0039978558087,1.00000000073412,0.551793242273482
4699.99999999957,98.028334715465,1.00000000069971,0.551288660403222
4799.99999999993,101.786557798967,1.0000000006961,0.549392612569797
4900.00000000029,105.275632052228,1.00000000067507,0.54713890266842
5000.00000000066,108.48148189962,1.00000000066846,0.545961716053684
5100.00000000102,111.398348097829,1.00000000063948,0.544853811832506
5200.00000000139,114.027191092157,1.00000000063153,0.541080077667358
5300.00000000175,116.379258498236,1.00000000059403,0.541376569328404
5400.00000000211,118.460372275838,1.00000000060751,0.542410119493405
5500.00000000248,120.268602257469,1.00000000056958,0.535716413769947
5600.00000000284,121.799804395585,1.00000000060529,0.534133500054828
5700.00000000321,123.078467662083,1.00000000059323,0.54332192189086
5800.00000000357,124.128384143778,1.00000000057981,0.538987759150355
5900.00000000393,124.935764077359,1.00000000051075,0.522369990139245
6000.0000000043,125.494878529883,1.00000000051869,0.530477345331906
6100.00000000466,125.863783245253,1.00000000056137,0.5498866434231
6200.00000000502,126.078596431902,1.00000000052474,0.537518512344632
6300.00000000539,126.095721566532,1.00000000042924,0.506798834227766
6400.00000000575,125.898008690035,1.00000000045781,0.518883654901203
6500.00000000612,125.57154745634,1.00000000059616,0.555542939968306
6600.00000000648,125.185703252661,1.00000000061934,0.551075360645113
6700.00000000684,124.691398421073,1.00000000043569,0.503755053850452
6800.00000000721,124.01875835173,1.00000000033435,0.481803545882592
6900.00000000757,123.217214537108,1.0000000005261,0.531840823923844
7000.00000000793,122.399831158841,1.00000000069444,0.568126937981547
7100.0000000083,121.598610743361,1.00000000067156,0.54916918362175
7200.00000000866,120.73654630147,1.00000000040391,0.482355932508774
7300.00000000903,119.740000175171,1.00000000029402,0.449476005075261
7400.00000000939,118.650066115567,1.00000000052462,0.509403975532051
7500.00000000975,117.56870655062,1.00000000070632,0.564507242472164
7600.00000001012,116.548335978914,1.00000000073548,0.565776323117301
7700.00000001048,115.552572238551,1.00000000056759,0.514599028301911
7800.00000001084,114.497350047476,1.00000000031691,0.431419084060015
7900.00000001121,113.349172305457,1.0000000002744,0.422213017025877
8000.00000001157,112.158704129285,1.00000000055104,0.499685714220596
8100.00000001194,110.998869988351,1.00000000071359,0.554735644154077
8200.0000000123,109.905516230557,1.00000000083095,0.563893244544877
8300.00000001266,108.86179128284,1.00000000067078,0.533364256529704
8400.00000001303,107.81386603131,1.00000000043922,0.452181781661925
8500.00000001339,106.718243685769,1.00000000025803,0.389061394653394
8600.00000001376,105.581307793839,1.00000000034361,0.411968684147074
8700.00000001412,104.440630174193,1.00000000054353,0.488637427910635
8800.00000001448,103.329888526531,1.0000000007626,0.539767888359527
8900.00000001485,102.268329756394,1.00000000077118,0.552326311056942
9000.00000001521,101.253862534871,1.00000000068798,0.53692027679129
9100.00000001557,100.26207691014,1.00000000054731,0.492278720548212
9200.00000001594,99.2652542856815,1.00000000037749,0.425740439785556
9300.0000000163,98.2543482132209,1.00000000030627,0.385449245129762
9400.00000001667,97.2383292766741,1.0000000003633,0.407144851945811
9500.00000001703,96.2308638760054,1.0000000005262,0.46320582846914
9600.00000001739,95.242017021876,1.00000000066991,0.512963134792663
9700.00000001776,94.2780097563689,1.00000000070657,0.531500333081944
9800.00000001812,93.3427298948372,1.00000000070221,0.538663325644493
9900.00000001848,92.4337806167273,1.00000000067474,0.528780059056978
10000.0000000188,91.5415088859567,1.00000000049541,0.48874335996211
10100.0000000192,90.6579892986072,1.00000000040352,0.441967881061473
10200.0000000196,89.7849176737816,1.00000000036426,0.411726089925884
10300.0000000199,88.929010582891,1.00000000037922,0.410288947601227
10400.0000000203,88.092229540428,1.0000000004323,0.440749250256608
10500.0000000207,87.2732053842227,1.00000000053005,0.471743638946261
10600.000000021,86.4689000911852,1.00000000056102,0.500577382970837
10700.0000000214,85.6773242581012,1.00000000059025,0.510740656936214
10800.0000000218,84.8968774328704,1.00000000066912,0.517546708395003
10900.0000000221,84.1273296356155,1.00000000070103,0.531914502048334
11000.0000000225,83.3699264450793,1.000000000658,0.533561153115675
11100.0000000229,82.626836035337,1.00000000053218,0.501609223460799
11200.0000000232,81.9025670246699,1.00000000037838,0.451721664954333
11300.0000000236,81.2032706031575,1.00000000036348,0.422154475315497
11400.0000000239,80.5316983826729,1.00000000043563,0.421556458488135
11500.0000000243,79.8848245638628,1.00000000048803,0.437348418457255
11600.0000000247,79.2573401198721,1.00000000055607,0.466814469837198
11700.000000025,78.6434721233654,1.00000000054349,0.482886899726642
11800.0000000254,78.0414509468025,1.00000000051672,0.489575785804014
11900.0000000258,77.4525045127247,1.00000000048485,0.493355394362799
12000.0000000261,76.8765899954841,1.00000000050096,0.494301611430655
12100.0000000265,76.3065228069902,1.00000000063466,0.504168422154437
12200.0000000269,75.7330866403473,1.00000000071561,0.524615286615499
12300.0000000272,75.1547913357254,1.00000000070975,0.537813914918574
12400.0000000276,74.5780343843126,1.0000000006154,0.532397409025779
12500.0000000279,74.0126992780321,1.00000000049423,0.500348629236576
12600.0000000283,73.4711072840371,1.00000000037524,0.457791831564694
12700.0000000287,72.9638484160933,1.00000000035061,0.429317623165361
12800.000000029,72.4922991372454,1.00000000037713,0.423634508507442
12900.0000000294,72.0480205523905,1.00000000048741,0.436906735699105
13000.0000000298,71.6190873670384,1.00000000056327,0.455621088948415
13100.0000000301,71.1976677309792,1.00000000057184,0.476993939892761
13200.0000000305,70.7803326118794,1.00000000056196,0.492603750621713
13300.0000000309,70.3677004898301,1.00000000053771,0.498599391894249
13400.0000000312,69.9631681343217,1.00000000051966,0.499880690786027
13500.0000000316,69.5697523244047,1.00000000045258,0.501918220894564
13600.0000000319,69.186996055285,1.00000000046856,0.503898480679353
13700.0000000323,68.8101195132159,1.00000000053517,0.507262357559269
13800.0000000327,68.4304822110486,1.00000000059668,0.509046053345334
13900.000000033,68.0409355402999,1.00000000067924,0.518227997290098
14000.0000000334,67.639547396448,1.00000000069439,0.52970951476101
14100.0000000338,67.2307123421195,1.00000000068257,0.539908753775796
14200.0000000341,66.8239293609108,1.0000000006125,0.530465142308314
14300.0000000345,66.4308599305545,1.00000000048575,0.504662990999072
14400.0000000349,66.0634202066385,1.0000000004013,0.470722927818759
14500.0000000352,65.7289467043315,1.00000000038388,0.449372962189258
14600.0000000356,65.4296908379541,1.00000000041227,0.446967252035175
14700.0000000359,65.1606629337548,1.00000000045031,0.446852110558717
14800.0000000363,64.9127225841845,1.00000000051934,0.453196658631008
14900.0000000367,64.6752742341403,1.00000000059034,0.474515498245608
15000.000000037,64.4419915928366,1.00000000054001,0.486855761580303
15100.0000000374,64.2136413230959,1.00000000052829,0.48818299588072
15200.0000000378,63.995060666448,1.00000000047977,0.490635877474177
15300.0000000381,63.7828970941691,1.00000000053566,0.500480477388252
15400.0000000385,63.5706821491595,1.00000000057457,0.516369229912143
15500.0000000389,63.3498233205384,1.0000000006191,0.530092909366514
15600.0000000392,63.118784214122,1.0000000005927,0.535432614115762
15700.0000000396,62.8816196799069,1.00000000054022,0.541146773541174
15800.0000000399,62.6437469130437,1.00000000051193,0.539006906577896
15900.0000000403,62.4091576834578,1.00000000051831,0.528365461486369
16000.0000000407,62.1791995473467,1.00000000048352,0.516191369723197
16100.000000041,61.9504421869712,1.00000000052213,0.507187054848193
16200.0000000414,61.7172937820648,1.00000000062378,0.514149862868813
16300.0000000418,61.4735179257421,1.00000000066735,0.530547427492753
16400.0000000418,61.2163586323309,1.00000000071864,0.546763782245611
16500.0000000404,60.9512653520291,1.00000000066029,0.549869886164424
16600.0000000389,60.6879717172921,1.00000000053197,0.536927432561973
16700.0000000375,60.4390290335454,1.00000000045961,0.512782691282148
16800.000000036,60.2172946896871,1.00000000041208,0.489335963449414
16900.0000000346,60.0299519356885,1.00000000038697,0.468930775369844
17000.0000000331,59.8761967501313,1.0000000004034,0.46008453239617
17100.0000000317,59.750047996187,1.00000000047027,0.460155470506117
17200.0000000302,59.6423601418285,1.00000000050752,0.467417952191526
17300.0000000287,59.5443555837224,1.00000000052289,0.472680820833324
17400.0000000273,59.4508968379992,1.00000000053838,0.476674984030712
17500.0000000258,59.3601554165836,1.00000000055175,0.48532406290623
17600.0000000244,59.2698660811517,1.00000000055817,0.49740493070028
17700.0000000229,59.1804057537633,1.00000000053649,0.509540215113372
17800.0000000215,59.0974891044374,1.00000000049826,0.513779597348989
17900.00000002,59.0257511339187,1.00000000045851,0.514921632581896
18000.0000000186,58.9654444465851,1.00000000046928,0.517947081428655
18100.0000000171,58.9103756540928,1.00000000049581,0.524272266283986
18200.0000000156,58.8504244299191,1.0000000005358,0.533946864824558
18300.0000000142,58.7750859467862,1.00000000060382,0.538813862279176
18400.0000000127,58.6787848961814,1.00000000064939,0.545184208761274
18500.0000000113,58.5610893295344,1.00000000063092,0.545305158409114
18600.0000000098,58.425223976024,1.00000000060866,0.54543414393667
18700.0000000084,58.2785501376573,1.00000000054178,0.553295949234915
18800.0000000069,58.1285145769978,1.00000000052512,0.55728318397804
18900.0000000055,57.9808211644777,1.00000000049973,0.551078105699025
19000.000000004,57.838690479552,1.00000000045801,0.543536653490998
19100.0000000026,57.7025585188804,1.00000000047731,0.54346115810828
19200.0000000011,57.5695746995056,1.00000000050111,0.541381764234488
19299.9999999996,57.4356346782656,1.0000000005639,0.533981137808052
19399.9999999982,57.2980347127376,1.00000000060353,0.532444218068424
19499.9999999967,57.1536163888945,1.00000000062524,0.538340901821494
19599.9999999953,57.0004419118552,1.00000000068725,0.549147220958139
19699.9999999938,56.8371443128016,1.00000000069905,0.558715265213974
19799.9999999924,56.6670458563211,1.00000000064735,0.561667223301226
19899.9999999909,56.497740441097,1.00000000052558,0.553521404009583
19999.9999999895,56.3390314807339,1.00000000047734,0.539105448025846
20099.999999988,56.2007874634644,1.00000000044512,0.521213338606144
20199.9999999865,56.0892821809727,1.00000000041858,0.502219436792373
20299.9999999851,56.006942800205,1.00000000041056,0.488467017883984
20399.9999999836,55.9526232239043,1.00000000044921,0.479364590848839
20499.9999999822,55.9219693305277,1.00000000047265,0.482753658402531
20599.9999999807,55.9090005090878,1.00000000047856,0.485402838528455
20699.9999999793,55.9084277958656,1.00000000052775,0.485335817318879
20799.9999999778,55.9145862354646,1.00000000056187,0.481684479614161
20899.9999999764,55.9207986248082,1.00000000056507,0.484251453722982
20999.9999999749,55.9272699732232,1.00000000054217,0.486783828193023
21099.9999999734,55.9387375579862,1.00000000049569,0.482076475318042
21199.999999972,55.9595743739171,1.00000000050419,0.482714177549524
21299.9999999705,55.9895516337072,1.00000000048137,0.494900731165626
21399.9999999691,56.0222934024178,1.00000000049369,0.515297745739648
21499.9999999676,56.0506763785576,1.00000000057558,0.528188112706923
21599.9999999662,56.0689002346908,1.00000000059604,0.53641278128902
21699.9999999647,56.0754445407174,1.00000000062577,0.544740362925984
21799.9999999633,56.0727977241054,1.00000000055817,0.54790016295981
21899.9999999618,56.0668018443446,1.00000000051653,0.548462698766284
21999.9999999603,56.0610463644841,1.00000000051919,0.54569914741983
22099.9999999589,56.0557294693585,1.00000000051365,0.54593135146747
22199.9999999574,56.049921069361,1.00000000051631,0.555229171638612
22299.999999956,56.0417523416732,1.00000000054272,0.564270356417198
22399.9999999545,56.0300278444844,1.00000000056261,0.566289636950944
22499.9999999531,56.010461590706,1.00000000053503,0.564148356367537
22599.9999999516,55.9806019410631,1.00000000055587,0.561210300350664
22699.9999999502,55.9386897222893,1.00000000057741,0.559821793925794
22799.9999999487,55.8849233846389,1.00000000059744,0.55433662032961
22899.9999999473,55.8193561230193,1.00000000058231,0.54022261709316
22999.9999999458,55.7436765450236,1.00000000059304,0.532613512092992
23099.9999999443,55.6586173097466,1.00000000059693,0.53977996713414
23199.9999999429,55.5650936180886,1.00000000060553,0.554185471000707
23299.9999999414,55.4637592495608,1.00000000056755,0.561289569081622
23399.99999994,55.3569035538322,1.00000000055136,0.563419691146204
23499.9999999385,55.249107421225,1.00000000052107,0.558410823548529
23599.9999999371,55.1443908619872,1.000000000471,0.554425001315632
23699.9999999356,55.0446434809481,1.00000000044515,0.555021663903612
23799.9999999342,54.9492357079875,1.0000000004703,0.559747945241015
23899.9999999327,54.8558862099963,1.00000000050434,0.557349341284901
23999.9999999312,54.7631028703172,1.00000000051633,0.55376801825422
24099.9999999298,54.6694537016837,1.00000000053364,0.554869434580957
24199.9999999283,54.5741968235114,1.00000000056112,0.554890967983706
24299.9999999269,54.4761454996835,1.00000000059005,0.552420425642021
24399.9999999254,54.3735050668959,1.00000000063789,0.54965346907577
24499.999999924,54.2656362212016,1.00000000064653,0.547741121648848
24599.9999999225,54.1512463860162,1.00000000064697,0.549977464237936
24699.9999999211,54.0307831926675,1.00000000067441,0.55370675250168
24799.9999999196,53.908151436521,1.00000000061297,0.556380290022344
24899.9999999181,53.7889283342864,1.0000000005214,0.552753202550861
24999.9999999167,53.679341200045,1.00000000048156,0.545367497189084
25099.9999999152,53.5853295882712,1.00000000045747,0.533162730166981
25199.9999999138,53.511710406562,1.00000000041728,0.52205012579065
25299.9999999123,53.4617278603481,1.00000000042431,0.515478271392381
25399.9999999109,53.4362001516195,1.00000000042017,0.50794875671745
25499.9999999094,53.4335330776679,1.00000000044542,0.49888564141617
25599.999999908,53.4494682600792,1.00000000049493,0.495482777536306
25699.9999999065,53.4808577835724,1.00000000049499,0.493793995651151
25799.9999999051,53.5257490548187,1.00000000048387,0.492600395498508
25899.9999999036,53.5795432418088,1.00000000054348,0.494682969516047
25999.9999999021,53.6365951045092,1.0000000005685,0.49811831053184
26099.9999999007,53.6960303186605,1.0000000005549,0.501145964106775
26199.9999998992,53.7596289522828,1.00000000053882,0.500055982836133
26299.9999998978,53.8292547593879,1.00000000049782,0.493968499977021
26399.9999998963,53.9049490697095,1.00000000052774,0.493110966875415
26499.9999998949,53.9841606758205,1.00000000052257,0.500336169742308
26599.9999998934,54.0650817864739,1.00000000053076,0.510996919829457
26699.999999892,54.1460036929314,1.00000000052212,0.519372329504202
26799.9999998905,54.225661977423,1.00000000052266,0.529546485912682
26899.999999889,54.302844796748,1.00000000055724,0.540420890793667
26999.9999998876,54.3754268201283,1.00000000057352,0.546227177435263
27099.9999998861,54.4419648023666,1.00000000057091,0.553641282332158
27199.9999998847,54.5025698503479,1.00000000055534,0.5643322534241
27299.9999998832,54.557680595176,1.00000000057652,0.56857160063707
27399.9999998818,54.6071665029416,1.0000000005503,0.572515507903593
27499.9999998803,54.6511918787589,1.00000000053812,0.574269152458004
27599.9999998789,54.6890836821002,1.00000000054077,0.572662670295078
27699.9999998774,54.7206053317548,1.00000000057644,0.57074934037822
27799.9999998759,54.7457407161308,1.00000000056261,0.571098710591113
27899.9999998745,54.7644498547165,1.00000000056815,0.574085127124513
27999.999999873,54.7767266281714,1.00000000057141,0.575665536803232
28099.9999998716,54.7830014296357,1.00000000054873,0.580303197570354
28199.9999998701,54.7851271397779,1.00000000051553,0.585757693277147
28299.9999998687,54.7860909556057,1.00000000054361,0.582261362235069
28399.9999998672,54.7873885307093,1.00000000052437,0.578315534880091
28499.9999998658,54.7877105288315,1.00000000054908,0.579335311208717
28599.9999998643,54.7853479415967,1.0000000005444,0.577854620662806
28699.9999998629,54.7792200430853,1.00000000055908,0.578507147307056
28799.9999998614,54.768416239254,1.00000000055428,0.575253926949267
28899.9999998599,54.7516666220304,1.00000000058715,0.570694714891001
28999.9999998585,54.7278894696203,1.00000000059824,0.569923246309831
