Time,AGPnorm,Energy,Entropy
0,0,1,-2.21570333180534e-18
99.9999999999986,0.0136668027312424,0.999999999996612,0.0344355204502129
199.999999999993,0.0348278324453653,1.0000000000004,0.100953175753878
300,0.0645772493039447,1.00000000005219,0.214961172810267
400.000000000022,0.116903358928781,1.00000000150523,0.386643501689777
500.000000000045,0.461067012941955,1.00000000345075,0.513798613174828
600.000000000068,1.54199463651727,1.00000000485263,0.574757689603786
700.000000000091,3.37000699529141,1.00000000477398,0.597217060847162
800.000000000113,5.48827600977576,1.00000000449397,0.602461159039346
900.000000000136,7.55670867396814,1.00000000447273,0.594593331141909
1000.00000000016,9.22547813415268,1.00000000373011,0.585422579071268
1100.0000000001,10.4107984078366,1.00000000333707,0.569577235946409
1200,11.0789073976734,1.00000000296359,0.564449909705464
1299.99999999991,11.2994132401307,1.00000000263085,0.547912836441201
1399.99999999982,11.2218116315427,1.00000000221974,0.518769749794545
1499.99999999973,10.9747149813045,1.00000000258543,0.524884703342203
1599.99999999964,10.6006959748683,1.00000000380194,0.577116578198556
1699.99999999955,10.180163884999,1.00000000219415,0.462843488157677
1799.99999999946,9.75923592922079,1.00000000374815,0.542216425673029
1899.99999999937,9.33382369839753,1.00000000249752,0.459775535418073
1999.99999999928,8.91672819351786,1.00000000377329,0.553997990803194
2099.99999999919,8.54192679482804,1.00000000220019,0.450002128539278
2199.99999999909,8.17115960701565,1.00000000296716,0.514012088209185
2299.999999999,7.82539684442378,1.00000000344516,0.546525519964817
2399.99999999891,7.53368641757204,1.00000000199136,0.44760142093477
2499.99999999882,7.25323433986444,1.00000000324756,0.537189970553649
2599.99999999873,6.99352867277058,1.00000000325305,0.546841314573368
2699.99999999864,6.74109829540016,1.00000000336276,0.544308048135141
2799.99999999855,6.55306257792403,1.00000000197675,0.459360956693983
2899.99999999846,6.38587723950588,1.0000000035104,0.527305301662262
2999.99999999837,6.21986593580379,1.00000000287549,0.532760684787038
3099.99999999828,6.05607487431672,1.00000000309352,0.573596019561778
3199.99999999819,5.8915836598969,1.0000000034635,0.556859745732802
3299.99999999809,5.75443863564522,1.00000000245614,0.504991152124452
3399.999999998,5.69382724746644,1.00000000297585,0.499350184770383
3499.99999999791,5.62460584559468,1.00000000330756,0.541921064346272
3599.99999999782,5.55112116828066,1.00000000308788,0.565875453362283
3699.99999999773,5.48444906899048,1.00000000311056,0.574794705171849
3799.99999999764,5.3901423943579,1.00000000359952,0.609557689397542
3899.99999999755,5.29607177541677,1.00000000336629,0.598962493117511
3999.99999999746,5.19943125898636,1.00000000352871,0.583117875995099
4099.99999999738,5.11579383978767,1.00000000279143,0.551484151699861
4199.99999999775,5.10902561911381,1.00000000232009,0.502800661885125
4299.99999999811,5.13520474227797,1.00000000348389,0.546983404839655
4399.99999999848,5.14056202196284,1.00000000327518,0.558641189288074
4499.99999999884,5.14131862966889,1.00000000313946,0.590401038728521
4599.9999999992,5.12712456935778,1.00000000353427,0.612272999032167
4699.99999999957,5.11474726668119,1.00000000339793,0.608609783159541
4799.99999999993,5.09361108101091,1.00000000357757,0.638227347126236
4900.00000000029,5.05771915497114,1.00000000329615,0.607345264233546
5000.00000000066,5.01005275559617,1.00000000353608,0.628612577113566
5100.00000000102,4.95606939662279,1.00000000352508,0.636971383228947
5200.00000000139,4.89742218926134,1.00000000344905,0.640817416752748
5300.00000000175,4.83709344699585,1.00000000386569,0.633294830805057
5400.00000000211,4.77759560727058,1.00000000388329,0.597539885798655
5500.00000000248,4.74629588981411,1.00000000273728,0.555375957279486
5600.00000000284,4.78760530369618,1.00000000260136,0.532942767645279
5700.00000000321,4.87105841794133,1.00000000368859,0.556643542323778
5800.00000000357,4.94274662550103,1.00000000395526,0.582600481961863
5900.00000000393,5.00092186974415,1.00000000341043,0.587193837883559
6000.0000000043,5.04955837065161,1.00000000364064,0.595349299760462
6100.00000000466,5.0907137501355,1.0000000035709,0.625755928071063
6200.00000000502,5.11839330307054,1.00000000359251,0.640252307949962
6300.00000000539,5.1324562399347,1.00000000387492,0.653388284196984
6400.00000000575,5.13877209129588,1.00000000398961,0.642156533065692
6500.00000000612,5.13645506767415,1.00000000411074,0.641872824374199
6600.00000000648,5.14289941107396,1.00000000341274,0.635334032952371
6700.00000000684,5.15111940816926,1.00000000375219,0.654127454019177
6800.00000000721,5.14885330123401,1.00000000407011,0.630691964182077
6900.00000000757,5.1427791512874,1.00000000362161,0.633978300104447
7000.00000000793,5.13860275402776,1.00000000374787,0.647527969514131
7100.0000000083,5.12983665715328,1.00000000394937,0.667162426666016
7200.00000000866,5.11320277989395,1.00000000375743,0.660404823451495
7300.00000000903,5.09656983274588,1.00000000382741,0.641346406863208
7400.00000000939,5.07880969082253,1.00000000404258,0.653925625723428
7500.00000000975,5.04952709779414,1.00000000427258,0.668723049088965
7600.00000001012,5.01071899610747,1.00000000399491,0.666482098426368
7700.00000001048,4.96868175848905,1.00000000369094,0.666714766952631
7800.00000001084,4.92605697514095,1.00000000395566,0.669783971073046
7900.00000001121,4.88650897647265,1.00000000438885,0.659053323663155
8000.00000001157,4.85073123051807,1.00000000427271,0.658057242299619
8100.00000001194,4.81616267873385,1.00000000421902,0.618884161931321
8200.0000000123,4.79069283255659,1.00000000388992,0.585085914457686
8300.00000001266,4.80892886566215,1.00000000314076,0.560559516443606
8400.00000001303,4.89330559799036,1.00000000320813,0.554923355669189
8500.00000001339,5.02637212726895,1.00000000357344,0.562233346543065
8600.00000001376,5.17107987939461,1.00000000440536,0.578811909386997
8700.00000001412,5.31007114545553,1.00000000450211,0.589179897192836
8800.00000001448,5.44407955562514,1.0000000042573,0.594905885692802
8900.00000001485,5.56695666968994,1.0000000042258,0.598835015092322
9000.00000001521,5.68862772046723,1.00000000438754,0.622339996794398
9100.00000001557,5.79366673139112,1.00000000425061,0.636068183191053
9200.00000001594,5.88865882751598,1.00000000419379,0.655067671431524
9300.0000000163,5.97739808970841,1.00000000421532,0.659109345359576
9400.00000001667,6.05575272721164,1.00000000421404,0.658128528953835
9500.00000001703,6.11547064469622,1.00000000439693,0.657121068053269
9600.00000001739,6.16014519288037,1.00000000455636,0.681528872882517
9700.00000001776,6.20378102833533,1.000000004143,0.685619396100543
9800.00000001812,6.25451597991925,1.00000000438394,0.678887077575426
9900.00000001848,6.30058085533121,1.00000000450183,0.68459249453884
10000.0000000188,6.33725026804457,1.00000000478427,0.697889680898766
10100.0000000192,6.37237931848123,1.00000000449808,0.695381637318753
10200.0000000196,6.40580808648055,1.00000000455542,0.69665976265748
10300.0000000199,6.43013959581384,1.00000000428069,0.693580433804925
10400.0000000203,6.45220986495039,1.00000000430226,0.698842998238964
10500.0000000207,6.46741076385109,1.00000000474463,0.685573213361292
10600.000000021,6.48062911805451,1.00000000423182,0.698073435728072
10700.0000000214,6.49277711178817,1.00000000447044,0.689415445690125
10800.0000000218,6.50308347660752,1.00000000431443,0.675816016505643
10900.0000000221,6.52588887380639,1.00000000456795,0.689348283089503
11000.0000000225,6.55876060686831,1.00000000421893,0.682599321453335
11100.0000000229,6.59954682439138,1.00000000431666,0.674628444967575
11200.0000000232,6.64450377568977,1.00000000497921,0.684451322677921
11300.0000000236,6.68288387785222,1.00000000461991,0.675168645929878
11400.0000000239,6.72576829108352,1.00000000439289,0.658123995220236
11500.0000000243,6.75902464110907,1.0000000048064,0.6598568445117
11600.0000000247,6.79730536394502,1.0000000040578,0.662644996407102
11700.000000025,6.83871602902259,1.00000000484673,0.687303739035962
11800.0000000254,6.87473507104693,1.00000000453973,0.68964159790165
11900.0000000258,6.90375350772935,1.00000000466899,0.708476391581077
12000.0000000261,6.92661476496922,1.00000000460303,0.700723314550059
12100.0000000265,6.94587760517849,1.0000000048012,0.692541330594666
12200.0000000269,6.9723638851851,1.0000000042197,0.679471652452264
12300.0000000272,7.00862049781049,1.00000000496778,0.68349253526665
12400.0000000276,7.04630714845897,1.00000000458267,0.681700462180747
12500.0000000279,7.08237879238947,1.0000000045884,0.698247279701213
12600.0000000283,7.11415880882727,1.00000000582255,0.701483944736534
12700.0000000287,7.14158948700477,1.00000000474867,0.677346834236417
12800.000000029,7.17312693093084,1.00000000483846,0.666967707405896
12900.0000000294,7.20734751098966,1.00000000469984,0.68546556177502
13000.0000000298,7.25227886438284,1.00000000457788,0.684556608737646
13100.0000000301,7.29460176148057,1.00000000532753,0.711349523429862
13200.0000000305,7.329275316507,1.00000000489712,0.69525541734721
13300.0000000309,7.36285334320437,1.00000000493357,0.712160374999126
13400.0000000312,7.39071533093418,1.00000000440874,0.707251683022069
13500.0000000316,7.4151685737717,1.00000000529129,0.700924316054456
13600.0000000319,7.44321067493608,1.00000000478205,0.705505362979593
13700.0000000323,7.46335871487859,1.00000000474208,0.698851769361127
13800.0000000327,7.48401124123233,1.00000000480761,0.71003779362016
13900.000000033,7.50873481396864,1.00000000457737,0.692450417463842
14000.0000000334,7.53089444319165,1.00000000505005,0.704702914491837
14100.0000000338,7.55226138494039,1.0000000045138,0.693556657860462
14200.0000000341,7.57227604474921,1.00000000505308,0.710462312373307
14300.0000000345,7.58563182638944,1.00000000451917,0.705901358949982
14400.0000000349,7.59802427926989,1.00000000492288,0.701061610812858
14500.0000000352,7.60909501138205,1.0000000046636,0.700976001346499
14600.0000000356,7.62017632768244,1.00000000474863,0.692563099383332
14700.0000000359,7.62585933448213,1.00000000466662,0.69412885042561
14800.0000000363,7.6260641423606,1.00000000511059,0.700427803561108
14900.0000000367,7.61883523506232,1.00000000503891,0.679323241535024
15000.000000037,7.60753029912201,1.00000000488742,0.682032190790756
15100.0000000374,7.58875650592792,1.00000000475272,0.688163101749576
15200.0000000378,7.56788763682681,1.00000000529195,0.692341298139924
15300.0000000381,7.54045969721827,1.00000000540977,0.688997535463327
15400.0000000385,7.51389480425269,1.00000000495129,0.68742562495442
15500.0000000389,7.48508880840413,1.00000000510551,0.696171832886062
15600.0000000392,7.45776487582808,1.00000000499568,0.702737378063581
15700.0000000396,7.43321325975276,1.00000000511395,0.694985961851788
15800.0000000399,7.40968095876824,1.00000000535395,0.721355911913052
15900.0000000403,7.39233291545738,1.00000000543636,0.71727179189608
16000.0000000407,7.37697525883447,1.00000000515171,0.710380496538418
16100.000000041,7.37400162866053,1.00000000564111,0.699130845665837
16200.0000000414,7.36859994524042,1.00000000491403,0.690876838023921
16300.0000000418,7.37907680591509,1.00000000525973,0.672386979921067
16400.0000000418,7.40143725648371,1.00000000511736,0.661276115083999
16500.0000000404,7.45504417576156,1.00000000520311,0.64481520225634
16600.0000000389,7.5465752099762,1.00000000475078,0.633729995665721
16700.0000000375,7.69886419041702,1.00000000493117,0.625809438870071
16800.000000036,7.90299078735264,1.00000000499258,0.631531739766279
16900.0000000346,8.17935340044155,1.00000000496771,0.635535822291584
17000.0000000331,8.48968266242864,1.00000000510723,0.634060674874688
17100.0000000317,8.84277831183378,1.00000000527861,0.647539710998031
17200.0000000302,9.1776753145442,1.00000000598369,0.650432927454225
17300.0000000287,9.52493565093192,1.00000000575304,0.656906178982601
17400.0000000273,9.8535736121454,1.00000000564494,0.661687125201398
17500.0000000258,10.1879513148563,1.00000000621324,0.656253440364244
17600.0000000244,10.5166822292464,1.00000000544541,0.657116424451334
17700.0000000229,10.8468330032771,1.00000000535386,0.656003177686185
17800.0000000215,11.1909308794477,1.00000000559598,0.657118377963534
17900.00000002,11.5249262658412,1.00000000576823,0.654266627092007
18000.0000000186,11.8668259637679,1.00000000502505,0.662807281649514
18100.0000000171,12.2048086477488,1.0000000055299,0.67178605352517
18200.0000000156,12.5458129631341,1.00000000549552,0.677045004340387
18300.0000000142,12.8695811719313,1.00000000556107,0.687654708999041
18400.0000000127,13.2025275033827,1.0000000057752,0.695613086507891
18500.0000000113,13.5288328205945,1.00000000616368,0.70237259392943
18600.0000000098,13.8309012297498,1.00000000578148,0.692965343598119
18700.0000000084,14.1258043969153,1.00000000560235,0.699339978655768
18800.0000000069,14.4025589717439,1.00000000566253,0.708313167310918
18900.0000000055,14.6918394835006,1.0000000056582,0.686280197036243
19000.000000004,14.9600727900692,1.00000000588774,0.698067726266248
19100.0000000026,15.2049271962397,1.00000000512925,0.704674190784062
19200.0000000011,15.4542078449311,1.00000000525213,0.710736284316828
19299.9999999996,15.7017860864734,1.0000000057088,0.691610666170931
19399.9999999982,15.9545395030225,1.00000000588462,0.71069505276837
19499.9999999967,16.1923235068465,1.0000000062451,0.726189872917293
19599.9999999953,16.427822616616,1.00000000642494,0.715308240324977
19699.9999999938,16.6641439501653,1.00000000524918,0.718677987127453
19799.9999999924,16.89416597556,1.00000000653678,0.723908821979651
19899.9999999909,17.1281594713402,1.00000000572097,0.725516839321832
19999.9999999895,17.3673083648859,1.00000000597472,0.725404479082618
20099.999999988,17.626915439215,1.00000000567411,0.729523408145306
20199.9999999865,17.8940156200829,1.00000000588918,0.727937871675791
20299.9999999851,18.1563300030838,1.00000000513514,0.718306763200876
20399.9999999836,18.4104880090514,1.00000000560619,0.718355140115139
20499.9999999822,18.6550199324012,1.00000000616351,0.716993047030826
20599.9999999807,18.898922585522,1.00000000591697,0.736270160038165
20699.9999999793,19.1226385478708,1.00000000584617,0.727295574611725
20799.9999999778,19.3494146308418,1.00000000583387,0.71806055250985
20899.9999999764,19.588864781659,1.00000000551122,0.713575926293637
20999.9999999749,19.853264554903,1.00000000604485,0.721055331802471
21099.9999999734,20.1208045298049,1.00000000660354,0.733365592540061
21199.999999972,20.3799912812394,1.00000000602746,0.727007518881528
21299.9999999705,20.6462671944005,1.00000000578554,0.731087599050855
21399.9999999691,20.9200101679652,1.00000000538791,0.708083779040686
21499.9999999676,21.1912490967493,1.00000000613786,0.70731272127838
21599.9999999662,21.4514187647017,1.00000000666322,0.730475609871836
21699.9999999647,21.7150419772511,1.0000000059823,0.725029369933041
21799.9999999633,21.9893028821549,1.00000000604225,0.718344409452721
21899.9999999618,22.2675395556105,1.00000000575487,0.729221849869405
21999.9999999603,22.5524014517369,1.00000000614271,0.728925085855145
22099.9999999589,22.8366256698453,1.00000000639231,0.719839240083719
22199.9999999574,23.1320677442261,1.00000000624385,0.719099561647256
22299.999999956,23.4220831677213,1.00000000677602,0.72564500233975
22399.9999999545,23.7143119623635,1.00000000675771,0.730264232602933
22499.9999999531,24.0105756538548,1.00000000602054,0.722801575512523
22599.9999999516,24.2899680829675,1.00000000569908,0.71729758961937
22699.9999999502,24.582670878908,1.00000000639199,0.709985319242409
22799.9999999487,24.8892703280689,1.00000000674991,0.729093371858079
22899.9999999473,25.1943074022149,1.00000000683585,0.732259624336998
22999.9999999458,25.495473886327,1.00000000661662,0.731343902188262
23099.9999999443,25.785800712656,1.00000000638777,0.724259291339173
23199.9999999429,26.0863626352602,1.00000000598359,0.725060857268561
23299.9999999414,26.386987462525,1.00000000666785,0.727097006036552
23399.99999994,26.6838871949123,1.00000000631765,0.72088253944193
23499.9999999385,26.977586508191,1.00000000652474,0.725529719889656
23599.9999999371,27.3023878055526,1.0000000063293,0.700381281661108
23699.9999999356,27.6508928369919,1.00000000681642,0.715828044318145
23799.9999999342,27.9902267127707,1.00000000730666,0.732052543737893
23899.9999999327,28.3113789475028,1.00000000693718,0.726780769167307
23999.9999999312,28.6260546371098,1.00000000702386,0.728989667287406
24099.9999999298,28.9356166522926,1.00000000684606,0.731635385491941
24199.9999999283,29.2485625384935,1.00000000628277,0.71522344061782
24299.9999999269,29.5783549580079,1.00000000638149,0.727766186747245
24399.9999999254,29.9217062102518,1.00000000671554,0.722273571297046
24499.999999924,30.2889538216327,1.00000000726296,0.711663247809944
24599.9999999225,30.6659815556498,1.0000000063802,0.711294166041095
24699.9999999211,31.054046041665,1.00000000679047,0.729748404089941
24799.9999999196,31.4482273352474,1.00000000668931,0.727600648502667
24899.9999999181,31.8345636704844,1.00000000680187,0.727864433052075
24999.9999999167,32.2085831375787,1.00000000757746,0.727630583055265
25099.9999999152,32.5616313064361,1.00000000742552,0.736492518795195
25199.9999999138,32.9209208898059,1.00000000687138,0.708713974600569
25299.9999999123,33.2814971538898,1.00000000674356,0.730465069214913
25399.9999999109,33.634735309742,1.00000000682904,0.707594386782072
25499.9999999094,34.0052325816071,1.0000000070557,0.714562080434297
25599.999999908,34.3815025832262,1.00000000724762,0.725288513719699
25699.9999999065,34.7510319189495,1.00000000659674,0.721144686115024
25799.9999999051,35.1249618254961,1.00000000732067,0.719688059349524
25899.9999999036,35.5198306580122,1.00000000729871,0.713651531531458
25999.9999999021,35.9335063052793,1.00000000667332,0.72509782538758
26099.9999999007,36.3512842328291,1.00000000667093,0.733729868069896
26199.9999998992,36.7579963547586,1.00000000812349,0.735161926685203
26299.9999998978,37.1513996757616,1.00000000653447,0.736235233369814
26399.9999998963,37.5437093306362,1.00000000710689,0.727149391499476
26499.9999998949,37.9365567866607,1.00000000684111,0.725470877628387
26599.9999998934,38.3384616739125,1.00000000685702,0.731218161853897
26699.999999892,38.7580124978757,1.00000000645585,0.720184277305848
26799.9999998905,39.2022960913385,1.00000000719489,0.708457420156891
26899.999999889,39.6602528581788,1.00000000727386,0.723559444028906
26999.9999998876,40.1155655634792,1.00000000735965,0.735590744620309
27099.9999998861,40.5657011867075,1.00000000798266,0.731879433982189
27199.9999998847,40.9983844306157,1.00000000702843,0.70989201985308
27299.9999998832,41.4388431422967,1.00000000711287,0.725862275801085
27399.9999998818,41.8552595891672,1.00000000726198,0.732969980059225
27499.9999998803,42.2691779913564,1.00000000740556,0.723622086563491
27599.9999998789,42.6797394831744,1.00000000705526,0.729154582049452
27699.9999998774,43.0938880492439,1.00000000678622,0.724845682292712
27799.9999998759,43.5069367920353,1.00000000862428,0.727886516435484
27899.9999998745,43.9181617106634,1.00000000682802,0.719308232380432
27999.999999873,44.348202342412,1.00000000718572,0.728617802811472
28099.9999998716,44.7935231260737,1.00000000725424,0.728096587914425
28199.9999998701,45.2375933846802,1.00000000698386,0.736886046249305
28299.9999998687,45.681976449123,1.00000000721329,0.735580651691618
28399.9999998672,46.1129771719421,1.00000000746366,0.738150323874797
28499.9999998658,46.5456709760484,1.00000000734247,0.730642808742581
28599.9999998643,46.9956116484061,1.00000000709386,0.727277012655575
28699.9999998629,47.4418734337049,1.00000000721646,0.726493361708646
28799.9999998614,47.8815416029257,1.0000000081882,0.728425174962151
28899.9999998599,48.3091670287702,1.00000000753399,0.73216539522971
28999.9999998585,48.7383638496333,1.0000000071801,0.724336498149451
