Time,AGPnorm,Energy,Entropy
0,0,1,4.27123533841986e-18
99.9999999999986,0.00206714465269478,1.00000000000129,0.00757172277635147
199.999999999993,0.00615106435271432,1.00000000000051,0.0223171221640485
300,0.013190774847683,1.00000000000083,0.0435557660372097
400.000000000022,0.0209309665545115,1.00000000000118,0.0696722359458246
500.000000000045,0.0304647063525795,1.00000000000034,0.101217418765784
600.000000000068,0.0404416358613473,1.00000000000282,0.139316104138188
700.000000000091,0.0505031711979376,1.00000000000803,0.185949927102334
800.000000000113,0.0656508226774335,1.00000000004217,0.243618889131231
900.000000000136,0.0929376838210738,1.00000000015316,0.309931028814805
1000.00000000016,0.207343334346527,1.00000000029502,0.376146775247191
1100.0000000001,0.536151697814354,1.00000000046941,0.432577274071639
1200,1.30589238842089,1.00000000063685,0.475714767644835
1299.99999999991,2.72837533580283,1.00000000067942,0.506505037079155
1399.99999999982,4.94606866597044,1.00000000083498,0.525883749165377
1499.99999999973,8.01647150958893,1.00000000078701,0.53844475227195
1599.99999999964,11.8778685439823,1.00000000095645,0.544068807695127
1699.99999999955,16.3939619937866,1.00000000085612,0.545882286621845
1799.99999999946,21.4008603889487,1.00000000088095,0.54334804589879
1899.99999999937,26.6687688698072,1.00000000083349,0.541293710995374
1999.99999999928,32.0398506792155,1.0000000008295,0.53379978778738
2099.99999999919,37.2872664504494,1.00000000076682,0.530231659276288
2199.99999999909,42.307769797153,1.00000000079779,0.519316818834578
2299.999999999,46.9364510836443,1.00000000070547,0.517883940273055
2399.99999999891,51.1288183879049,1.00000000070548,0.508368915679043
2499.99999999882,54.786818888258,1.00000000064863,0.494457948135911
2599.99999999873,57.9099801750611,1.00000000060143,0.502519411390603
2699.99999999864,60.5008113525313,1.00000000063834,0.500005343110244
2799.99999999855,62.5216939971348,1.00000000055385,0.466245371939982
2899.99999999846,63.9738939828474,1.00000000051447,0.471696339284771
2999.99999999837,64.9940010246965,1.00000000060106,0.514272387376971
3099.99999999828,65.6841102453095,1.0000000005176,0.494700239593488
3199.99999999819,65.9062845630249,1.00000000035764,0.42024714666487
3299.99999999809,65.6523828431838,1.00000000039151,0.434652198590278
3399.999999998,65.1784028305047,1.00000000061257,0.520699830055932
3499.99999999791,64.6970949388547,1.00000000061263,0.542531687677049
3599.99999999782,64.1301072594301,1.00000000050577,0.461610129417533
3699.99999999773,63.2566645067196,1.00000000022122,0.344615062348746
3799.99999999764,62.10528485505,1.00000000028644,0.382030441477884
3899.99999999755,60.8968102800149,1.00000000060472,0.495644659815219
3999.99999999746,59.8062977589028,1.00000000074048,0.551157277867149
4099.99999999738,58.8653500644913,1.00000000069091,0.545353263403822
4199.99999999775,57.9578103333144,1.00000000049029,0.454235704063573
4299.99999999811,56.921609342243,1.00000000023722,0.311886125477668
4399.99999999848,55.7529955333593,1.00000000016784,0.275998146853952
4499.99999999884,54.5634742365403,1.00000000038403,0.391940978810657
4599.9999999992,53.4056130608828,1.00000000061754,0.48875812939585
4699.99999999957,52.3138704984879,1.00000000070074,0.512557125116339
4799.99999999993,51.3253385867506,1.00000000075182,0.53227840512732
4900.00000000029,50.4428774057536,1.00000000071466,0.544458628421731
5000.00000000066,49.6020125590908,1.00000000048106,0.487062512298481
5100.00000000102,48.7297170349684,1.00000000029285,0.363434681655637
5200.00000000139,47.8358735456462,1.00000000019198,0.261527252489185
5300.00000000175,46.9968795075435,1.00000000020825,0.265183669068413
5400.00000000211,46.2472219071065,1.00000000035786,0.35393768773463
5500.00000000248,45.5293747279432,1.00000000060225,0.461806094391068
5600.00000000284,44.7928387003401,1.00000000061137,0.526048023886339
5700.00000000321,44.0493248391056,1.00000000058674,0.50297564790007
5800.00000000357,43.3179184339879,1.00000000054953,0.450291688352498
5900.00000000393,42.5967092013037,1.00000000063942,0.470589081376255
6000.0000000043,41.8922470481647,1.00000000078129,0.534921847680805
6100.00000000466,41.2244484527359,1.00000000075184,0.561988460476055
6200.00000000502,40.5925577233025,1.00000000062708,0.531924353733445
6300.00000000539,39.973057869711,1.00000000042699,0.448074877898122
6400.00000000575,39.3752934666691,1.00000000020978,0.336444216116513
6500.00000000612,38.8714984472535,1.00000000013586,0.252390331054258
6600.00000000648,38.5325859042127,1.00000000019683,0.246714960296556
6700.00000000684,38.3573195216602,1.00000000035365,0.308608481982264
6800.00000000721,38.2818042545211,1.00000000042977,0.393018701059559
6900.00000000757,38.2028535869542,1.00000000058238,0.464886154071803
7000.00000000793,38.0354859714931,1.00000000066584,0.500523676468583
7100.0000000083,37.7576782744287,1.00000000070955,0.515702646731118
7200.00000000866,37.3965336806629,1.00000000067064,0.535538881155088
7300.00000000903,37.0019866525508,1.00000000058275,0.527296884501698
7400.00000000939,36.6211480131352,1.00000000036372,0.472249582708557
7500.00000000975,36.2787306344633,1.00000000031767,0.436005175546189
7600.00000001012,35.9528122708033,1.00000000050957,0.455637238520789
7700.00000001048,35.6034032271602,1.00000000056298,0.486180330905901
7800.00000001084,35.2188259915767,1.00000000058267,0.495379859248986
7900.00000001121,34.8060827548041,1.00000000068648,0.50272007802871
8000.00000001157,34.3800282998738,1.00000000076307,0.531917350548446
8100.00000001194,33.9610235452388,1.00000000078675,0.55969217877243
8200.0000000123,33.5590543075115,1.00000000071123,0.558146744787244
8300.00000001266,33.1674161045727,1.0000000005382,0.521027319951207
8400.00000001303,32.7815771490401,1.00000000037057,0.451931820665933
8500.00000001339,32.430264106421,1.00000000020935,0.367558153277799
8600.00000001376,32.1812622184642,1.00000000013305,0.296151345272731
8700.00000001412,32.1091280320769,1.00000000014944,0.251032153589425
8800.00000001448,32.258704055333,1.00000000019127,0.250848976898431
8900.00000001485,32.6261311550566,1.00000000026939,0.288846184920974
9000.00000001521,33.1469116334857,1.00000000040666,0.344361666623798
9100.00000001557,33.7139439751624,1.00000000052485,0.409877209816114
9200.00000001594,34.2239168415522,1.00000000059722,0.464105175471707
9300.0000000163,34.6274206104229,1.00000000061175,0.499090525536057
9400.00000001667,34.9035515203988,1.00000000069622,0.523671768132193
9500.00000001703,35.0558985339878,1.00000000060018,0.544248063637063
9600.00000001739,35.1123516647875,1.00000000057395,0.548255125599313
9700.00000001776,35.1074779623706,1.00000000049323,0.525688548496088
9800.00000001812,35.068989615436,1.00000000047248,0.49226735228048
9900.00000001848,34.9950604055095,1.00000000054784,0.486066627622771
10000.0000000188,34.8664797882293,1.0000000006163,0.506609613984358
10100.0000000192,34.686798822866,1.00000000065847,0.5284057355321
10200.0000000196,34.4843898400546,1.00000000048991,0.526779481857515
10300.0000000199,34.2895758116764,1.00000000042428,0.49859260229337
10400.0000000203,34.1150338407487,1.00000000042456,0.474521955435504
10500.0000000207,33.9584333230743,1.00000000047387,0.465363291459449
10600.000000021,33.8140059549473,1.00000000046035,0.471330420574163
10700.0000000214,33.6766340584686,1.00000000046321,0.480194141997358
10800.0000000218,33.5374282012113,1.00000000049674,0.493545122547202
10900.0000000221,33.3886592153366,1.00000000052277,0.51068774419834
11000.0000000225,33.2238170284584,1.00000000051703,0.529506068915932
11100.0000000229,33.0442472957059,1.00000000047777,0.533545313474708
11200.0000000232,32.8611557276631,1.00000000039985,0.525795631439897
11300.0000000236,32.6785041468547,1.0000000004329,0.524193293987628
11400.0000000239,32.4904974064694,1.0000000004547,0.52540754386993
11500.0000000243,32.2871312634872,1.00000000048781,0.52844918291364
11600.0000000247,32.0647938366329,1.000000000564,0.528902136961952
11700.000000025,31.8245247889294,1.00000000063092,0.531082895925299
11800.0000000254,31.570340307979,1.00000000070598,0.539314594612584
11900.0000000258,31.3125613957297,1.00000000067351,0.544370798815426
12000.0000000261,31.0637622797708,1.00000000077257,0.552060114456399
12100.0000000265,30.8359457138459,1.00000000081365,0.561744513727672
12200.0000000269,30.634324266155,1.00000000074133,0.568304828356215
12300.0000000272,30.4507552135562,1.00000000066185,0.565088229966641
12400.0000000276,30.2673279892187,1.00000000056734,0.545025833286037
12500.0000000279,30.0657352650078,1.00000000045021,0.509203214224597
12600.0000000283,29.8423670688198,1.00000000033294,0.460551162782122
12700.0000000287,29.6158655601271,1.00000000024582,0.403710658304332
12800.000000029,29.4272468134143,1.00000000017127,0.347019427951915
12900.0000000294,29.3331635510049,1.000000000143,0.303517805138646
13000.0000000298,29.3924206251864,1.00000000014935,0.274225121624548
13100.0000000301,29.6563110914442,1.00000000013384,0.256363641983249
13200.0000000305,30.1601605301866,1.00000000017554,0.256127145155478
13300.0000000309,30.895156814948,1.00000000026538,0.280018688857277
13400.0000000312,31.8242475340149,1.00000000032625,0.31492800766598
13500.0000000316,32.8922025374067,1.0000000004215,0.35566900269872
13600.0000000319,34.0156117270225,1.0000000005347,0.396296019296152
13700.0000000323,35.1156616654995,1.00000000055224,0.435199298639255
13800.0000000327,36.1395972777684,1.00000000061473,0.46742173102191
13900.000000033,37.0618142402829,1.00000000063334,0.490727275570196
14000.0000000334,37.8637835263934,1.00000000060054,0.515870243951488
14100.0000000338,38.5423420088139,1.0000000006552,0.537101626946654
14200.0000000341,39.1022687129263,1.00000000060626,0.551134538678699
14300.0000000345,39.5577034412635,1.00000000055368,0.548534192991607
14400.0000000349,39.9303206067118,1.00000000053719,0.538060426257831
14500.0000000352,40.2329365027201,1.00000000054839,0.5393263813519
14600.0000000356,40.4689426877525,1.00000000054824,0.556328481717773
14700.0000000359,40.6384168070485,1.00000000055101,0.565483117110275
14800.0000000363,40.74947094462,1.00000000058463,0.565460051124632
14900.0000000367,40.810812439552,1.00000000052046,0.551539525245254
15000.000000037,40.8303327858388,1.00000000057399,0.535242073319178
15100.0000000374,40.8208262918655,1.00000000048503,0.523261720686072
15200.0000000378,40.7928549975956,1.00000000051341,0.519811685598525
15300.0000000381,40.7432682872204,1.0000000005327,0.532417440772296
15400.0000000385,40.6654888869901,1.0000000005646,0.537717750530206
15500.0000000389,40.5683543958795,1.0000000005132,0.540117206941374
15600.0000000392,40.460872457761,1.00000000051651,0.543985645222324
15700.0000000396,40.3419080660009,1.00000000055774,0.546050033497002
15800.0000000399,40.2079947269342,1.00000000056725,0.545437687987888
15900.0000000403,40.0624983037019,1.00000000052021,0.543661094301974
16000.0000000407,39.9124234850489,1.00000000051043,0.537732015360858
16100.000000041,39.7645541325499,1.00000000042375,0.523924294970426
16200.0000000414,39.6247840229787,1.00000000041303,0.518960981360828
16300.0000000418,39.4898068529601,1.00000000047527,0.52132677839619
16400.0000000418,39.3503636450679,1.00000000054717,0.523381829197394
16500.0000000404,39.2002056150625,1.00000000055761,0.526694021077244
16600.0000000389,39.0399278386959,1.00000000057048,0.531061224154788
16700.0000000375,38.8691972568841,1.00000000063953,0.540575893751725
16800.000000036,38.6856964698099,1.00000000062232,0.552697870531358
16900.0000000346,38.4935871022955,1.00000000057242,0.557242292817891
17000.0000000331,38.2988500436166,1.00000000055695,0.549988568211113
17100.0000000317,38.1087299864513,1.0000000004761,0.548780964788964
17200.0000000302,37.9313689432415,1.00000000043118,0.531784293798495
17300.0000000287,37.7770446864473,1.00000000036807,0.512429277275886
17400.0000000273,37.651170581936,1.00000000036543,0.494900721472265
17500.0000000258,37.5513462910638,1.00000000046974,0.48049786445135
17600.0000000244,37.4682688459007,1.00000000050064,0.473540042815015
17700.0000000229,37.3945795364929,1.00000000052491,0.482530047320324
17800.0000000215,37.3289541628853,1.00000000047198,0.490188090769036
17900.00000002,37.2713029058352,1.00000000046843,0.492797739934783
18000.0000000186,37.2201855314915,1.00000000046165,0.504788097997298
18100.0000000171,37.1704911975419,1.00000000050463,0.521189594135385
18200.0000000156,37.1187079022371,1.0000000004798,0.530611279237053
18300.0000000142,37.0597788048905,1.00000000053156,0.536703760831686
18400.0000000127,36.9900021550491,1.00000000055478,0.531895113032084
18500.0000000113,36.9120947326445,1.00000000052283,0.528385972855447
18600.0000000098,36.8293490571629,1.00000000049804,0.53113186750241
18700.0000000084,36.7431134914095,1.00000000052482,0.537906984829715
18800.0000000069,36.6505879950884,1.00000000051204,0.549304897791255
18900.0000000055,36.5522429615331,1.00000000051432,0.564150625602465
19000.000000004,36.4511481033475,1.00000000046835,0.571962341902649
19100.0000000026,36.3483577671276,1.00000000052105,0.573195860488422
19200.0000000011,36.2410063816821,1.00000000056401,0.572646864666332
19299.9999999996,36.1254958144791,1.00000000050447,0.579781089634542
19399.9999999982,36.0003970722943,1.00000000059428,0.584071981246689
19499.9999999967,35.8667564847081,1.00000000051588,0.579248674826192
19599.9999999953,35.7318015920975,1.00000000049314,0.580879828361166
19699.9999999938,35.6008515796489,1.00000000045664,0.574069774924018
19799.9999999924,35.4755261675178,1.00000000047728,0.565150397083666
19899.9999999909,35.350065193628,1.00000000054182,0.564194161655331
19999.9999999895,35.2193960273211,1.00000000055662,0.556418306083359
20099.999999988,35.0865557462365,1.00000000049173,0.542061948224485
20199.9999999865,34.9565545694475,1.00000000044959,0.540552970500882
20299.9999999851,34.8317125222539,1.00000000045501,0.544635480421333
20399.9999999836,34.7085389532336,1.00000000049714,0.54820673058994
20499.9999999822,34.585541263612,1.00000000048842,0.550761571528352
20599.9999999807,34.4632579727309,1.00000000049524,0.55683678196585
20699.9999999793,34.3428766459542,1.00000000047132,0.562761864341897
20799.9999999778,34.2229516193787,1.00000000052268,0.555009754542539
20899.9999999764,34.0989276578376,1.0000000005869,0.55680335497913
20999.9999999749,33.968473320267,1.00000000054414,0.565984513392741
21099.9999999734,33.8323819981504,1.00000000053919,0.560099224929528
21199.999999972,33.6934276575122,1.00000000051625,0.550515857713929
21299.9999999705,33.5521887129827,1.00000000049847,0.553802891629988
21399.9999999691,33.4080507146177,1.00000000059468,0.570047019620311
21499.9999999676,33.2617023018258,1.00000000052705,0.585034603497293
21599.9999999662,33.1152643929635,1.00000000053347,0.582417761528868
21699.9999999647,32.9699397316689,1.00000000043591,0.571751150768805
21799.9999999633,32.8266984663181,1.00000000047019,0.571216614577977
21899.9999999618,32.6841991389132,1.00000000050579,0.576827743168851
21999.9999999603,32.5398672465483,1.00000000055377,0.579248019004813
22099.9999999589,32.3949320929228,1.00000000055121,0.589060732654631
22199.9999999574,32.2505834347872,1.00000000046197,0.583971066010369
22299.999999956,32.1074411766208,1.00000000041743,0.566804670526547
22399.9999999545,31.96585029898,1.00000000037429,0.565731631989401
22499.9999999531,31.825284385648,1.00000000046167,0.572220352116126
22599.9999999516,31.6855660493343,1.00000000045823,0.577627847898374
22699.9999999502,31.5471402614462,1.00000000042341,0.574257622362116
22799.9999999487,31.4101313473439,1.00000000045961,0.571292802141226
22899.9999999473,31.2753984323639,1.00000000052818,0.580376764412009
22999.9999999458,31.1438090924932,1.00000000053665,0.586856421465815
23099.9999999443,31.0176749970604,1.00000000058422,0.57390487816212
23199.9999999429,30.8994662175668,1.00000000058047,0.573712471296784
23299.9999999414,30.7924168871323,1.00000000059617,0.590279126312195
23399.99999994,30.7028893533202,1.00000000064854,0.591780992849478
23499.9999999385,30.6338258760732,1.00000000063044,0.587452628197274
23599.9999999371,30.5935423216249,1.00000000063166,0.59142902496199
23699.9999999356,30.5847343613512,1.00000000069318,0.59859029620471
23799.9999999342,30.6178003105762,1.00000000072972,0.605641687148183
23899.9999999327,30.6976948763888,1.00000000074434,0.609478271996288
23999.9999999312,30.8277450027039,1.00000000073426,0.613310928864955
24099.9999999298,31.0138628017526,1.00000000077179,0.611509535453488
24199.9999999283,31.2476648116371,1.00000000078029,0.608940542656515
24299.9999999269,31.5437564826564,1.00000000077696,0.603946570924659
24399.9999999254,31.8789558291428,1.00000000078213,0.596141607070918
24499.999999924,32.2640054156003,1.00000000075707,0.588073890783008
24599.9999999225,32.6544224866916,1.00000000070144,0.581060030875104
24699.9999999211,33.0524870239992,1.00000000062805,0.572593227745634
24799.9999999196,33.4106226069335,1.00000000056081,0.561154374885838
24899.9999999181,33.7265063836054,1.00000000052296,0.543440401071074
24999.9999999167,33.9706900486708,1.00000000045345,0.520922517770113
25099.9999999152,34.1372628744195,1.00000000039095,0.495657405712536
25199.9999999138,34.2238403053364,1.00000000032736,0.468556795653513
25299.9999999123,34.2308382310748,1.00000000027313,0.440017641464116
25399.9999999109,34.178546015035,1.00000000025905,0.409315671960685
25499.9999999094,34.0783008213115,1.00000000021096,0.381052102062153
25599.999999908,33.9608753481541,1.00000000018701,0.355349810655302
25699.9999999065,33.8543851714065,1.00000000016707,0.329980451252578
25799.9999999051,33.7903824691538,1.00000000014039,0.306942618094879
25899.9999999036,33.8069518361972,1.0000000001273,0.289596205894287
25999.9999999021,33.9370485798697,1.00000000012534,0.273883216322146
26099.9999999007,34.210993117026,1.00000000011758,0.261634952721992
26199.9999998992,34.6684854651593,1.00000000013599,0.25639998376554
26299.9999998978,35.3124307582966,1.00000000014085,0.260409111713501
26399.9999998963,36.1893674096764,1.0000000001641,0.264761603745017
26499.9999998949,37.2682124482819,1.00000000020363,0.273628195893269
26599.9999998934,38.5814653536147,1.00000000023364,0.285965929894474
26699.999999892,40.084307841217,1.00000000028682,0.302387296364486
26799.9999998905,41.7676742362824,1.00000000036479,0.321287355587117
26899.999999889,43.5924480707668,1.00000000043062,0.341987457395005
26999.9999998876,45.511494412786,1.00000000044463,0.361126238494102
27099.9999998861,47.5169876850038,1.000000000527,0.380314349902648
27199.9999998847,49.5188799194535,1.00000000052585,0.39786387626183
27299.9999998832,51.5447863455022,1.00000000059347,0.411909088317528
27399.9999998818,53.5088421547142,1.00000000054406,0.425937444563148
27499.9999998803,55.4308112965465,1.00000000068686,0.443108852863659
27599.9999998789,57.2536964671381,1.00000000059418,0.460401961399366
27699.9999998774,58.9943928970604,1.00000000068157,0.476677140950873
27799.9999998759,60.6383515985599,1.00000000064544,0.486943651805761
27899.9999998745,62.1703806479964,1.00000000066905,0.491825561178263
27999.999999873,63.6048156314019,1.00000000064964,0.5044716012117
28099.9999998716,64.9182024147196,1.0000000006187,0.518842349909923
28199.9999998701,66.1440237875269,1.00000000061419,0.530865351367252
28299.9999998687,67.2649532240238,1.00000000057274,0.537675718051707
28399.9999998672,68.3043038794943,1.00000000064469,0.537875542289595
28499.9999998658,69.2514042037793,1.00000000061396,0.542061884998328
28599.9999998643,70.1107148028805,1.00000000057482,0.548530098334035
28699.9999998629,70.8949369410273,1.0000000006266,0.563200065234861
28799.9999998614,71.5995326904364,1.00000000055014,0.566263115733411
28899.9999998599,72.2517747010262,1.00000000056477,0.568252240043125
28999.9999998585,72.8371976194423,1.00000000053674,0.564812903844071
