Time,AGPnorm,Energy,Entropy
0,0,1,5.60599638167586e-19
99.9999999999986,0.00661439612360744,1.00000000000172,0.0198825122085803
199.999999999993,0.0182798841826547,1.00000000000059,0.057968346280183
300,0.0366802288139407,1.00000000000154,0.114592677980666
400.000000000022,0.055193136595823,1.00000000002061,0.194717574178474
500.000000000045,0.0726552603551702,1.00000000033131,0.311649521904903
600.000000000068,0.210088726554822,1.00000000129116,0.430134521159844
700.000000000091,0.741471425245784,1.00000000199972,0.508944884938261
800.000000000113,2.03457958121908,1.00000000226767,0.553089418185834
900.000000000136,4.14532367268068,1.00000000256181,0.573325168683861
1000.00000000016,6.8276207006304,1.00000000274371,0.580421507858298
1100.0000000001,9.82533564474215,1.00000000252878,0.578664678054093
1200,12.7448374463576,1.0000000024451,0.571311788725198
1299.99999999991,15.3920861700198,1.00000000210298,0.565637771860885
1399.99999999982,17.5717136138589,1.00000000205804,0.558662047750654
1499.99999999973,19.2228224904607,1.00000000185624,0.549423448358648
1599.99999999964,20.3415482316443,1.00000000166787,0.529607864248347
1699.99999999955,20.984618153968,1.00000000174315,0.552276905027964
1799.99999999946,21.1877072649538,1.00000000131979,0.517183290321718
1899.99999999937,21.1476817139296,1.00000000146293,0.540085062709385
1999.99999999928,20.7884869636246,1.00000000130821,0.497896358704821
2099.99999999919,20.3849936627554,1.00000000192182,0.56397211313297
2199.99999999909,19.8271078374797,1.00000000081257,0.410529731173512
2299.999999999,19.2121334659447,1.00000000213884,0.57853442460986
2399.99999999891,18.6730224944989,1.00000000144007,0.483298229200819
2499.99999999882,18.0487650246383,1.00000000095789,0.391881570008432
2599.99999999873,17.4191680689875,1.00000000219238,0.55688528375685
2699.99999999864,16.8787813077032,1.00000000183895,0.544259288970999
2799.99999999855,16.347971398948,1.00000000082802,0.368787218491123
2899.99999999846,15.8180055061376,1.00000000134906,0.447983722741339
2999.99999999837,15.2984646289217,1.00000000179151,0.534789565007869
3099.99999999828,14.8176908597015,1.00000000228491,0.567276886288012
3199.99999999819,14.3792337121121,1.00000000140237,0.474751529121676
3299.99999999809,13.9948045365822,1.00000000097808,0.364510743954223
3399.999999998,13.6469421302987,1.00000000169917,0.477560452994377
3499.99999999791,13.2936262524922,1.00000000168852,0.535204093952517
3599.99999999782,12.9558569663562,1.00000000162152,0.510228526144368
3699.99999999773,12.6123953375799,1.00000000233262,0.55968276709396
3799.99999999764,12.2866652394584,1.00000000173854,0.538962839452972
3899.99999999755,12.0218643792596,1.00000000092402,0.396281720891398
3999.99999999746,11.858051832731,1.00000000117301,0.388780200699332
4099.99999999738,11.7134928799244,1.00000000184285,0.497696691306823
4199.99999999775,11.545836656901,1.00000000176747,0.533970421398107
4299.99999999811,11.3599213153931,1.0000000015999,0.546114351689059
4399.99999999848,11.1756876965819,1.00000000144433,0.541385328174988
4499.99999999884,10.986369763575,1.00000000166085,0.535444643804879
4599.9999999992,10.7792925454431,1.00000000219196,0.552734541611143
4699.99999999957,10.561162070631,1.00000000228053,0.584545733198476
4799.99999999993,10.3699781974279,1.00000000116277,0.494013107631509
4900.00000000029,10.2723616610983,1.00000000090661,0.398696131541654
5000.00000000066,10.2876464803052,1.0000000013506,0.411765577632637
5100.00000000102,10.3321366795218,1.00000000166216,0.474734055967416
5200.00000000139,10.3376527434147,1.00000000187513,0.539540771286564
5300.00000000175,10.3159991078363,1.00000000160181,0.553808702428473
5400.00000000211,10.2810134172412,1.00000000158884,0.566660096850358
5500.00000000248,10.2239828113052,1.00000000175711,0.570056889876333
5600.00000000284,10.1471947928929,1.00000000164748,0.553612113599677
5700.00000000321,10.0554462440247,1.00000000181618,0.578686263632545
5800.00000000357,9.95775988240314,1.00000000151748,0.570198405203305
5900.00000000393,9.86372473259974,1.00000000145061,0.581707536918103
6000.0000000043,9.75607862130834,1.00000000179314,0.582907379103455
6100.00000000466,9.63208479455764,1.00000000201079,0.588907645740332
6200.00000000502,9.49591208983203,1.00000000234586,0.593535986861307
6300.00000000539,9.3553647775104,1.00000000183053,0.584779970504576
6400.00000000575,9.23746839982185,1.00000000124763,0.514149738513667
6500.00000000612,9.19533571309465,1.00000000091983,0.437739914978687
6600.00000000648,9.27011796450698,1.00000000110299,0.41630633234878
6700.00000000684,9.42869113662258,1.00000000140836,0.449140958286379
6800.00000000721,9.59812016455987,1.00000000187238,0.493125416991204
6900.00000000757,9.73314553518288,1.00000000173064,0.52526063059574
7000.00000000793,9.84202817787436,1.00000000181467,0.561005762562778
7100.0000000083,9.92456968678206,1.00000000174531,0.576648907571085
7200.00000000866,9.98196550844561,1.00000000163418,0.590073530522396
7300.00000000903,10.0115862120515,1.00000000190597,0.603880681615491
7400.00000000939,10.0080780904928,1.00000000186098,0.604960199446042
7500.00000000975,9.9843536529139,1.00000000164939,0.592545316913093
7600.00000001012,9.95716288263586,1.00000000177996,0.586657816081493
7700.00000001048,9.93087706118762,1.00000000161465,0.575626756389008
7800.00000001084,9.90032352859277,1.00000000180994,0.560508135316308
7900.00000001121,9.86189868293074,1.00000000189899,0.577887183712434
8000.00000001157,9.81946358138498,1.00000000159217,0.581973490209998
8100.00000001194,9.78235478666285,1.00000000158389,0.583664237408269
8200.0000000123,9.74242857459503,1.00000000164002,0.591720843686568
8300.00000001266,9.70195124339728,1.00000000181979,0.588186467932131
8400.00000001303,9.65594516055316,1.0000000017839,0.580714665199483
8500.00000001339,9.6039367468944,1.0000000018518,0.579681966158359
8600.00000001376,9.53879081036174,1.00000000175862,0.607378513943664
8700.00000001412,9.46442706042102,1.00000000171332,0.617770886525266
8800.00000001448,9.38961811575553,1.00000000144767,0.60212477119474
8900.00000001485,9.31408288230357,1.00000000161097,0.614528428294741
9000.00000001521,9.23427448168242,1.00000000184132,0.610053558518071
9100.00000001557,9.14978037955177,1.00000000212497,0.618138099322642
9200.00000001594,9.06436036247406,1.00000000229055,0.62299389908471
9300.0000000163,8.98043413912732,1.00000000232665,0.604859238891694
9400.00000001667,8.89357423291939,1.00000000229078,0.600375993127379
9500.00000001703,8.80255788013013,1.00000000179515,0.573938041010718
9600.00000001739,8.72007165954138,1.00000000132316,0.527758256970533
9700.00000001776,8.67966037155695,1.0000000010496,0.471009349966951
9800.00000001812,8.72001797255193,1.00000000108668,0.442161852197632
9900.00000001848,8.86291085821867,1.00000000109767,0.433339731463443
10000.0000000188,9.08595747805723,1.00000000146021,0.45418371142959
10100.0000000192,9.35392928175529,1.0000000017612,0.471356664154778
10200.0000000196,9.61344440023018,1.00000000188944,0.501965229246048
10300.0000000199,9.85878914672058,1.00000000205753,0.528751109569144
10400.0000000203,10.0747729024645,1.00000000185316,0.54414981539778
10500.0000000207,10.2731141300683,1.00000000183572,0.5590182473015
10600.000000021,10.4487428255506,1.00000000194219,0.581621080118682
10700.0000000214,10.6043760452263,1.00000000204741,0.602078270162956
10800.0000000218,10.7325697846855,1.00000000210237,0.603247265943683
10900.0000000221,10.8320065714032,1.00000000191827,0.614294074405407
11000.0000000225,10.9068900463376,1.00000000211726,0.633416714941029
11100.0000000229,10.961215866678,1.00000000184663,0.637858612352571
11200.0000000232,10.9987876655731,1.00000000209303,0.636976645350468
11300.0000000236,11.024179580408,1.00000000174843,0.633100088450781
11400.0000000239,11.039500035161,1.00000000193734,0.633446624523278
11500.0000000243,11.0444033611428,1.00000000175355,0.627145398649974
11600.0000000247,11.0452436717324,1.00000000187729,0.623168707690199
11700.000000025,11.03319013251,1.00000000215339,0.624985979358029
11800.0000000254,11.0149426457901,1.00000000169761,0.617082863532543
11900.0000000258,10.9931248897505,1.0000000019692,0.631742053881065
12000.0000000261,10.9619211450276,1.00000000180603,0.625975796301077
12100.0000000265,10.9268976229975,1.00000000185225,0.634151788437919
12200.0000000269,10.8855545743411,1.00000000202908,0.642383663576074
12300.0000000272,10.8377720256264,1.00000000193016,0.647418036883316
12400.0000000276,10.7871601978465,1.00000000200853,0.645681321736332
12500.0000000279,10.7413153443862,1.00000000176514,0.630685344266165
12600.0000000283,10.7038172710381,1.0000000017407,0.611235266408613
12700.0000000287,10.6745215897703,1.00000000195943,0.609377741949181
12800.000000029,10.6501765254254,1.00000000181682,0.607232578249544
12900.0000000294,10.629333725838,1.00000000175418,0.611942692252275
13000.0000000298,10.6122252995401,1.00000000180372,0.597629229152364
13100.0000000301,10.5933160395104,1.00000000207093,0.616194173728535
13200.0000000305,10.5719327834972,1.00000000194306,0.621925538006966
13300.0000000309,10.550118139934,1.00000000201445,0.61582273692792
13400.0000000312,10.5285203556878,1.00000000180992,0.605979359757271
13500.0000000316,10.511100066077,1.00000000163288,0.609395782437839
13600.0000000319,10.4973561038451,1.00000000192746,0.608621970291515
13700.0000000323,10.4836242141885,1.00000000203517,0.598251047590943
13800.0000000327,10.4626718581468,1.0000000019554,0.609750469518078
13900.000000033,10.4423433103415,1.00000000168965,0.607481106406535
14000.0000000334,10.4253184704208,1.00000000191467,0.622367791496053
14100.0000000338,10.404717504916,1.00000000188718,0.637728121076851
14200.0000000341,10.3865089297634,1.00000000181417,0.619812634489864
14300.0000000345,10.3694830132989,1.0000000021543,0.613693964081456
14400.0000000349,10.3488285118675,1.00000000197172,0.626568554011869
14500.0000000352,10.3301700999106,1.00000000185204,0.623857909767277
14600.0000000356,10.3128520875735,1.00000000196091,0.636458183850764
14700.0000000359,10.2905508111864,1.0000000021411,0.640207042355795
14800.0000000363,10.2668871371789,1.00000000177864,0.625022344416584
14900.0000000367,10.2495153813031,1.00000000181685,0.636730193824288
15000.000000037,10.2268683003528,1.0000000021843,0.647016884501219
15100.0000000374,10.1991553513361,1.00000000198901,0.632227139227403
15200.0000000378,10.1680693158734,1.00000000215132,0.639668139738266
15300.0000000381,10.1357584499777,1.00000000179365,0.6438985680179
15400.0000000385,10.1080923672678,1.00000000187547,0.653893358038304
15500.0000000389,10.0822695072181,1.00000000184718,0.646729604048183
15600.0000000392,10.0528212025356,1.00000000219938,0.647407257588397
15700.0000000396,10.0196145536929,1.00000000198517,0.641203420101731
15800.0000000399,9.98974837472987,1.00000000180118,0.633221784845811
15900.0000000403,9.95794392511398,1.00000000235786,0.649691235887915
16000.0000000407,9.92184861391493,1.00000000192797,0.640155034952492
16100.000000041,9.88768314452981,1.00000000179365,0.631088566315218
16200.0000000414,9.85454941628441,1.00000000193602,0.636949047441634
16300.0000000418,9.82010710184448,1.00000000179104,0.629497513833928
16400.0000000418,9.78412562760569,1.00000000203535,0.653080896553256
16500.0000000404,9.74531854916777,1.00000000205161,0.660967559744734
16600.0000000389,9.70403102484588,1.00000000203663,0.651449475539891
16700.0000000375,9.66186476299664,1.00000000200289,0.645969281887952
16800.000000036,9.61706924943226,1.00000000210264,0.647070268104012
16900.0000000346,9.57016078486312,1.00000000201955,0.653512555064641
17000.0000000331,9.52333556509739,1.0000000020522,0.644203198361206
17100.0000000317,9.47464841842455,1.00000000221891,0.663902754511422
17200.0000000302,9.42275884369505,1.00000000223832,0.655437425153363
17300.0000000287,9.3703604713388,1.00000000185277,0.641239477855718
17400.0000000273,9.31797235364915,1.00000000202118,0.635574191008199
17500.0000000258,9.26571115045725,1.0000000018663,0.657301192422554
17600.0000000244,9.21416421024656,1.00000000192008,0.644400385344476
17700.0000000229,9.16287481009515,1.00000000202151,0.641515723836525
17800.0000000215,9.11227118949857,1.00000000186608,0.645194757112678
17900.00000002,9.06331485803656,1.00000000188141,0.648498442663544
18000.0000000186,9.01734336116658,1.00000000198383,0.649616528742631
18100.0000000171,8.9759524444464,1.00000000226979,0.659273686684902
18200.0000000156,8.94275663456923,1.00000000223565,0.668917886070626
18300.0000000142,8.9165285383871,1.00000000225594,0.674090877603412
18400.0000000127,8.90551512348639,1.00000000232839,0.678805262300544
18500.0000000113,8.89841064011575,1.00000000238877,0.670087284940036
18600.0000000098,8.90868604310507,1.00000000251016,0.665808457948125
18700.0000000084,8.91526457014682,1.00000000242582,0.640320346349658
18800.0000000069,8.93102658517005,1.00000000232757,0.619089435404348
18900.0000000055,8.93210410629389,1.00000000229793,0.599299652265275
19000.000000004,8.92387506709296,1.00000000210005,0.594048115153945
19100.0000000026,8.89623180519144,1.00000000158683,0.575186497077543
19200.0000000011,8.85569335385615,1.0000000016574,0.546453704535536
19299.9999999996,8.81780187982301,1.00000000131105,0.513641770322384
19399.9999999982,8.79885820295866,1.0000000013805,0.495851120853992
19499.9999999967,8.82376429728078,1.00000000133353,0.476162734370695
19599.9999999953,8.91169681146192,1.00000000139436,0.46332022948153
19699.9999999938,9.08584910792529,1.00000000134711,0.461251418200003
19799.9999999924,9.34109743375198,1.00000000144308,0.454924388214532
19899.9999999909,9.69664949491009,1.0000000015744,0.466332524030002
19999.9999999895,10.1030369956464,1.00000000186721,0.476432371444738
20099.999999988,10.57849338823,1.00000000206092,0.486753613835886
20199.9999999865,11.049767042775,1.00000000232614,0.496710671373169
20299.9999999851,11.546033034072,1.0000000021553,0.514058171167925
20399.9999999836,12.0214885821383,1.00000000217354,0.515912593093821
20499.9999999822,12.4960249654471,1.00000000234145,0.528739830487867
20599.9999999807,12.9558241695206,1.00000000235964,0.538231124654223
20699.9999999793,13.3895124110381,1.00000000209113,0.54187612598185
20799.9999999778,13.8149540305788,1.00000000268991,0.559956170412702
20899.9999999764,14.2023386230252,1.00000000231591,0.567240655950919
20999.9999999749,14.5968167966641,1.00000000219341,0.577972708185804
21099.9999999734,14.9744278841795,1.00000000221642,0.588657723102088
21199.999999972,15.3472810683014,1.00000000226946,0.589159045053943
21299.9999999705,15.7192844427724,1.00000000228392,0.59598444371458
21399.9999999691,16.0590881090273,1.00000000276225,0.613671596420265
21499.9999999676,16.3822794854968,1.00000000211229,0.623894883423957
21599.9999999662,16.6824094616257,1.00000000214035,0.628818064619642
21699.9999999647,16.9766954480949,1.00000000242654,0.639660444038996
21799.9999999633,17.237526175938,1.000000002353,0.637540554903801
21899.9999999618,17.4859964886953,1.00000000216158,0.652994576438139
21999.9999999603,17.7109848122118,1.00000000257213,0.665610090598162
22099.9999999589,17.9169172018127,1.00000000252996,0.654837079836449
22199.9999999574,18.11489788896,1.00000000206845,0.660325795054485
22299.999999956,18.2985923409776,1.00000000219884,0.657675101647796
22399.9999999545,18.4852638652347,1.00000000236344,0.658664776659936
22499.9999999531,18.6522375616488,1.0000000023061,0.652723675259976
22599.9999999516,18.8094515335118,1.00000000262523,0.653094797496317
22699.9999999502,18.9528017821601,1.00000000203762,0.660437908135632
22799.9999999487,19.0930042603789,1.00000000231607,0.653455189640896
22899.9999999473,19.227504965009,1.00000000225772,0.661702271365798
22999.9999999458,19.3503731236769,1.00000000228824,0.652511168036997
23099.9999999443,19.4742858642527,1.00000000236642,0.656032743812644
23199.9999999429,19.5872921369202,1.00000000224532,0.65212029653965
23299.9999999414,19.6925111886975,1.00000000244744,0.639275975108376
23399.99999994,19.7828207714292,1.00000000212513,0.663281666214455
23499.9999999385,19.8675702431927,1.0000000021118,0.664759977310293
23599.9999999371,19.9592126882476,1.00000000228144,0.672894359066366
23699.9999999356,20.048453557982,1.00000000226894,0.661049770469516
23799.9999999342,20.1384493641164,1.00000000225,0.666703521255341
23899.9999999327,20.2190159426115,1.00000000235869,0.663043082530567
23999.9999999312,20.2944674732265,1.00000000241085,0.674154079462068
24099.9999999298,20.3575150048363,1.00000000238146,0.672571674037595
24199.9999999283,20.4196130077898,1.00000000234888,0.668343685833157
24299.9999999269,20.4809914964301,1.0000000020997,0.666997849063656
24399.9999999254,20.5495951831392,1.00000000194013,0.640329181168683
24499.999999924,20.620086491663,1.0000000023531,0.644201322541433
24599.9999999225,20.6799654509436,1.00000000229925,0.640955575075143
24699.9999999211,20.7289968015194,1.00000000233352,0.651355408735506
24799.9999999196,20.7779865902935,1.00000000224674,0.636798898066902
24899.9999999181,20.8412123723256,1.0000000020929,0.63103537465145
24999.9999999167,20.9107347109908,1.00000000259034,0.664158807261964
25099.9999999152,20.9692781700233,1.00000000253709,0.655090581937163
25199.9999999138,21.0168798233567,1.00000000231923,0.66371452225132
25299.9999999123,21.06249242184,1.00000000212233,0.667531328882583
25399.9999999109,21.1191711253087,1.00000000223677,0.666421653392499
25499.9999999094,21.1806441543152,1.00000000225538,0.673010580310989
25599.999999908,21.2404577021845,1.00000000267404,0.675760851018013
25699.9999999065,21.3045148082163,1.00000000230888,0.652476200421778
25799.9999999051,21.3765972343478,1.00000000198576,0.633107383319821
25899.9999999036,21.4419875484063,1.00000000288814,0.64631306575386
25999.9999999021,21.4918352894357,1.00000000249616,0.637250130620902
26099.9999999007,21.5354772706381,1.00000000236626,0.636789877721875
26199.9999998992,21.5843307814466,1.00000000214786,0.622755823748075
26299.9999998978,21.6437236897191,1.00000000224817,0.659752842508598
26399.9999998963,21.7027422992203,1.00000000245169,0.667081782882073
26499.9999998949,21.7555667410993,1.00000000288713,0.674004172851954
26599.9999998934,21.8041640631116,1.00000000238678,0.655517321368914
26699.999999892,21.8644115724976,1.00000000198695,0.635612698236294
26799.9999998905,21.9362939421658,1.00000000238233,0.639479860557842
26899.999999889,22.0077254856119,1.00000000242787,0.651333541227048
26999.9999998876,22.0673300297471,1.00000000261533,0.650968450262281
27099.9999998861,22.121153251121,1.00000000235969,0.649053845773528
27199.9999998847,22.1683338728904,1.00000000283125,0.664876710367499
27299.9999998832,22.2083916049472,1.00000000229308,0.643064164013869
27399.9999998818,22.254337564218,1.00000000217519,0.649437203886791
27499.9999998803,22.3019489405645,1.00000000242582,0.653637391419508
27599.9999998789,22.3425831501494,1.00000000264195,0.666582758235065
27699.9999998774,22.3743858661961,1.00000000241917,0.670776206115586
27799.9999998759,22.4048322719414,1.00000000245988,0.658494544907771
27899.9999998745,22.4403026479615,1.00000000246744,0.658951410910169
27999.999999873,22.4862332971662,1.00000000234257,0.658379267115337
28099.9999998716,22.5327153149903,1.00000000271278,0.671633614566142
28199.9999998701,22.5767954607818,1.0000000024988,0.676233956158551
28299.9999998687,22.6239590678105,1.00000000241914,0.656395819229773
28399.9999998672,22.6851419795462,1.000000002176,0.643131004753376
28499.9999998658,22.7588490976948,1.00000000295769,0.675733440166124
28599.9999998643,22.8271719772367,1.0000000025937,0.666988723473728
28699.9999998629,22.8967628723647,1.00000000262889,0.663543632399548
28799.9999998614,22.9619206746305,1.00000000252101,0.670340164004491
28899.9999998599,23.0286840734874,1.00000000268141,0.678133381548379
28999.9999998585,23.0926232249065,1.00000000284471,0.65327391076836
29099.999999857,23.1610658911048,1.00000000229549,0.66392981472493
