Time,AGPnorm,Energy,Entropy
0,0,1,-1.20128493893061e-18
99.9999999999986,0.0035324671533293,1.00000000000294,0.0120939347702619
199.999999999993,0.0103321304712472,1.00000000000016,0.0351381546848681
300,0.02124959177191,1.00000000000261,0.0685783518420085
400.000000000022,0.0334657309350615,1.00000000000116,0.110927471130345
500.000000000045,0.0474063754360755,1.00000000000617,0.165701875099522
600.000000000068,0.0645073295355722,1.00000000005372,0.238891928832371
700.000000000091,0.0880509463611787,1.00000000026204,0.328603909785755
800.000000000113,0.246621744365638,1.00000000061329,0.414334427951449
900.000000000136,0.730108800935872,1.00000000102347,0.477905237318635
1000.00000000016,1.86853140013803,1.00000000134181,0.519327151672478
1100.0000000001,3.81781607743521,1.00000000147039,0.543954712061093
1200,6.57837603857186,1.00000000148954,0.556939081848651
1299.99999999991,10.0324873921943,1.00000000157665,0.562069838994968
1399.99999999982,13.9015831977577,1.00000000144999,0.561663210808062
1499.99999999973,17.9652600479304,1.00000000148236,0.556979532358668
1599.99999999964,21.9495347025856,1.00000000129267,0.549623450850896
1699.99999999955,25.6849894241063,1.00000000135669,0.544495026456378
1799.99999999946,29.0258132909127,1.00000000121552,0.534773164419103
1899.99999999937,31.8726382888836,1.0000000012474,0.53187547606606
1999.99999999928,34.192065013689,1.00000000107521,0.513665010496075
2099.99999999919,35.9582077714257,1.00000000103627,0.528513447449155
2199.99999999909,37.2254528137197,1.0000000009085,0.498787789911086
2299.999999999,37.9496183370308,1.00000000084057,0.507306017940504
2399.99999999891,38.3512543054022,1.00000000100711,0.536908144200513
2499.99999999882,38.3708523936761,1.00000000064852,0.445661120666615
2599.99999999873,38.0074652599919,1.00000000091155,0.509914110626602
2699.99999999864,37.6012478979575,1.00000000112207,0.563287249837241
2799.99999999855,37.0678263767751,1.00000000056336,0.426720444204847
2899.99999999846,36.2510532931323,1.00000000060138,0.412850916808895
2999.99999999837,35.3982566938429,1.00000000119969,0.552943822446087
3099.99999999828,34.6787509583785,1.00000000125556,0.559063364203033
3199.99999999819,33.9468979333773,1.00000000058084,0.400081592324888
3299.99999999809,33.0696345471443,1.00000000039848,0.325898753358732
3399.999999998,32.1621282128276,1.00000000103266,0.483563408558239
3499.99999999791,31.3234562344495,1.0000000013397,0.547588774253934
3599.99999999782,30.6010397045208,1.00000000122501,0.559103246888451
3699.99999999773,29.9113272230108,1.00000000075726,0.444208183169412
3799.99999999764,29.1875481204704,1.00000000040103,0.301195577616976
3899.99999999755,28.4846214982869,1.00000000056662,0.358045870452256
3999.99999999746,27.8034467146629,1.00000000098765,0.496949251116602
4099.99999999738,27.1343917750417,1.00000000103534,0.51736410246203
4199.99999999775,26.4951007811675,1.00000000109903,0.513094543922055
4299.99999999811,25.9002600129619,1.00000000123589,0.570052143376136
4399.99999999848,25.3431202397147,1.00000000085234,0.507867899757217
4499.99999999884,24.8094032126262,1.00000000038882,0.354466753397261
4599.9999999992,24.3580964640422,1.00000000044963,0.295846595784978
4699.99999999957,24.0035660230426,1.00000000074167,0.380440302594858
4799.99999999993,23.6654702544641,1.00000000104282,0.483118381027956
4900.00000000029,23.2795857675001,1.0000000011285,0.543508478816496
5000.00000000066,22.8786053551492,1.00000000079825,0.519008999548196
5100.00000000102,22.4985938047754,1.00000000073231,0.464945058150459
5200.00000000139,22.109951263873,1.00000000103751,0.4960043360312
5300.00000000175,21.7017189758737,1.00000000133795,0.548265766439446
5400.00000000211,21.3034859440445,1.00000000119808,0.571875832716026
5500.00000000248,20.9246445746495,1.00000000080128,0.512032165395042
5600.00000000284,20.5871606861472,1.00000000043114,0.388860593360128
5700.00000000321,20.3617788535949,1.00000000033318,0.309326119164972
5800.00000000357,20.2928643354152,1.00000000052185,0.314948945405901
5900.00000000393,20.3165520279653,1.00000000083138,0.401940090560948
6000.0000000043,20.3264284253622,1.00000000103464,0.490545691617594
6100.00000000466,20.2825342707943,1.0000000009109,0.525263553011278
6200.00000000502,20.1880581565071,1.00000000092586,0.517672688751567
6300.00000000539,20.04217408785,1.00000000105167,0.535771193290758
6400.00000000575,19.8538398956034,1.00000000104142,0.544569957175356
6500.00000000612,19.6590665224474,1.00000000086013,0.519014441707776
6600.00000000648,19.4807657587064,1.00000000073371,0.504159891534016
6700.00000000684,19.3073196987198,1.00000000082788,0.51715783705743
6800.00000000721,19.1215847648769,1.0000000008891,0.518238458723426
6900.00000000757,18.9146189705821,1.00000000096412,0.523090847161359
7000.00000000793,18.6805633122262,1.00000000121994,0.533390382667489
7100.0000000083,18.4286364075661,1.00000000129349,0.563087211292354
7200.00000000866,18.1776122058106,1.00000000117895,0.576993899321907
7300.00000000903,17.9335305741791,1.00000000087533,0.543265203891
7400.00000000939,17.7085618062827,1.00000000060116,0.463152913331394
7500.00000000975,17.5531932036667,1.00000000041377,0.373678676914728
7600.00000001012,17.5340549133937,1.00000000037347,0.325866099964009
7700.00000001048,17.6910863788004,1.00000000045532,0.319252172208505
7800.00000001084,17.9891634883806,1.00000000075736,0.366489874327221
7900.00000001121,18.337533863249,1.00000000088672,0.433475745963088
8000.00000001157,18.6498881229244,1.00000000105623,0.488513945218096
8100.00000001194,18.8876334194573,1.00000000104758,0.528890314747267
8200.0000000123,19.0604834104339,1.00000000092476,0.536903262115595
8300.00000001266,19.1804577770316,1.00000000094144,0.549816501442012
8400.00000001303,19.243966564354,1.00000000102752,0.572245042024548
8500.00000001339,19.2544033367367,1.00000000090926,0.570512049431219
8600.00000001376,19.2325043135023,1.00000000091335,0.551534050525023
8700.00000001412,19.1851071592842,1.00000000095851,0.545892821005432
8800.00000001448,19.1140871101769,1.00000000098115,0.545233180424604
8900.00000001485,19.0163962131676,1.00000000102526,0.548359504982417
9000.00000001521,18.9127404847569,1.0000000008085,0.540473442253915
9100.00000001557,18.8258443963482,1.00000000071898,0.524829753005712
9200.00000001594,18.7519878074986,1.00000000084665,0.52236916518059
9300.0000000163,18.673224612063,1.00000000089189,0.528600413658538
9400.00000001667,18.5896435937623,1.00000000087441,0.536578946341402
9500.00000001703,18.5063900458691,1.0000000008344,0.536848882248648
9600.00000001739,18.4204170392564,1.00000000094037,0.543803556008259
9700.00000001776,18.3235572389397,1.00000000104513,0.550405287026991
9800.00000001812,18.2109515663902,1.00000000084506,0.562787162663262
9900.00000001848,18.0915541281075,1.00000000090255,0.57307895631609
10000.0000000188,17.9712395170309,1.00000000073261,0.56807048117643
10100.0000000192,17.8524159776555,1.00000000076879,0.565785616071641
10200.0000000196,17.7258908135532,1.00000000086866,0.573175163893945
10300.0000000199,17.5867683966688,1.00000000100501,0.574159024518563
10400.0000000203,17.4366460242462,1.00000000111361,0.58083685255489
10500.0000000207,17.2811416143054,1.00000000118897,0.588309794294169
10600.000000021,17.1293110410936,1.00000000123469,0.591908491789303
10700.0000000214,16.9887785030547,1.00000000127446,0.594390128199425
10800.0000000218,16.8589735556403,1.0000000012246,0.594041987351157
10900.0000000221,16.7290602965377,1.00000000099795,0.576009326864852
11000.0000000225,16.5885003750952,1.0000000007431,0.533819982569496
11100.0000000229,16.4438473401118,1.00000000057531,0.477602449679359
11200.0000000232,16.3260591545967,1.00000000039295,0.414465500403549
11300.0000000236,16.2830893133919,1.00000000037473,0.367208678628458
11400.0000000239,16.3637515655957,1.00000000033883,0.333860821386446
11500.0000000243,16.6060937727402,1.00000000043024,0.333923865435056
11600.0000000247,17.0037355584593,1.00000000055804,0.349585000855151
11700.000000025,17.5286353593681,1.00000000068335,0.376774813193737
11800.0000000254,18.1096547657907,1.00000000094189,0.417704167714091
11900.0000000258,18.6842431016454,1.00000000093942,0.454319421425758
12000.0000000261,19.2191205959981,1.00000000102949,0.48640333958281
12100.0000000265,19.6866104788277,1.00000000109322,0.516316945190095
12200.0000000269,20.0866389746552,1.00000000094132,0.53641851200814
12300.0000000272,20.4330664599247,1.00000000099958,0.539306946594989
12400.0000000276,20.7237949498511,1.00000000096615,0.555589093282621
12500.0000000279,20.9609187403322,1.00000000099748,0.578806630611564
12600.0000000283,21.1516236987354,1.00000000089532,0.578072982940991
12700.0000000287,21.2995799321461,1.00000000094345,0.577738349226193
12800.000000029,21.4080077925469,1.00000000093927,0.579235509346223
12900.0000000294,21.483533407657,1.0000000009312,0.590374975486157
13000.0000000298,21.5227304306129,1.00000000104112,0.600885748245307
13100.0000000301,21.5319164898679,1.0000000009264,0.583708470879481
13200.0000000305,21.5274225803026,1.00000000089182,0.566835672359762
13300.0000000309,21.5051876003615,1.00000000092924,0.557817027212847
13400.0000000312,21.4680986455498,1.00000000089132,0.559502119009683
13500.0000000316,21.427633431199,1.00000000079084,0.556893641472643
13600.0000000319,21.377826535002,1.00000000093838,0.568557733509538
13700.0000000323,21.3147766396534,1.00000000095133,0.5687255302929
13800.0000000327,21.2411235572057,1.00000000097344,0.582392887350444
13900.000000033,21.1593282890822,1.00000000095615,0.573902970154203
14000.0000000334,21.0701337127508,1.00000000098756,0.574232927088274
14100.0000000338,20.9751398952281,1.00000000092133,0.578308149150157
14200.0000000341,20.8765741159155,1.00000000092566,0.578810510794778
14300.0000000345,20.7801236707749,1.00000000080761,0.563358604655313
14400.0000000349,20.6904780771034,1.00000000076256,0.545819614619493
14500.0000000352,20.6060418439049,1.00000000094664,0.546134082149358
14600.0000000356,20.5187464197309,1.00000000097032,0.552832805942424
14700.0000000359,20.4297915815117,1.00000000095409,0.560304404847582
14800.0000000363,20.3375770611054,1.00000000102837,0.562941454646465
14900.0000000367,20.2404699147284,1.00000000096646,0.56848587052506
15000.000000037,20.1461615040139,1.00000000080939,0.567323311680474
15100.0000000374,20.062681914748,1.00000000078484,0.560867456687986
15200.0000000378,19.990769595995,1.00000000083071,0.553688675073301
15300.0000000381,19.9253386255156,1.0000000009311,0.55212065884862
15400.0000000385,19.8664514589267,1.0000000008272,0.549646850275542
15500.0000000389,19.8180271081724,1.00000000082271,0.532814937739458
15600.0000000392,19.7721407426706,1.00000000097766,0.526653227235022
15700.0000000396,19.7236485204639,1.00000000091896,0.530326007304262
15800.0000000399,19.678372593769,1.00000000078307,0.53822540116066
15900.0000000403,19.640364412262,1.00000000084772,0.551430358812499
16000.0000000407,19.6032280931801,1.0000000009288,0.573474361639153
16100.000000041,19.5619459618106,1.00000000090698,0.586494301894173
16200.0000000414,19.5159861963528,1.00000000094663,0.585435188365018
16300.0000000418,19.4626059364761,1.00000000098651,0.569047194828749
16400.0000000418,19.403723454847,1.00000000094906,0.563494864295253
16500.0000000404,19.3485827296284,1.00000000076222,0.563239221319837
16600.0000000389,19.2986214875147,1.00000000094208,0.578548027726523
16700.0000000375,19.244964937927,1.0000000009571,0.586216415587808
16800.000000036,19.1871798569617,1.00000000088045,0.596023689978853
16900.0000000346,19.1302751282267,1.00000000085849,0.593811292700728
17000.0000000331,19.0679425135651,1.00000000098919,0.604704183541323
17100.0000000317,18.9982742417058,1.00000000097432,0.60402273738361
17200.0000000302,18.9266873945748,1.00000000091732,0.59889118519553
17300.0000000287,18.8522842454004,1.00000000094206,0.600828000754271
17400.0000000273,18.7740804726936,1.00000000107986,0.608881057396157
17500.0000000258,18.6966974395229,1.00000000079067,0.601106496671881
17600.0000000244,18.62458828848,1.00000000082418,0.593351848724029
17700.0000000229,18.552367483224,1.00000000098466,0.593491226133626
17800.0000000215,18.4776501087252,1.00000000096783,0.584361413051706
17900.00000002,18.4025346096669,1.00000000087762,0.5872364183181
18000.0000000186,18.3291712772497,1.00000000086369,0.601690661145054
18100.0000000171,18.2565529037038,1.00000000093369,0.605626087943108
18200.0000000156,18.1825246583442,1.00000000089787,0.600672560547881
18300.0000000142,18.1098930598496,1.00000000085162,0.594173710946303
18400.0000000127,18.0390441825886,1.00000000087148,0.597938098934005
18500.0000000113,17.9660633248128,1.00000000092906,0.587134713734156
18600.0000000098,17.8895689819145,1.00000000094211,0.594064528722469
18700.0000000084,17.8117076459658,1.00000000093676,0.5911918948899
18800.0000000069,17.7328094805588,1.00000000101501,0.594834379687681
18900.0000000055,17.6517930737485,1.00000000088981,0.597588377311414
19000.000000004,17.5685802004713,1.00000000093135,0.613319714476373
19100.0000000026,17.4824150382736,1.00000000106926,0.61933526141116
19200.0000000011,17.395383160305,1.00000000095521,0.61861323387277
19299.9999999996,17.3093689118898,1.00000000083585,0.6016038371198
19399.9999999982,17.2247978500042,1.0000000009414,0.610870924741628
19499.9999999967,17.1387356134877,1.00000000106419,0.621475253112317
19599.9999999953,17.0519588930566,1.00000000101538,0.622901579375521
19699.9999999938,16.9663169372821,1.00000000081106,0.604640504858121
19799.9999999924,16.8812751527609,1.0000000008542,0.590646660851794
19899.9999999909,16.7968847247633,1.00000000083,0.606679768772861
19999.9999999895,16.7134636085292,1.00000000085759,0.616563902322084
20099.999999988,16.6309387251047,1.00000000077611,0.606739565442958
20199.9999999865,16.5494369536271,1.00000000082635,0.602985909722366
20299.9999999851,16.4697027130637,1.00000000086134,0.608119094205676
20399.9999999836,16.392564946067,1.00000000094171,0.616372991136778
20499.9999999822,16.3201554130619,1.00000000095192,0.60535746248617
20599.9999999807,16.2546283278804,1.00000000100609,0.610325128394034
20699.9999999793,16.1987031499868,1.00000000108194,0.621763378225112
20799.9999999778,16.1584953245507,1.00000000109203,0.621939146412256
20899.9999999764,16.1347290210206,1.00000000119215,0.629871415572672
20999.9999999749,16.1382350018793,1.00000000127209,0.633813454447155
21099.9999999734,16.1641654903768,1.00000000120168,0.633643505683933
21199.999999972,16.2299419572951,1.00000000135372,0.638062267395332
21299.9999999705,16.3199221024722,1.00000000130859,0.630381489480404
21399.9999999691,16.4519225271551,1.00000000127179,0.620417760211726
21499.9999999676,16.6019663257195,1.00000000131084,0.609599404919793
21599.9999999662,16.7819328216472,1.00000000131091,0.600506440176451
21699.9999999647,16.9589154134318,1.00000000111813,0.588822059712244
21799.9999999633,17.1256248852496,1.00000000106574,0.582463758810444
21899.9999999618,17.2576409081714,1.00000000087547,0.565558698773146
21999.9999999603,17.343866904209,1.00000000080825,0.539257655935639
22099.9999999589,17.3793742950626,1.00000000069657,0.511089710990696
22199.9999999574,17.3668739531442,1.0000000006113,0.48071009370009
22299.999999956,17.3177305289405,1.00000000052335,0.44914724619858
22399.9999999545,17.2541868088654,1.00000000046424,0.421048607121648
22499.9999999531,17.1954635643146,1.00000000040772,0.39436804034275
22599.9999999516,17.1774682858337,1.00000000037283,0.37218482908745
22699.9999999502,17.2259211999299,1.00000000035857,0.351619420560904
22799.9999999487,17.3693359480417,1.00000000037306,0.337720622998157
22899.9999999473,17.6391469429945,1.00000000041438,0.337904053572319
22999.9999999458,18.032862106167,1.00000000048111,0.340108822061511
23099.9999999443,18.5797525874306,1.00000000051104,0.346073690319094
23199.9999999429,19.2486485154312,1.00000000058017,0.361053874583838
23299.9999999414,20.0422272336512,1.00000000069732,0.372563668486936
23399.99999994,20.9271134342083,1.00000000071832,0.389953009178013
23499.9999999385,21.8660267589191,1.00000000092645,0.403794442948339
23599.9999999371,22.8479828356836,1.00000000091775,0.425565530610447
23699.9999999356,23.8179483353357,1.00000000106835,0.437657329380995
23799.9999999342,24.7966691516941,1.00000000101482,0.457910360815436
23899.9999999327,25.7269027627046,1.00000000108464,0.476172594903683
23999.9999999312,26.6413864823485,1.00000000111319,0.479373584042644
24099.9999999298,27.4893240624992,1.00000000113185,0.49667268439754
24199.9999999283,28.2968810567282,1.00000000109237,0.508521980905481
24299.9999999269,29.0545693773632,1.00000000103343,0.520654972740284
24399.9999999254,29.7513714101127,1.00000000107871,0.527660006513074
24499.999999924,30.4078030424984,1.00000000107074,0.540482118825726
24599.9999999225,31.0123949085186,1.00000000099052,0.549835092554637
24699.9999999211,31.5888657882696,1.00000000109082,0.561867525510189
24799.9999999196,32.1152647300332,1.00000000105704,0.569512439158848
24899.9999999181,32.6044371149802,1.00000000106422,0.571506977159482
24999.9999999167,33.0540186689168,1.00000000097104,0.588033868040627
25099.9999999152,33.4616402071166,1.00000000103186,0.600859673688642
25199.9999999138,33.8428220405739,1.00000000102461,0.598842611133318
25299.9999999123,34.1846202497019,1.00000000100797,0.59374401642549
25399.9999999109,34.4941641158161,1.00000000113309,0.611151044297554
25499.9999999094,34.7515975219935,1.00000000109009,0.62779280613814
25599.999999908,34.9812774895477,1.00000000102464,0.625180070062019
25699.9999999065,35.1855209321937,1.00000000100239,0.614657197486597
25799.9999999051,35.3690807628437,1.00000000102131,0.608855483356852
25899.9999999036,35.5271068181959,1.00000000110814,0.620622316258891
25999.9999999021,35.6481311294952,1.00000000116975,0.629245170936197
26099.9999999007,35.7412298632923,1.00000000105211,0.634546380787506
26199.9999998992,35.8116604698614,1.00000000099514,0.625303930877536
26299.9999998978,35.8784988169271,1.00000000095195,0.611344666154741
26399.9999998963,35.934135124815,1.00000000096736,0.603714101934255
26499.9999998949,35.9770438990853,1.00000000105196,0.613283518147656
26599.9999998934,35.9978857867383,1.0000000010421,0.623229297367822
26699.999999892,35.9974943933485,1.00000000114961,0.62415987240104
26799.9999998905,35.9851597245232,1.00000000101614,0.621293361050336
26899.999999889,35.9668851268898,1.00000000092965,0.607574128582705
26999.9999998876,35.9484364126976,1.00000000093872,0.609460939618536
27099.9999998861,35.9212264631874,1.00000000108125,0.603251889505337
27199.9999998847,35.887825833831,1.00000000100687,0.586602122329938
27299.9999998832,35.8467810980246,1.00000000109865,0.592575864839119
27399.9999998818,35.8001735044754,1.00000000107613,0.607230012816639
27499.9999998803,35.7456807104366,1.00000000109446,0.626091728173821
27599.9999998789,35.6860139891641,1.00000000102809,0.619003652022703
27699.9999998774,35.6274376199841,1.0000000009223,0.592842791178912
27799.9999998759,35.5716757538422,1.00000000086656,0.588773511290341
27899.9999998745,35.5148303693445,1.00000000108324,0.599975604815396
27999.999999873,35.4464198476355,1.00000000109,0.593229501719149
28099.9999998716,35.3700771091195,1.0000000009711,0.589982280683218
28199.9999998701,35.2917989349169,1.00000000089943,0.57414908454015
28299.9999998687,35.2147194939783,1.00000000106453,0.575498785242099
28399.9999998672,35.1369037187904,1.0000000010203,0.596150537850937
28499.9999998658,35.0535177167121,1.00000000102001,0.604488813985299
28599.9999998643,34.9638575362687,1.00000000114079,0.614738416221247
28699.9999998629,34.8714315572188,1.00000000092041,0.606007165298216
28799.9999998614,34.7830188934571,1.00000000095205,0.586998927522229
28899.9999998599,34.6984275237942,1.00000000099574,0.595736104979354
28999.9999998585,34.6143948001166,1.00000000107611,0.6003845240648
29099.999999857,34.5277951448287,1.0000000010375,0.59912927300848
