Time,AGPnorm,Energy,Entropy
0,0,1,-7.37474544413973e-17
99.9999999999986,0.00042377286272245,0.999999999997844,0.00164445566704138
199.999999999993,0.00293409118566972,0.999999999998152,0.0049144794007353
300,0.00608515982942061,1.00000000000048,0.00924613430865916
400.000000000022,0.00936854533989072,1.00000000000087,0.0147281584238701
500.000000000045,0.0133831302336624,0.999999999998569,0.0213635260856582
600.000000000068,0.0189155781980606,0.999999999997553,0.0288517663347507
700.000000000091,0.0248896900287313,0.999999999999486,0.037069195579293
800.000000000113,0.0311605984763857,1.00000000000123,0.0461082676191162
900.000000000136,0.0378928975739747,0.999999999999644,0.0560665832771199
1000.00000000016,0.0460238852370988,0.999999999997591,0.0667542084681556
1100.0000000001,0.0540231280739733,0.999999999998401,0.0782594725483074
1200,0.0622876524251952,1.00000000000091,0.090742847342264
1299.99999999991,0.0707442444396639,1.00000000000056,0.104403750701433
1399.99999999982,0.0798600484057324,0.999999999998424,0.119181513183781
1499.99999999973,0.0890148380459956,0.999999999997966,0.135335661647512
1599.99999999964,0.0982603967626607,1.0000000000007,0.153214805144103
1699.99999999955,0.107412606051754,1.00000000000376,0.173488662534079
1799.99999999946,0.11626448049998,1.00000000000673,0.196251463351252
1899.99999999937,0.125539085344147,1.00000000001792,0.221720278665541
1999.99999999928,0.13807837756115,1.00000000004029,0.249394814640065
2099.99999999919,0.159645425756997,1.00000000007934,0.278442629504715
2199.99999999909,0.193404881418909,1.0000000001218,0.307521618462894
2299.999999999,0.258180215098111,1.00000000017323,0.335391532073522
2399.99999999891,0.39053428372923,1.0000000002306,0.361087189304714
2499.99999999882,0.629828629369812,1.00000000031623,0.384547105535618
2599.99999999873,1.01113131180295,1.00000000035557,0.406273505722911
2699.99999999864,1.59181896323998,1.00000000039489,0.425573758408668
2799.99999999855,2.43947305468207,1.00000000044805,0.44254108829337
2899.99999999846,3.60023915289738,1.00000000051831,0.457556115011156
2999.99999999837,5.10614375568762,1.0000000005396,0.471377204584702
3099.99999999828,7.01090314244767,1.00000000059345,0.483422415119061
3199.99999999819,9.36119568767909,1.00000000058555,0.493925226341184
3299.99999999809,12.1600803338686,1.000000000591,0.502920605008539
3399.999999998,15.3899483503833,1.00000000060794,0.511061287335375
3499.99999999791,19.0660679038272,1.000000000659,0.517959434330853
3599.99999999782,23.2039114048348,1.00000000064213,0.524043606504435
3699.99999999773,27.7679838380089,1.00000000068509,0.528521500509142
3799.99999999764,32.6908946558149,1.00000000068553,0.5328251600013
3899.99999999755,37.9477464239374,1.00000000067609,0.536835702167985
3999.99999999746,43.5354189124541,1.00000000068351,0.539885541129929
4099.99999999738,49.4108470013155,1.0000000006263,0.541531086070585
4199.99999999775,55.490130472426,1.00000000064961,0.543170584550729
4299.99999999811,61.7120865241142,1.0000000006386,0.545605062216847
4399.99999999848,68.0702544629238,1.00000000060293,0.54582773247631
4499.99999999884,74.5356743728767,1.00000000058848,0.545934559074574
4599.9999999992,81.0374659145909,1.0000000006087,0.546665328040477
4699.99999999957,87.505594923501,1.00000000065359,0.545772222577708
4799.99999999993,93.9214654211033,1.00000000057521,0.546117352517013
4900.00000000029,100.277596820256,1.00000000059668,0.545209592122358
5000.00000000066,106.528670291807,1.00000000056125,0.543699607635289
5100.00000000102,112.61980032336,1.00000000058731,0.543654933698887
5200.00000000139,118.520692011189,1.00000000057789,0.542438956614162
5300.00000000175,124.233810500863,1.00000000057045,0.540524146697412
5400.00000000211,129.748796127178,1.00000000051673,0.539797748501646
5500.00000000248,135.028087620749,1.00000000053806,0.538540291970798
5600.00000000284,140.043437706906,1.00000000054136,0.536855296527045
5700.00000000321,144.792433408096,1.00000000050494,0.535584703452631
5800.00000000357,149.284244226576,1.00000000051178,0.534648850427739
5900.00000000393,153.501921545063,1.00000000049621,0.532436525141436
6000.0000000043,157.426604651569,1.00000000047425,0.530392132608521
6100.00000000466,161.052167379759,1.00000000046237,0.530167641957384
6200.00000000502,164.393987476655,1.00000000044913,0.530310981420452
6300.00000000539,167.456576535381,1.00000000044576,0.526544449644837
6400.00000000575,170.228786492923,1.00000000042623,0.521985665503221
6500.00000000612,172.707144337422,1.00000000040208,0.523701184542599
6600.00000000648,174.909983358445,1.00000000042678,0.528211771320353
6700.00000000684,176.856409384339,1.00000000041635,0.525787080657242
6800.00000000721,178.539537007844,1.0000000003858,0.51495732335235
6900.00000000757,179.946319190063,1.00000000037039,0.511010342918692
7000.00000000793,181.093375376456,1.0000000003801,0.522488196615336
7100.0000000083,182.028832770792,1.00000000040663,0.533369109518233
7200.00000000866,182.777703890772,1.00000000040796,0.526425139608764
7300.00000000903,183.310073999775,1.00000000035124,0.503213895385133
7400.00000000939,183.591365152215,1.00000000031956,0.494234259658398
7500.00000000975,183.651297431323,1.00000000034731,0.515928759726645
7600.00000001012,183.572571636016,1.00000000041421,0.540757739242469
7700.00000001048,183.407600273671,1.00000000041422,0.541947290749612
7800.00000001084,183.128917540406,1.00000000035541,0.51143762221809
7900.00000001121,182.662684900666,1.00000000025452,0.473763346326282
8000.00000001157,181.986120997337,1.00000000024518,0.4762048500346
8100.00000001194,181.171551486962,1.00000000037251,0.518251086235126
8200.0000000123,180.318072896308,1.00000000046284,0.551088085898778
8300.00000001266,179.474016618541,1.00000000046193,0.552646754299901
8400.00000001303,178.605744238202,1.00000000039269,0.517512267555377
8500.00000001339,177.629518936137,1.00000000025582,0.458670631678799
8600.00000001376,176.492266560009,1.00000000018691,0.431049306251888
8700.00000001412,175.227477557569,1.00000000027291,0.474277386689423
8800.00000001448,173.925732236953,1.0000000004359,0.530897105196815
8900.00000001485,172.663565498483,1.00000000054453,0.558215289067928
9000.00000001521,171.466456316474,1.00000000053202,0.555921641669841
9100.00000001557,170.299559719398,1.00000000041338,0.516947561078828
9200.00000001594,169.086374565982,1.00000000026402,0.444577866827724
9300.0000000163,167.76540357983,1.00000000015525,0.390365059103296
9400.00000001667,166.342557834106,1.00000000020233,0.410657979158996
9500.00000001703,164.880268050629,1.00000000036653,0.480809886971397
9600.00000001739,163.441916149095,1.00000000052476,0.533763817572294
9700.00000001776,162.066683741267,1.00000000057837,0.555050328624301
9800.00000001812,160.764657283526,1.00000000054594,0.552785822031571
9900.00000001848,159.51168710732,1.00000000046736,0.523203772409665
10000.0000000188,158.260040725452,1.00000000032237,0.458440761405764
10100.0000000192,156.960627562781,1.00000000020579,0.382250428789203
10200.0000000196,155.597996475631,1.00000000015092,0.352893104948481
10300.0000000199,154.195098641389,1.00000000023986,0.393410257687607
10400.0000000203,152.789600481876,1.00000000037607,0.465494163828245
10500.0000000207,151.411000791147,1.00000000050465,0.517824953869682
10600.000000021,150.077801123117,1.00000000054045,0.540169924895981
10700.0000000214,148.799518288618,1.00000000059861,0.545172806536987
10800.0000000218,147.571773290023,1.00000000050483,0.536200715385356
10900.0000000221,146.376090210923,1.00000000043395,0.506369582395136
11000.0000000225,145.185465256809,1.00000000034398,0.451189506623431
11100.0000000229,143.979392242587,1.00000000023571,0.388138005248762
11200.0000000232,142.754184903979,1.00000000018865,0.350884186792975
11300.0000000236,141.521876683945,1.00000000020334,0.361467365449084
11400.0000000239,140.29751395381,1.00000000028079,0.407613626224313
11500.0000000243,139.089200338465,1.00000000038303,0.466798145135025
11600.0000000247,137.90013725008,1.00000000045324,0.506408698908902
11700.000000025,136.733971564582,1.00000000050912,0.519705431527444
11800.0000000254,135.594938906252,1.00000000051077,0.523863914734089
11900.0000000258,134.485195126944,1.00000000050745,0.531942248232205
12000.0000000261,133.402167582322,1.00000000048214,0.529772612438754
12100.0000000265,132.337999549072,1.00000000039992,0.502916063241751
12200.0000000269,131.283968813278,1.00000000032088,0.457531466450189
12300.0000000272,130.236739907892,1.00000000025838,0.412105083548253
12400.0000000276,129.200566537568,1.00000000023159,0.380260288059516
12500.0000000279,128.183563730975,1.00000000024836,0.370604453329709
12600.0000000283,127.191424535718,1.00000000026589,0.39085563889309
12700.0000000287,126.224210183834,1.0000000002982,0.420796413628521
12800.000000029,125.277100218971,1.00000000036016,0.454907452810978
12900.0000000294,124.343776969964,1.00000000038951,0.490183978633818
13000.0000000298,123.420906341474,1.00000000039578,0.505670633877526
13100.0000000301,122.508028376835,1.00000000041917,0.500310516431081
13200.0000000305,121.603808147832,1.00000000043819,0.498203310235095
13300.0000000309,120.706397901451,1.00000000050171,0.511185304570243
13400.0000000312,119.816371036107,1.00000000050698,0.531628964129111
13500.0000000316,118.936555447338,1.0000000005033,0.536513415539046
13600.0000000319,118.069429260925,1.00000000041273,0.515606140002733
13700.0000000323,117.217510143756,1.00000000031775,0.473052195882103
13800.0000000327,116.386491398407,1.00000000025468,0.427632714750066
13900.000000033,115.584803471028,1.00000000021655,0.394473411142983
14000.0000000334,114.817593351121,1.00000000026128,0.382820354314064
14100.0000000338,114.083973951799,1.00000000031023,0.38850188572242
14200.0000000341,113.379802364208,1.00000000034276,0.410029990855707
14300.0000000345,112.699479931587,1.00000000036817,0.43952669287542
14400.0000000349,112.035631072394,1.00000000037439,0.460030151811655
14500.0000000352,111.380112523643,1.00000000039338,0.476872885373876
14600.0000000356,110.728288323819,1.00000000040571,0.491769001204604
14700.0000000359,110.081113347521,1.00000000038955,0.499749874386691
14800.0000000363,109.443631383663,1.00000000033866,0.494478397632514
14900.0000000367,108.818114123077,1.0000000003261,0.481754556266405
15000.000000037,108.199176750753,1.00000000037778,0.480073363364929
15100.0000000374,107.576250741176,1.0000000004937,0.49240625282368
15200.0000000378,106.941632935575,1.00000000050989,0.511839917519987
15300.0000000381,106.296090480326,1.00000000053114,0.530802038547469
15400.0000000385,105.64599949921,1.00000000048858,0.536681387894407
15500.0000000389,104.998513517678,1.00000000043575,0.525109396766216
15600.0000000392,104.36174375011,1.00000000038376,0.498038013583272
15700.0000000396,103.744759755281,1.00000000030513,0.460922807926001
15800.0000000399,103.159169986341,1.00000000023975,0.426905818260454
15900.0000000403,102.615134627166,1.00000000020438,0.400929807497562
16000.0000000407,102.116876222847,1.00000000022996,0.387311155701742
16100.000000041,101.659603626231,1.0000000002877,0.390349174783691
16200.0000000414,101.23256149218,1.00000000033577,0.410766482604032
16300.0000000418,100.824094971561,1.00000000038045,0.433038501112567
16400.0000000418,100.426477546664,1.00000000038541,0.452118522440118
16500.0000000404,100.035099078228,1.00000000039005,0.468308662527242
16600.0000000389,99.6461959690073,1.00000000041062,0.479904120541856
16700.0000000375,99.2571260892646,1.00000000041658,0.488469827433508
16800.000000036,98.8645491268261,1.00000000040733,0.498125770130668
16900.0000000346,98.4680578468453,1.00000000038409,0.506816079167304
17000.0000000331,98.0691160856134,1.00000000035362,0.512325667498612
17100.0000000317,97.6736155283176,1.00000000033837,0.513803329059728
17200.0000000302,97.2856291453392,1.0000000003124,0.508434228308341
17300.0000000287,96.9048980810153,1.00000000032116,0.501971266958797
17400.0000000273,96.525529969081,1.00000000035499,0.497284175478602
17500.0000000258,96.1407840991515,1.00000000039622,0.491674030519861
17600.0000000244,95.7451928879611,1.00000000044045,0.494533853698873
17700.0000000229,95.3354628305379,1.00000000046292,0.503916096938317
17800.0000000215,94.9103901508816,1.00000000049969,0.518187303199321
17900.00000002,94.4718208813343,1.00000000050344,0.534497974613709
18000.0000000186,94.0261333128334,1.00000000047303,0.541889679095566
18100.0000000171,93.5816396004206,1.00000000043426,0.53273275293128
18200.0000000156,93.1488041456216,1.00000000034507,0.508650072595778
18300.0000000142,92.7384335700143,1.00000000028412,0.476872462990171
18400.0000000127,92.3609740840971,1.00000000023504,0.446705909756035
18500.0000000113,92.0237646989759,1.00000000024456,0.428557666912443
18600.0000000098,91.7293295141854,1.00000000025419,0.420157381056962
18700.0000000084,91.4765254024988,1.00000000028762,0.415775279169444
18800.0000000069,91.2615177215538,1.0000000002895,0.415869815009956
18900.0000000055,91.0768475778386,1.00000000034125,0.418636974297708
19000.000000004,90.9109889546964,1.00000000036534,0.43330382805943
19100.0000000026,90.7512256841609,1.00000000041219,0.453162966744459
19200.0000000011,90.5886775934738,1.00000000041137,0.472686939462427
19299.9999999996,90.4226409997487,1.00000000039855,0.484456781750125
19399.9999999982,90.25945753569,1.00000000035978,0.487412016685129
19499.9999999967,90.107289651826,1.00000000033297,0.48567580854956
19599.9999999953,89.9692840724015,1.00000000032871,0.483879730295321
19699.9999999938,89.8410526393564,1.00000000032739,0.488997091106336
19799.9999999924,89.7130669902255,1.00000000037794,0.501490003927203
19899.9999999909,89.5726824410168,1.00000000042381,0.515206031443464
19999.9999999895,89.4101516181255,1.00000000047298,0.525678271993759
20099.999999988,89.2218836782945,1.00000000045887,0.532043329296047
20199.9999999865,89.0100717341748,1.00000000043071,0.535776631751878
20299.9999999851,88.7811559981151,1.00000000038714,0.540110238580137
20399.9999999836,88.5446167018227,1.00000000037251,0.540318833952625
20499.9999999822,88.3083743943549,1.00000000032899,0.531810281603994
20599.9999999807,88.0765825681743,1.00000000031287,0.520146502632312
20699.9999999793,87.8522963018504,1.00000000029695,0.512074504860047
20799.9999999778,87.6346122423525,1.00000000031748,0.50763465160865
20899.9999999764,87.420417515449,1.00000000035213,0.503251855768331
20999.9999999749,87.2038733804725,1.00000000039405,0.501121585992288
21099.9999999734,86.9787745402456,1.00000000043293,0.505092276445123
21199.999999972,86.7402274352844,1.00000000047543,0.514139817769811
21299.9999999705,86.4842883494618,1.00000000050458,0.5252072852666
21399.9999999691,86.2112567617027,1.00000000050243,0.535965968735508
21499.9999999676,85.9237407548382,1.00000000049074,0.544003841036584
21599.9999999662,85.6278623182567,1.00000000045922,0.547012147862109
21699.9999999647,85.3313865421778,1.00000000042441,0.54309169603484
21799.9999999633,85.0427079873091,1.00000000035938,0.529551261030845
21899.9999999618,84.7706551836247,1.00000000032501,0.505092393597646
21999.9999999603,84.5233643033289,1.00000000026584,0.480997869792074
22099.9999999589,84.3087011033418,1.00000000024712,0.461952341340092
22199.9999999574,84.1323203130776,1.00000000024954,0.445736138665878
22299.999999956,83.9976096363173,1.00000000024149,0.437090195128864
22399.9999999545,83.9041118096392,1.00000000026996,0.432000667992933
22499.9999999531,83.846774725115,1.00000000028858,0.428361567218972
22599.9999999516,83.8177735433196,1.00000000032845,0.42877190293973
22699.9999999502,83.8077607214527,1.00000000036207,0.433547566161491
22799.9999999487,83.8088322157259,1.00000000036895,0.439049522442952
22899.9999999473,83.8165477777687,1.00000000035282,0.444518699255046
22999.9999999458,83.8289352088985,1.00000000037541,0.449557993287898
23099.9999999443,83.8451472528773,1.00000000038577,0.459645932056203
23199.9999999429,83.8632454849824,1.0000000003662,0.473845390024674
23299.9999999414,83.8802781080215,1.00000000035896,0.48440832228991
23399.99999994,83.8936720028881,1.00000000040117,0.49278896539628
23499.9999999385,83.901246225841,1.00000000036569,0.502464348611212
23599.9999999371,83.9017101538321,1.00000000040172,0.513799470523811
23699.9999999356,83.8960025139608,1.00000000037616,0.524111379955684
23799.9999999342,83.8872352772395,1.00000000037516,0.528257894333644
23899.9999999327,83.8789035838473,1.00000000035738,0.528846706360784
23999.9999999312,83.8729582703507,1.00000000033713,0.52915294508321
24099.9999999298,83.8678680918848,1.00000000032706,0.531258858689451
24199.9999999283,83.8605441737709,1.00000000036441,0.535592995719783
24299.9999999269,83.8463486528656,1.00000000038056,0.537849889152744
24399.9999999254,83.8204155501773,1.00000000040274,0.537829558657624
24499.999999924,83.7804024734342,1.00000000039192,0.537253182424534
24599.9999999225,83.7250708163176,1.0000000004079,0.534262637882288
24699.9999999211,83.6535000509511,1.00000000040246,0.530513879467002
24799.9999999196,83.5645468516167,1.00000000040965,0.526293574617605
24899.9999999181,83.4574879237599,1.00000000040561,0.522589804466007
24999.9999999167,83.3338706695708,1.000000000425,0.528287867084124
25099.9999999152,83.1972876269566,1.00000000042992,0.535946659063643
25199.9999999138,83.0523776524858,1.00000000041586,0.539234523570356
25299.9999999123,82.9035358336799,1.00000000039574,0.539117320731956
25399.9999999109,82.7538718154057,1.00000000036285,0.538455521099459
25499.9999999094,82.6055311270949,1.00000000034332,0.537734466313436
25599.999999908,82.4602295198096,1.00000000032756,0.536367012263499
25699.9999999065,82.319089521809,1.00000000032132,0.535620694112881
25799.9999999051,82.1823043432659,1.00000000033416,0.536758534617048
25899.9999999036,82.0483404682934,1.00000000032375,0.536790013441935
25999.9999999021,81.9149438346071,1.0000000003358,0.535024210222335
26099.9999999007,81.7802300707102,1.0000000003484,0.533774751243657
26199.9999998992,81.6424848184876,1.00000000036086,0.534043325635219
26299.9999998978,81.4996014308616,1.00000000038917,0.533728493541396
26399.9999998963,81.3491789655473,1.00000000040863,0.532158738904442
26499.9999998949,81.1893186362592,1.0000000004497,0.529290857423104
26599.9999998934,81.0188761876058,1.00000000047563,0.527662094841278
26699.999999892,80.8366637325644,1.00000000047624,0.529518376954957
26799.9999998905,80.6422591882881,1.0000000004839,0.534123729916477
26899.999999889,80.4375065296576,1.0000000004952,0.540518195530586
26999.9999998876,80.2264843170932,1.00000000045121,0.545558674664942
27099.9999998861,80.0144647101565,1.00000000042147,0.545466488268522
27199.9999998847,79.8069540531515,1.00000000038791,0.54025165583462
27299.9999998832,79.6099953585552,1.00000000031804,0.527670865489348
27399.9999998818,79.4297894912784,1.00000000028519,0.511831319850209
27499.9999998803,79.2721726913713,1.00000000027216,0.496877156682679
27599.9999998789,79.1421755951998,1.0000000002581,0.483575247442363
27699.9999998774,79.0440228534997,1.00000000026602,0.472110940015346
27799.9999998759,78.9803776705818,1.00000000024814,0.462632008915525
27899.9999998745,78.9520601487279,1.0000000002681,0.451884748052633
27999.999999873,78.9578403053068,1.00000000026933,0.444805480390371
28099.9999998716,78.9937754953323,1.00000000030422,0.443297643513192
28199.9999998701,79.0541816150012,1.00000000034768,0.446355940038841
28299.9999998687,79.1331886308819,1.00000000034463,0.452840187968498
28399.9999998672,79.2253625529251,1.00000000036167,0.456475990286375
28499.9999998658,79.3271222990689,1.00000000037568,0.457145589899169
28599.9999998643,79.4363530703118,1.0000000003429,0.456269269381715
28699.9999998629,79.5502094374674,1.00000000038596,0.458941039197024
28799.9999998614,79.6653828729867,1.00000000037741,0.46569071769403
28899.9999998599,79.7803770358174,1.00000000039826,0.472727778310208
28999.9999998585,79.8960604461778,1.00000000036252,0.48098799671052
