Time,AGPnorm,Energy,Entropy
0,0,1,3.73733092111724e-19
99.9999999999986,0.00955386296189147,0.999999999994819,0.0248872237440794
199.999999999993,0.0241469131007253,1.00000000000062,0.0734474235429641
300,0.0481054817735898,0.999999999997244,0.148184544578602
400.000000000022,0.0720031091018128,1.00000000018063,0.263951691114987
500.000000000045,0.133776189637947,1.00000000128835,0.408438016195354
600.000000000068,0.556809432490337,1.00000000245526,0.507797329074704
700.000000000091,1.73272234346711,1.00000000330984,0.560027365159077
800.000000000113,3.64885108717472,1.00000000382118,0.583555124611834
900.000000000136,6.13701598980501,1.00000000349467,0.588632260025167
1000.00000000016,8.7172708052327,1.00000000321874,0.586163668650667
1100.0000000001,11.140606259586,1.00000000287597,0.578787835867888
1200,13.1377971150174,1.000000002624,0.566612568905786
1299.99999999991,14.6200303952593,1.00000000238271,0.56043151010225
1399.99999999982,15.5801038052952,1.00000000216494,0.54949670887037
1499.99999999973,16.0669548820362,1.00000000190916,0.534829292036265
1599.99999999964,16.1877316456286,1.00000000209251,0.567736421881302
1699.99999999955,15.9808295793686,1.00000000185949,0.532292010876637
1799.99999999946,15.6828458215151,1.00000000177861,0.506428242357394
1899.99999999937,15.1961374115204,1.00000000246823,0.552397833718921
1999.99999999928,14.7439163334221,1.00000000186344,0.485881080223691
2099.99999999919,14.1899975440377,1.00000000215199,0.480733874071828
2199.99999999909,13.6875808451491,1.00000000264295,0.558671704730662
2299.999999999,13.1969920242352,1.00000000116823,0.394407626066629
2399.99999999891,12.6836534141131,1.00000000235044,0.513184989864201
2499.99999999882,12.2167711984086,1.00000000271966,0.556270776427251
2599.99999999873,11.7908666785295,1.0000000013259,0.414345700620298
2699.99999999864,11.385465992329,1.00000000190124,0.467391363974194
2799.99999999855,10.989565359416,1.0000000021172,0.526809798745752
2899.99999999846,10.6145840077174,1.00000000276792,0.554963426719726
2999.99999999837,10.2772923662433,1.00000000142615,0.467641190359537
3099.99999999828,10.011174837791,1.0000000014782,0.412669809045254
3199.99999999819,9.74871649400783,1.0000000023716,0.518868636853199
3299.99999999809,9.49185880120402,1.00000000188398,0.525026383830814
3399.999999998,9.24280601738875,1.00000000238656,0.533715845015083
3499.99999999791,8.98601936913495,1.00000000267097,0.558439999058039
3599.99999999782,8.76428231061697,1.00000000154081,0.478731872939244
3699.99999999773,8.6286766822563,1.00000000157663,0.432603627040334
3799.99999999764,8.52708551112342,1.00000000212868,0.498236037041535
3899.99999999755,8.40750223249834,1.0000000020998,0.529469305663424
3999.99999999746,8.28646695260185,1.00000000224458,0.553445441148303
4099.99999999738,8.14965747288175,1.00000000230472,0.575454990860027
4199.99999999775,8.00924734256315,1.00000000198736,0.556264883958752
4299.99999999811,7.86006657476401,1.00000000260822,0.558507970490054
4399.99999999848,7.69984429724599,1.00000000261273,0.57137140550813
4499.99999999884,7.5723251333442,1.00000000156649,0.500836943476589
4599.9999999992,7.53772239605749,1.00000000137047,0.445520560161969
4699.99999999957,7.56156108261218,1.00000000221067,0.478663302901461
4799.99999999993,7.57474282569321,1.00000000207328,0.517563260902915
4900.00000000029,7.56841857269024,1.00000000221888,0.558249578966554
5000.00000000066,7.54379364772555,1.00000000227937,0.574586263186421
5100.00000000102,7.50942994194839,1.00000000214298,0.584136703924013
5200.00000000139,7.46807937267209,1.00000000218265,0.583977723373969
5300.00000000175,7.41069257725212,1.00000000229639,0.572451656951106
5400.00000000211,7.33609420924113,1.00000000217832,0.589913431775797
5500.00000000248,7.25888285409407,1.00000000197185,0.5949950250937
5600.00000000284,7.17823738862835,1.00000000204445,0.591329077726831
5700.00000000321,7.08823095999904,1.00000000259081,0.602213501436745
5800.00000000357,6.99032897582136,1.0000000027778,0.586151434992241
5900.00000000393,6.88790472159343,1.0000000022679,0.57276306442561
6000.0000000043,6.81559275204241,1.00000000156411,0.519235041606205
6100.00000000466,6.82409640387211,1.00000000141567,0.468721725795531
6200.00000000502,6.91466438198225,1.00000000175836,0.48150830469508
6300.00000000539,7.02420639100184,1.00000000257926,0.518618798106044
6400.00000000575,7.11887877837837,1.00000000219301,0.543933445644485
6500.00000000612,7.19718343071366,1.00000000215879,0.564145251869224
6600.00000000648,7.26123511858781,1.00000000211708,0.591804924633395
6700.00000000684,7.30029283340492,1.00000000219646,0.613091786296253
6800.00000000721,7.32167227019954,1.00000000236529,0.625100926726001
6900.00000000757,7.32557919037514,1.00000000227579,0.630609411303933
7000.00000000793,7.31101064998609,1.00000000241491,0.631330529752137
7100.0000000083,7.28791236366356,1.00000000214765,0.616983184760101
7200.00000000866,7.26874719972093,1.00000000210503,0.615212394279373
7300.00000000903,7.25476907675589,1.00000000227723,0.602616298756706
7400.00000000939,7.22360538955173,1.000000002304,0.612264580958866
7500.00000000975,7.18987857805584,1.00000000229123,0.617458472837968
7600.00000001012,7.16207114220195,1.0000000021671,0.626838292711612
7700.00000001048,7.12706559876689,1.00000000228762,0.633215733461083
7800.00000001084,7.0902454767577,1.00000000233344,0.629950897683432
7900.00000001121,7.05093853904799,1.00000000221765,0.609542678849226
8000.00000001157,7.00864989779668,1.00000000239329,0.618078670519297
8100.00000001194,6.95403840674556,1.00000000231238,0.644269688226993
8200.0000000123,6.89269454245019,1.00000000244025,0.639741322463195
8300.00000001266,6.82967050545823,1.00000000207256,0.637939598258065
8400.00000001303,6.76652822688228,1.00000000226734,0.646570882695969
8500.00000001339,6.70267225378947,1.00000000250543,0.649487923569278
8600.00000001376,6.63932951885196,1.0000000026462,0.665462509683582
8700.00000001412,6.57675680010546,1.00000000262403,0.655456623057364
8800.00000001448,6.51059887856635,1.0000000027831,0.634677261609437
8900.00000001485,6.44230738636443,1.00000000224355,0.598341311562953
9000.00000001521,6.39386358881128,1.00000000163472,0.547266492897971
9100.00000001557,6.40010350768561,1.00000000156994,0.509353202824697
9200.00000001594,6.48496128000293,1.0000000017403,0.495027340908019
9300.0000000163,6.63353477622912,1.00000000211117,0.500540263121493
9400.00000001667,6.8053907127716,1.00000000226749,0.524239982750033
9500.00000001703,6.97655185734738,1.00000000244874,0.537739408454579
9600.00000001739,7.13153797936829,1.00000000237142,0.55225401770002
9700.00000001776,7.27557120391092,1.00000000259091,0.568916233109208
9800.00000001812,7.40089590022174,1.00000000232623,0.576598519853035
9900.00000001848,7.51627863509486,1.00000000257383,0.596356666122393
10000.0000000188,7.61194833945468,1.00000000243506,0.614777563125946
10100.0000000192,7.69271283714771,1.00000000242875,0.621883815139138
10200.0000000196,7.75607257148826,1.00000000256406,0.606937667632526
10300.0000000199,7.8044579146056,1.00000000243989,0.64020742608086
10400.0000000203,7.83603028014454,1.00000000255297,0.654324740237247
10500.0000000207,7.85788786202242,1.00000000257274,0.652904185588578
10600.000000021,7.87475213208584,1.00000000251266,0.647382701555269
10700.0000000214,7.89304509728937,1.0000000025546,0.649381355321866
10800.0000000218,7.90096127804057,1.00000000259646,0.655928778712241
10900.0000000221,7.90942869747658,1.00000000268844,0.660299866394876
11000.0000000225,7.90873372755085,1.00000000277088,0.659743156517265
11100.0000000229,7.90149952314699,1.00000000252609,0.65592523413557
11200.0000000232,7.89304759395298,1.00000000272504,0.660601186957316
11300.0000000236,7.87771104279573,1.00000000264208,0.661492252298043
11400.0000000239,7.85817008077927,1.00000000260786,0.672574646687676
11500.0000000243,7.83441880732391,1.00000000259815,0.664361812352775
11600.0000000247,7.80944898265796,1.0000000026612,0.66152449836968
11700.000000025,7.78460609916109,1.00000000258596,0.653683893627168
11800.0000000254,7.76356297833625,1.00000000285183,0.637796581955661
11900.0000000258,7.75118279516407,1.00000000253083,0.617644871094508
12000.0000000261,7.75179890036513,1.00000000243222,0.616152978455548
12100.0000000265,7.76256928284928,1.00000000252785,0.641083418120415
12200.0000000269,7.77420507034511,1.00000000285073,0.640346801549345
12300.0000000272,7.78276049852958,1.00000000287385,0.645216385617617
12400.0000000276,7.78344036661395,1.00000000298431,0.632322368696236
12500.0000000279,7.79047692764471,1.00000000253214,0.633718831767353
12600.0000000283,7.79427850575474,1.00000000280017,0.627233419367443
12700.0000000287,7.79512832863552,1.00000000271789,0.647843726196861
12800.000000029,7.80078196275013,1.00000000281308,0.652147507683921
12900.0000000294,7.80722976162421,1.00000000273709,0.659515166824978
13000.0000000298,7.80591134359744,1.00000000297168,0.654405726084352
13100.0000000301,7.80212174618996,1.00000000275225,0.649966835298097
13200.0000000305,7.80500777393163,1.000000003004,0.649017086052672
13300.0000000309,7.81009783967556,1.00000000254699,0.651896155422817
13400.0000000312,7.82386333025823,1.00000000273791,0.650934293634678
13500.0000000316,7.83414746799054,1.00000000298489,0.649896657153141
13600.0000000319,7.83899814282348,1.00000000295269,0.650128264293223
13700.0000000323,7.84310545825381,1.00000000266646,0.658319875978507
13800.0000000327,7.85105350704924,1.00000000281835,0.667659756392316
13900.000000033,7.85404347354233,1.00000000266514,0.666690790110013
14000.0000000334,7.86010329016402,1.00000000296057,0.669491774861108
14100.0000000338,7.8617222152352,1.00000000307579,0.685853576981423
14200.0000000341,7.86112690176896,1.00000000253455,0.674095535172244
14300.0000000345,7.86261684635255,1.00000000270746,0.662580862931012
14400.0000000349,7.8608338448441,1.0000000027925,0.660598594953941
14500.0000000352,7.8588373525006,1.00000000271362,0.675940430868249
14600.0000000356,7.8575333848203,1.00000000282851,0.666473568500866
14700.0000000359,7.85411421585282,1.00000000326267,0.682616179784138
14800.0000000363,7.84487162132074,1.0000000030827,0.665337367906692
14900.0000000367,7.83657425565739,1.00000000270331,0.646337060489043
15000.000000037,7.82860748424133,1.00000000336725,0.66455435235236
15100.0000000374,7.8208323814186,1.00000000301764,0.666635995454916
15200.0000000378,7.81463120583646,1.00000000304126,0.667407088915189
15300.0000000381,7.80399102360769,1.00000000320366,0.687128255387656
15400.0000000385,7.78784471635748,1.00000000270638,0.672236856787231
15500.0000000389,7.77463554012346,1.00000000312173,0.660411353420853
15600.0000000392,7.7602817043629,1.00000000304058,0.663712053612613
15700.0000000396,7.74416990380922,1.00000000288531,0.668159606611665
15800.0000000399,7.72358051249239,1.00000000299415,0.679128083378662
15900.0000000403,7.69755125941214,1.00000000275779,0.668893465486253
16000.0000000407,7.6715268924376,1.00000000297966,0.670939954099644
16100.000000041,7.6414762971931,1.00000000333216,0.668957454833181
16200.0000000414,7.60828766687764,1.00000000352837,0.667305609955321
16300.0000000418,7.57239819177254,1.00000000364737,0.665319167330624
16400.0000000418,7.53385483254918,1.00000000297587,0.682782464675777
16500.0000000404,7.49509699715314,1.00000000296508,0.671793530740764
16600.0000000389,7.4554240679786,1.00000000264619,0.684709483280085
16700.0000000375,7.41567414023538,1.0000000029873,0.675425488916638
16800.000000036,7.37519662965239,1.00000000295538,0.670531726793973
16900.0000000346,7.33560756008536,1.00000000296463,0.665413110070179
17000.0000000331,7.29665240465902,1.00000000267721,0.664003474640372
17100.0000000317,7.25996390891908,1.00000000316588,0.671439307916246
17200.0000000302,7.2256984882764,1.00000000332054,0.677735247748982
17300.0000000287,7.19330362953398,1.00000000326025,0.679191406915445
17400.0000000273,7.16404702349737,1.00000000343215,0.684466706157859
17500.0000000258,7.1327544930663,1.00000000368411,0.689617307800565
17600.0000000244,7.10189572392807,1.00000000334423,0.676025188567657
17700.0000000229,7.06572966240612,1.0000000033927,0.657961018726806
17800.0000000215,7.02754254195309,1.00000000301133,0.626788089423822
17900.00000002,6.99585380399391,1.00000000297776,0.611699180914729
18000.0000000186,6.98064488343305,1.00000000258856,0.599112260109399
18100.0000000171,7.00184361283509,1.00000000250602,0.575164591461438
18200.0000000156,7.07432044023581,1.00000000220551,0.555021772374441
18300.0000000142,7.21875882271071,1.00000000243541,0.545428154888846
18400.0000000127,7.43351736647976,1.00000000239259,0.541077369764181
18500.0000000113,7.72752482557878,1.00000000262332,0.543610888034749
18600.0000000098,8.06117112234812,1.00000000297604,0.542536749954394
18700.0000000084,8.44389895756645,1.0000000030068,0.552975233656023
18800.0000000069,8.81959688617624,1.00000000349933,0.552752908813345
18900.0000000055,9.21828168572989,1.00000000332327,0.562609207055171
19000.000000004,9.58919315656032,1.00000000319082,0.568483100178167
19100.0000000026,9.96668257317188,1.0000000031728,0.576269496217907
19200.0000000011,10.3247268042154,1.00000000305908,0.586118467018021
19299.9999999996,10.6704345859214,1.0000000030452,0.58131322477669
19399.9999999982,11.0117190124059,1.00000000306974,0.592055215285076
19499.9999999967,11.3383503361532,1.00000000309423,0.597687002537178
19599.9999999953,11.6728924887972,1.00000000315233,0.599780317597257
19699.9999999938,11.9857274205102,1.00000000319116,0.613688911951992
19799.9999999924,12.2949882522776,1.00000000308348,0.627637528031122
19899.9999999909,12.5935789017811,1.00000000330257,0.627872539986701
19999.9999999895,12.8713090644021,1.00000000312836,0.64360692907386
20099.999999988,13.1454441914001,1.00000000331047,0.654378782468706
20199.9999999865,13.3956033881387,1.00000000349267,0.652149429143739
20299.9999999851,13.6390999773207,1.00000000327237,0.658500129855283
20399.9999999836,13.8572554307014,1.00000000358636,0.669019493370606
20499.9999999822,14.0645521736756,1.00000000334694,0.651642353924669
20599.9999999807,14.2492713582353,1.00000000366738,0.655020566569368
20699.9999999793,14.4272041226514,1.00000000318244,0.680202778530957
20799.9999999778,14.6039134133335,1.00000000323181,0.688783122196322
20899.9999999764,14.7635427093552,1.0000000034566,0.673059459801746
20999.9999999749,14.9193233807356,1.00000000320073,0.675530347989544
21099.9999999734,15.0560078273586,1.00000000366274,0.690246390586048
21199.999999972,15.188102630952,1.00000000318785,0.688663653712907
21299.9999999705,15.3186186920746,1.00000000316961,0.686049934718931
21399.9999999691,15.4486945865354,1.00000000323354,0.691133930427038
21499.9999999676,15.5710148723661,1.00000000333959,0.703502191979699
21599.9999999662,15.6809697623914,1.00000000320311,0.694914925356707
21699.9999999647,15.7922122263534,1.00000000327763,0.70132166053619
21799.9999999633,15.9017801622243,1.00000000312635,0.690900328099197
21899.9999999618,16.0182447071448,1.00000000307183,0.675261994659304
21999.9999999603,16.1271535973743,1.00000000356747,0.679761747487766
22099.9999999589,16.2272677141686,1.00000000369293,0.688545416877654
22199.9999999574,16.3231570833075,1.00000000335979,0.683449261768281
22299.999999956,16.4155452762877,1.00000000319614,0.686119456352012
22399.9999999545,16.5202314643659,1.00000000305549,0.686732818184105
22499.9999999531,16.6294328038588,1.00000000333334,0.697279192243082
22599.9999999516,16.730308051256,1.0000000036457,0.680457342782146
22699.9999999502,16.8130486773962,1.00000000392787,0.677556310017829
22799.9999999487,16.8922935421313,1.00000000307841,0.693038013841688
22899.9999999473,16.9766342904147,1.00000000337045,0.693105416860048
22999.9999999458,17.0636334763448,1.00000000361375,0.690569005989256
23099.9999999443,17.1426206775761,1.00000000378475,0.685074748512879
23199.9999999429,17.2147170623955,1.00000000362382,0.681168993447756
23299.9999999414,17.2832244945548,1.00000000375151,0.680544928162261
23399.99999994,17.356595215267,1.00000000339421,0.675072278660759
23499.9999999385,17.4400522336685,1.00000000338351,0.677408979205839
23599.9999999371,17.5226642536894,1.00000000383056,0.701943918174906
23699.9999999356,17.5922142825865,1.00000000366831,0.687732567182721
23799.9999999342,17.666643477481,1.00000000346681,0.671786072396361
23899.9999999327,17.7473418627716,1.00000000353688,0.679632988656927
23999.9999999312,17.827379263045,1.00000000361279,0.691256850564911
24099.9999999298,17.9044628705062,1.00000000363723,0.683407266385371
24199.9999999283,17.9860342154194,1.00000000339842,0.661719490206241
24299.9999999269,18.0774821087703,1.00000000317266,0.670349610481873
24399.9999999254,18.165341119199,1.00000000367836,0.687076917414503
24499.999999924,18.2469693778986,1.00000000381818,0.680055765267625
24599.9999999225,18.3226785796046,1.00000000366177,0.681768384980961
24699.9999999211,18.3992658855544,1.00000000316748,0.666329212978165
24799.9999999196,18.4827346479443,1.00000000355758,0.686603638869635
24899.9999999181,18.566228578987,1.00000000368411,0.691333180722129
24999.9999999167,18.6428713034958,1.00000000372274,0.700236372998513
25099.9999999152,18.7233067884222,1.00000000292246,0.669121726535922
25199.9999999138,18.8151303588338,1.00000000363978,0.683566372575293
25299.9999999123,18.8998564508256,1.00000000401914,0.70359722165035
25399.9999999109,18.9795255461759,1.00000000344559,0.675936737599356
25499.9999999094,19.0613951734374,1.000000003715,0.673832861241439
25599.999999908,19.1410967429403,1.00000000359271,0.671258190953944
25699.9999999065,19.2227672160698,1.00000000391444,0.677886246878525
25799.9999999051,19.2998950021861,1.00000000375617,0.678119261690329
25899.9999999036,19.3689822596037,1.0000000033658,0.682673968819708
25999.9999999021,19.4303227285175,1.00000000377115,0.676217448546494
26099.9999999007,19.4883922123861,1.00000000374029,0.66344934254798
26199.9999998992,19.5462404785293,1.00000000371163,0.680807775930384
26299.9999998978,19.6032122961794,1.0000000037471,0.689262532610953
26399.9999998963,19.6639612622664,1.00000000359497,0.690798189371192
26499.9999998949,19.7376893799605,1.00000000358489,0.6824733774869
26599.9999998934,19.82507382378,1.00000000349182,0.681011929321935
26699.999999892,19.9271614925348,1.00000000323882,0.673441758474639
26799.9999998905,20.0454086541175,1.00000000382567,0.689805511364416
26899.999999889,20.172800844514,1.00000000370648,0.687998168833644
26999.9999998876,20.3016582687002,1.0000000038075,0.689360474377374
27099.9999998861,20.4250835065892,1.00000000407536,0.683750162789494
27199.9999998847,20.5397595070652,1.00000000364388,0.681183241871209
27299.9999998832,20.6466470465194,1.00000000396094,0.704053085263685
27399.9999998818,20.7465943900461,1.00000000363338,0.689399656443726
27499.9999998803,20.8528364500211,1.00000000325141,0.682912255595391
27599.9999998789,20.962796523119,1.00000000387643,0.690651461470507
27699.9999998774,21.0784350200062,1.000000003585,0.679216789261268
27799.9999998759,21.1986309034584,1.00000000384085,0.687396855190322
27899.9999998745,21.3216094604542,1.00000000358559,0.680752246255368
27999.999999873,21.4486247158061,1.00000000398937,0.678185911511516
28099.9999998716,21.5744529817126,1.00000000350693,0.686946526555494
28199.9999998701,21.6953789476189,1.00000000400095,0.700733007499924
28299.9999998687,21.8088862062161,1.00000000382592,0.700015479755036
28399.9999998672,21.9205283979105,1.00000000431383,0.697688785356428
28499.9999998658,22.0287655183163,1.00000000410643,0.679321125276808
28599.9999998643,22.1335941559307,1.0000000038774,0.67667541175979
28699.9999998629,22.2331961947577,1.00000000376132,0.687466749832682
28799.9999998614,22.32664048508,1.00000000401816,0.700173382000099
28899.9999998599,22.4196542614189,1.00000000371541,0.693026536077943
28999.9999998585,22.5226234228566,1.00000000345914,0.674490316201765
