Time,AGPnorm,Energy,Entropy
0,0,1,-7.38160992950505e-17
99.9999999999986,0.00179577022433169,1.00000000000151,0.00547780928042545
199.999999999993,0.0117653574622128,0.999999999999439,0.0158985338233198
300,0.0239346674205562,0.999999999997665,0.0289460441500291
400.000000000022,0.0358586406559112,0.999999999999173,0.0453673757742696
500.000000000045,0.0494959509118853,1.00000000000065,0.0657344717322004
600.000000000068,0.0675669706000807,1.00000000000026,0.0897620200926676
700.000000000091,0.0850161147831289,0.999999999998492,0.117269717966788
800.000000000113,0.102347936937269,1,0.149957492834524
900.000000000136,0.119455599969979,1.00000000001639,0.192083768510285
1000.00000000016,0.134023670555056,1.00000000011546,0.245759890841834
1100.0000000001,0.160335478633564,1.00000000038388,0.305138535600415
1200,0.236282880097142,1.00000000077029,0.360006001934068
1299.99999999991,0.390049727932134,1.00000000111799,0.408240957968134
1399.99999999982,0.709527876163736,1.00000000160857,0.44926349858629
1499.99999999973,1.34699900712776,1.00000000190682,0.483029691119483
1599.99999999964,2.38367951404934,1.00000000207603,0.51013587322495
1699.99999999955,3.81288195643895,1.0000000021792,0.532521840258901
1799.99999999946,5.64877046768734,1.00000000230652,0.550530042375585
1899.99999999937,7.90058478977509,1.00000000239679,0.56394553441649
1999.99999999928,10.5067994998148,1.00000000240776,0.573924419192309
2099.99999999919,13.3701852047489,1.00000000239361,0.581598034150531
2199.99999999909,16.4144807084351,1.00000000236718,0.586986373077236
2299.999999999,19.5698218221065,1.00000000237016,0.589664134683724
2399.99999999891,22.7461567060812,1.00000000216193,0.591256552747573
2499.99999999882,25.8639094610408,1.00000000213601,0.592473649560433
2599.99999999873,28.8659940143592,1.00000000207022,0.592151281782337
2699.99999999864,31.706640594709,1.00000000193946,0.590558170624537
2799.99999999855,34.3418506861727,1.00000000206667,0.588734461056176
2899.99999999846,36.7332934977916,1.00000000189473,0.587704143495607
2999.99999999837,38.8629239323123,1.0000000018438,0.585006892338334
3099.99999999828,40.7284691800191,1.00000000177991,0.581158864104677
3199.99999999819,42.3247206738036,1.00000000162518,0.579424434977573
3299.99999999809,43.646089397957,1.00000000151116,0.57879177999814
3399.999999998,44.7008474320293,1.00000000151691,0.575073172604499
3499.99999999791,45.504860141784,1.0000000015003,0.576781381066069
3599.99999999782,46.0712274697194,1.00000000137526,0.572268476371201
3699.99999999773,46.4221031830522,1.00000000137556,0.574152455819634
3799.99999999764,46.5755373277718,1.000000001363,0.56449159607991
3899.99999999755,46.5541765155604,1.00000000144881,0.579026472959916
3999.99999999746,46.3864705189235,1.00000000110765,0.550052793708776
4099.99999999738,46.1002638900415,1.00000000153684,0.581711493792403
4199.99999999775,45.7199572177486,1.00000000110851,0.541196033745853
4299.99999999811,45.2424800717781,1.00000000157015,0.578116096089677
4399.99999999848,44.7328247567218,1.00000000127614,0.547084461105006
4499.99999999884,44.1406714572707,1.00000000129901,0.539657238607488
4599.9999999992,43.542170940149,1.00000000182586,0.578047940458747
4699.99999999957,42.9228582277973,1.00000000121285,0.520331313203724
4799.99999999993,42.257696625078,1.00000000150728,0.55014211102086
4900.00000000029,41.6162466613378,1.00000000173407,0.558908299645256
5000.00000000066,40.9652369639794,1.00000000124746,0.505908714186928
5100.00000000102,40.2893280615482,1.00000000144778,0.527495974906519
5200.00000000139,39.6388470386726,1.00000000170451,0.562992492659735
5300.00000000175,39.0026378736089,1.00000000127807,0.497636571225382
5400.00000000211,38.3527444663387,1.00000000126528,0.504024226614819
5500.00000000248,37.7119950892528,1.00000000161825,0.544076275805221
5600.00000000284,37.0984793815474,1.00000000155113,0.53036988389112
5700.00000000321,36.4961438526564,1.00000000111051,0.490285156741299
5800.00000000357,35.8964870528556,1.00000000128707,0.510057690042952
5900.00000000393,35.308383560349,1.00000000156195,0.52723310904262
6000.0000000043,34.7407646863599,1.00000000163501,0.530156214338931
6100.00000000466,34.1897689598756,1.00000000122798,0.492294553030159
6200.00000000502,33.6531699460936,1.00000000128345,0.515404622920597
6300.00000000539,33.129314904349,1.00000000138324,0.520629322076455
6400.00000000575,32.6206377033506,1.00000000142002,0.52155680238022
6500.00000000612,32.1276584301676,1.00000000151924,0.519570453662746
6600.00000000648,31.6505895977617,1.00000000123602,0.50587793421618
6700.00000000684,31.1931435811146,1.00000000126444,0.51387877992255
6800.00000000721,30.7495705360491,1.00000000152464,0.535432200478342
6900.00000000757,30.3215929583648,1.00000000122239,0.511449507810571
7000.00000000793,29.9112111882794,1.00000000146259,0.514000281420194
7100.0000000083,29.5111274182876,1.00000000159639,0.520723794189256
7200.00000000866,29.1249861686941,1.0000000013137,0.508319679167561
7300.00000000903,28.7586094843065,1.00000000124626,0.511343311698979
7400.00000000939,28.4048800616717,1.00000000162704,0.533823837376025
7500.00000000975,28.0592521570997,1.00000000141107,0.532537062993856
7600.00000001012,27.7335004828771,1.00000000117997,0.499458866766451
7700.00000001048,27.4231284688183,1.0000000015507,0.519262658413298
7800.00000001084,27.1191009789248,1.00000000159574,0.526291936931053
7900.00000001121,26.8241356562583,1.00000000136402,0.507957985327447
8000.00000001157,26.545180091371,1.00000000141427,0.515922765854483
8100.00000001194,26.2799380895818,1.00000000137773,0.529095859623292
8200.0000000123,26.0190835016114,1.00000000156032,0.530138353589665
8300.00000001266,25.7642774008301,1.0000000014246,0.529039210747692
8400.00000001303,25.5251212103919,1.00000000125557,0.517281227010205
8500.00000001339,25.2992991710249,1.00000000135347,0.515388646803199
8600.00000001376,25.0820522639274,1.0000000015884,0.535429792696645
8700.00000001412,24.8702376815581,1.00000000155079,0.530040246638912
8800.00000001448,24.6672564996502,1.00000000132644,0.518536808931806
8900.00000001485,24.4785479174968,1.00000000137087,0.525794607548162
9000.00000001521,24.2962824276534,1.00000000145158,0.544539121495927
9100.00000001557,24.1219101179242,1.00000000129745,0.533658463772785
9200.00000001594,23.9547697408284,1.00000000132762,0.524375000331951
9300.0000000163,23.7899353487051,1.00000000153232,0.536345051339062
9400.00000001667,23.6272409144975,1.00000000155408,0.551749938682379
9500.00000001703,23.4739643907397,1.00000000137656,0.532057221337519
9600.00000001739,23.3327231086439,1.00000000147872,0.536518301469557
9700.00000001776,23.1964497166664,1.00000000154271,0.547854228381676
9800.00000001812,23.0644916934438,1.00000000151798,0.533288923473077
9900.00000001848,22.939553527257,1.00000000142136,0.535808362308794
10000.0000000188,22.8270072983916,1.00000000137143,0.538912828810037
10100.0000000192,22.7184345584112,1.00000000166988,0.545145163188472
10200.0000000196,22.6063789292459,1.0000000015671,0.553552275072688
10300.0000000199,22.503286928011,1.00000000125542,0.527714316072606
10400.0000000203,22.41487607357,1.0000000014915,0.53527556210182
10500.0000000207,22.3254700404432,1.00000000154203,0.54236731643107
10600.000000021,22.2295849987471,1.00000000155562,0.554109988552046
10700.0000000214,22.129677803213,1.00000000150325,0.564114284375426
10800.0000000218,22.0325624992732,1.00000000139458,0.560253195219866
10900.0000000221,21.9414659686342,1.00000000140296,0.555826303132527
11000.0000000225,21.8553487909236,1.00000000150787,0.561547631882425
11100.0000000229,21.775222767691,1.00000000154393,0.552623836203153
11200.0000000232,21.7021439800813,1.00000000148756,0.543141184210892
11300.0000000236,21.6371053159806,1.00000000144377,0.540116781226592
11400.0000000239,21.579475718199,1.00000000152972,0.555493115730181
11500.0000000243,21.5252749747262,1.00000000155609,0.563955384334745
11600.0000000247,21.4724705381967,1.00000000160433,0.556431990289954
11700.000000025,21.4192554714368,1.00000000139265,0.551540316044331
11800.0000000254,21.3690822092353,1.00000000143879,0.557576200854874
11900.0000000258,21.3268082856611,1.00000000136454,0.546055186012284
12000.0000000261,21.2917615782026,1.0000000013846,0.553170753970348
12100.0000000265,21.2575659766043,1.00000000150755,0.568096402453231
12200.0000000269,21.2208208346239,1.00000000145172,0.563503518214931
12300.0000000272,21.1793732187265,1.00000000154983,0.572156785135366
12400.0000000276,21.1301351721627,1.00000000159931,0.576144816839518
12500.0000000279,21.0741060930044,1.00000000159956,0.585961858879929
12600.0000000283,21.0144360508549,1.00000000156797,0.593076549370345
12700.0000000287,20.9566625141298,1.00000000144891,0.580879887388116
12800.000000029,20.9054166872596,1.00000000149036,0.579724975404965
12900.0000000294,20.8618036011587,1.00000000161429,0.574893181149095
13000.0000000298,20.8260463770934,1.00000000152621,0.557465790488954
13100.0000000301,20.7962300465058,1.00000000148579,0.551009903690225
13200.0000000305,20.7734544789361,1.00000000154303,0.556019199385453
13300.0000000309,20.7546675593615,1.00000000153556,0.563867194862676
13400.0000000312,20.7382731584061,1.00000000165653,0.578300444732935
13500.0000000316,20.7222079627462,1.00000000155145,0.572364150320543
13600.0000000319,20.7056000784638,1.00000000147287,0.568876840973493
13700.0000000323,20.6930860021687,1.00000000147073,0.561597841214404
13800.0000000327,20.6857015006373,1.00000000143332,0.554787401762802
13900.000000033,20.6778628132358,1.00000000156843,0.564890994157651
14000.0000000334,20.6709189016296,1.0000000015336,0.571333821420654
14100.0000000338,20.6700539154725,1.00000000145776,0.57658623416797
14200.0000000341,20.6727536580114,1.0000000015125,0.583015527083348
14300.0000000345,20.6733471795847,1.00000000161696,0.596663120021694
14400.0000000349,20.6652200395831,1.00000000163107,0.600627953938577
14500.0000000352,20.6508723447292,1.00000000171794,0.604931987833715
14600.0000000356,20.633393087984,1.00000000150678,0.59679848098456
14700.0000000359,20.614109499065,1.00000000151198,0.592785608236821
14800.0000000363,20.5901090556082,1.00000000166759,0.5999918156815
14900.0000000367,20.5600313566312,1.00000000157665,0.592806782424383
15000.000000037,20.5230601747881,1.00000000167808,0.596299836381985
15100.0000000374,20.4822697086927,1.00000000162232,0.596953110973589
15200.0000000378,20.4406962515275,1.00000000153319,0.59710225514578
15300.0000000381,20.4027066509281,1.00000000157709,0.59089358415877
15400.0000000385,20.371259321371,1.00000000156882,0.584845195056615
15500.0000000389,20.3462626810039,1.00000000157853,0.578829048367344
15600.0000000392,20.3288963412216,1.00000000160274,0.572352003873265
15700.0000000396,20.3188384152452,1.00000000142039,0.565778135266333
15800.0000000399,20.3168197110287,1.0000000015772,0.568299373404348
15900.0000000403,20.3191933273668,1.00000000150027,0.571235408332876
16000.0000000407,20.324078052324,1.00000000165211,0.585108614852689
16100.000000041,20.3306188435829,1.00000000156061,0.581920650878389
16200.0000000414,20.3357554322954,1.00000000174507,0.584937498323688
16300.0000000418,20.3406786891524,1.000000001582,0.577479757394652
16400.0000000418,20.3494841556265,1.00000000152127,0.570670166939149
16500.0000000404,20.3611180306982,1.00000000159285,0.574822158523888
16600.0000000389,20.3741165584691,1.00000000158441,0.583770660028306
16700.0000000375,20.3881622702185,1.0000000016521,0.586443904357521
16800.000000036,20.4045396567085,1.00000000149167,0.582350253417439
16900.0000000346,20.4210453647526,1.00000000165608,0.58944857873485
17000.0000000331,20.4370499026053,1.00000000159432,0.583373448887917
17100.0000000317,20.4531360397278,1.00000000161456,0.57991131413263
17200.0000000302,20.471126483416,1.00000000161308,0.587130216274231
17300.0000000287,20.4896552045514,1.0000000015818,0.603525500227903
17400.0000000273,20.5061743957539,1.00000000178328,0.610268353692943
17500.0000000258,20.5179591928959,1.00000000173178,0.621000321120153
17600.0000000244,20.5244544093582,1.00000000159766,0.626261234028925
17700.0000000229,20.5276817839285,1.00000000167338,0.62839528351432
17800.0000000215,20.5273551816066,1.00000000168663,0.622153715468639
17900.00000002,20.523569158976,1.0000000016389,0.625794657891954
18000.0000000186,20.5160861967505,1.00000000164138,0.628562755049377
18100.0000000171,20.5055350955531,1.00000000170091,0.635663718472732
18200.0000000156,20.4927137969038,1.00000000160885,0.634290742972959
18300.0000000142,20.4776457234128,1.0000000016125,0.636453940793987
18400.0000000127,20.4589967405945,1.00000000162619,0.640450527973669
18500.0000000113,20.4342133839461,1.00000000183287,0.643748575635462
18600.0000000098,20.4021416684267,1.00000000179033,0.636307642077798
18700.0000000084,20.3660849921925,1.0000000017291,0.637646116764745
18800.0000000069,20.3262153984405,1.00000000171982,0.634621372088197
18900.0000000055,20.2867568283749,1.00000000162792,0.627910540421692
19000.000000004,20.250149447904,1.00000000170374,0.626008947641489
19100.0000000026,20.2171284355611,1.00000000162358,0.624599151432341
19200.0000000011,20.1896037584052,1.00000000158576,0.6218846682561
19299.9999999996,20.1676190394014,1.00000000173346,0.623068739972165
19399.9999999982,20.15181700799,1.00000000167127,0.617227179635707
19499.9999999967,20.1419090520907,1.00000000163321,0.617835362035375
19599.9999999953,20.1369540997836,1.00000000162303,0.609497852474334
19699.9999999938,20.1389002553541,1.00000000157974,0.600140041115555
19799.9999999924,20.1474582599124,1.00000000166586,0.594047660673134
19899.9999999909,20.1591732547562,1.00000000171462,0.600999772100829
19999.9999999895,20.1743849970802,1.00000000173119,0.605339736495058
20099.999999988,20.1890518565232,1.00000000177383,0.611248100046151
20199.9999999865,20.2041164537408,1.00000000169557,0.610559695188398
20299.9999999851,20.2222945839945,1.00000000165735,0.607922802666465
20399.9999999836,20.2399851809978,1.00000000162788,0.608596797838284
20499.9999999822,20.2596096812305,1.0000000016905,0.605713775952173
20599.9999999807,20.2809790347696,1.00000000165073,0.595876629384758
20699.9999999793,20.3048308704472,1.00000000170333,0.595421573589653
20799.9999999778,20.3308628304746,1.00000000175392,0.599963662730576
20899.9999999764,20.3586597957046,1.00000000162647,0.60584268916184
20999.9999999749,20.3859118938633,1.00000000171732,0.607769807317833
21099.9999999734,20.4122859473825,1.00000000166741,0.611054199325846
21199.999999972,20.4394557813277,1.00000000174596,0.613646497341995
21299.9999999705,20.4695297219796,1.00000000165129,0.615167294728735
21399.9999999691,20.5011741611502,1.00000000175833,0.62341644381571
21499.9999999676,20.5310916589833,1.00000000175211,0.623305831919479
21599.9999999662,20.5570429080035,1.00000000185703,0.637642867738316
21699.9999999647,20.5783655508776,1.00000000182561,0.646874247620574
21799.9999999633,20.5964488067138,1.00000000180604,0.652710988438565
21899.9999999618,20.6110106003143,1.00000000174524,0.65255272353295
21999.9999999603,20.6252599124159,1.00000000179978,0.645308689124201
22099.9999999589,20.6398499224783,1.00000000180614,0.644418140291101
22199.9999999574,20.6560737712599,1.00000000168385,0.643274872398104
22299.999999956,20.674236698839,1.00000000178931,0.651888308425225
22399.9999999545,20.6913853817441,1.00000000180357,0.654188301509801
22499.9999999531,20.7070112253485,1.00000000187137,0.654185853886995
22599.9999999516,20.7183524717231,1.00000000184461,0.653018799346895
22699.9999999502,20.7233883092564,1.00000000181743,0.653305680275463
22799.9999999487,20.7264754073187,1.00000000195043,0.65687968234973
22899.9999999473,20.726303941634,1.00000000189235,0.652913182819278
22999.9999999458,20.7261054869168,1.00000000173551,0.64679007756973
23099.9999999443,20.7279669406804,1.0000000018057,0.643457345556737
23199.9999999429,20.7289728078178,1.00000000180688,0.646400290666236
23299.9999999414,20.7274813366527,1.00000000182429,0.638904190851304
23399.99999994,20.7246453507325,1.00000000184093,0.645910872549002
23499.9999999385,20.7200662172161,1.00000000180337,0.644859993342939
23599.9999999371,20.7149928619623,1.00000000180344,0.654501577042196
23699.9999999356,20.7081230718515,1.00000000183206,0.663133188795929
23799.9999999342,20.6986908298685,1.00000000189547,0.661699230440232
23899.9999999327,20.6884059371453,1.00000000170934,0.661778934971399
23999.9999999312,20.676382291751,1.00000000184447,0.666742844108306
24099.9999999298,20.6631150208035,1.00000000174398,0.662334188554361
24199.9999999283,20.649196216257,1.00000000194419,0.664194372973551
24299.9999999269,20.6296800983316,1.00000000194502,0.651257757299754
24399.9999999254,20.6072005707786,1.00000000187955,0.652619631181168
24499.999999924,20.5839428524476,1.00000000190647,0.658393227534946
24599.9999999225,20.5604734403858,1.00000000185096,0.655054216870234
24699.9999999211,20.5352504447679,1.00000000179205,0.65964484584502
24799.9999999196,20.5083336940924,1.0000000019293,0.664181412762602
24899.9999999181,20.4780105865177,1.00000000202903,0.666227839619769
24999.9999999167,20.4441110354831,1.00000000195541,0.665828785517513
25099.9999999152,20.4087787794718,1.00000000189981,0.666681679264325
25199.9999999138,20.3736352439648,1.00000000182267,0.669374850940205
25299.9999999123,20.3405193556003,1.00000000174114,0.664618344198619
25399.9999999109,20.3113436293436,1.00000000174789,0.657181764279029
25499.9999999094,20.2851828965251,1.0000000017707,0.654908043254211
25599.999999908,20.2624787110061,1.00000000182519,0.645799512939505
25699.9999999065,20.2431185609829,1.00000000187379,0.643066697423525
25799.9999999051,20.2286372246448,1.00000000184052,0.644963166700967
25899.9999999036,20.2204048011685,1.00000000189756,0.651221870622419
25999.9999999021,20.2166764106508,1.00000000190231,0.653570835378111
26099.9999999007,20.2183006930527,1.00000000185566,0.651910165758813
26199.9999998992,20.2257832505718,1.000000001797,0.649879076285229
26299.9999998978,20.2379066727812,1.00000000181503,0.643144759553156
26399.9999998963,20.2556674498232,1.00000000172718,0.632212940464733
26499.9999998949,20.2806376865919,1.00000000187327,0.62952626480284
26599.9999998934,20.3061220719206,1.00000000211232,0.631025459445167
26699.999999892,20.3346259116217,1.00000000185322,0.623463954996686
26799.9999998905,20.3647096284937,1.00000000194114,0.629299586662501
26899.999999889,20.3923798634783,1.0000000019453,0.623325132565751
26999.9999998876,20.4228853079762,1.0000000018335,0.611402845264899
27099.9999998861,20.4566931197324,1.000000001971,0.624392371492189
27199.9999998847,20.4898232311656,1.00000000189993,0.61894221755108
27299.9999998832,20.5257554132291,1.00000000172443,0.608783777638053
27399.9999998818,20.5647543284263,1.00000000187108,0.618533234615541
27499.9999998803,20.6048633175722,1.00000000207801,0.61491114232734
27599.9999998789,20.6454154581909,1.00000000186856,0.614723884035344
27699.9999998774,20.6890762112231,1.00000000194723,0.613772002080976
27799.9999998759,20.7333679144345,1.00000000193593,0.613784787379338
27899.9999998745,20.7791246521114,1.00000000190148,0.616462747467783
27999.999999873,20.8267319553173,1.00000000191056,0.613069839190279
28099.9999998716,20.8759645476663,1.00000000188074,0.616885522555216
28199.9999998701,20.9256885227086,1.00000000196119,0.617383190723044
28299.9999998687,20.9740802243044,1.00000000202631,0.621366661646171
28399.9999998672,21.0220649899496,1.00000000204735,0.622992985588121
28499.9999998658,21.0717355859993,1.00000000191584,0.625999291205316
28599.9999998643,21.1205083220457,1.00000000200276,0.635753796778344
28699.9999998629,21.1671511141918,1.00000000209194,0.645287491461614
28799.9999998614,21.2133533552441,1.00000000197669,0.639130626539084
28899.9999998599,21.2560773267493,1.00000000206881,0.650497020287969
28999.9999998585,21.2957528255016,1.0000000019595,0.645269763306006
