Time,AGPnorm,Energy,Entropy
0,0,1,-1.40149909541902e-17
99.9999999999986,3.22783306831509e-05,1.00000000000146,0.00123912408477689
199.999999999993,0.00269799649992895,0.999999999999891,0.00198862191259137
300,0.0063043921146226,1.00000000000091,0.00353972663556963
400.000000000022,0.00891016505044122,1.00000000000098,0.00594913890480836
500.000000000045,0.0114681616609506,0.999999999999788,0.00799113101159334
600.000000000068,0.0160306845831178,1.00000000000146,0.0111126095491855
700.000000000091,0.0192862245816135,0.999999999999979,0.0142179647481772
800.000000000113,0.0249076195447373,1.00000000000077,0.0175508850273105
900.000000000136,0.0317919806147148,1.00000000000128,0.0214624595834786
1000.00000000016,0.0369077813475049,0.999999999999536,0.0252644057428496
1100.0000000001,0.0429473045905704,1.00000000000137,0.0296408982275001
1200,0.050354811381679,1.00000000000025,0.0341512704246765
1299.99999999991,0.0592529811739232,1.00000000000061,0.0388397902577249
1399.99999999982,0.0681594678662544,1.00000000000145,0.0439836374843966
1499.99999999973,0.0750313735164551,0.999999999999286,0.0491433327303909
1599.99999999964,0.0828564220440254,1.00000000000129,0.0546971728622187
1699.99999999955,0.093344534175528,1.00000000000076,0.0605136858616575
1799.99999999946,0.104349771996482,1.00000000000031,0.066603229730747
1899.99999999937,0.113965349823093,1.00000000000137,0.0730445447454959
1999.99999999928,0.122516577128871,0.999999999999169,0.0795851458388027
2099.99999999919,0.132434152436897,1.00000000000133,0.0865907206745155
2199.99999999909,0.144638578217266,1.00000000000134,0.0940376777435918
2299.999999999,0.155900547408629,0.999999999999874,0.101872056181753
2399.99999999891,0.165272436167368,1.00000000000116,0.11006484218169
2499.99999999882,0.175427374802007,0.999999999999355,0.118611122743375
2599.99999999873,0.187238473212828,1.0000000000014,0.127963977388071
2699.99999999864,0.199694959260573,1.00000000000182,0.138098521921191
2799.99999999855,0.209914575073619,0.999999999999974,0.148894350522881
2899.99999999846,0.21905508040868,1.00000000000248,0.160605686251513
2999.99999999837,0.229989690843278,1.0000000000041,0.17349484183847
3099.99999999828,0.242794233930367,1.00000000001102,0.187997221080456
3199.99999999819,0.254411379758996,1.00000000002206,0.203693447432002
3299.99999999809,0.262580329578438,1.00000000003712,0.219985741883554
3399.999999998,0.275988070314814,1.00000000006449,0.236773688801461
3499.99999999791,0.288888088886938,1.00000000009098,0.253934248049212
3599.99999999782,0.309726563935634,1.00000000013621,0.271197518928525
3699.99999999773,0.339982825334354,1.00000000018013,0.288034956020321
3799.99999999764,0.374482656998308,1.00000000021951,0.304213936472457
3899.99999999755,0.444769289562736,1.00000000027844,0.320090992895842
3999.99999999746,0.538858407549178,1.00000000031547,0.335755852429328
4099.99999999738,0.676998560305401,1.00000000038979,0.350868092045203
4199.99999999775,0.880027616453939,1.00000000041843,0.365243390148279
4299.99999999811,1.14135169006865,1.00000000047051,0.378966519699464
4399.99999999848,1.50387594632796,1.00000000053121,0.392580713597849
4499.99999999884,1.96690464639885,1.00000000058611,0.405399955159353
4599.9999999992,2.54954421437295,1.00000000060695,0.417704092821448
4699.99999999957,3.27905588512422,1.00000000065511,0.429066613453824
4799.99999999993,4.15389307309161,1.00000000071672,0.440007460641766
4900.00000000029,5.20411715983831,1.00000000072414,0.450931346141119
5000.00000000066,6.43800840805256,1.00000000073075,0.460898309017449
5100.00000000102,7.86867208526021,1.00000000076964,0.47013773567716
5200.00000000139,9.50332073953534,1.00000000081307,0.479102923602429
5300.00000000175,11.3510951946023,1.00000000080522,0.487455586198819
5400.00000000211,13.4232325105837,1.00000000087343,0.495392814546575
5500.00000000248,15.7171472775764,1.00000000086207,0.50257808663853
5600.00000000284,18.2481297401762,1.00000000086565,0.509316484314232
5700.00000000321,20.9938914475366,1.0000000008877,0.516159724747287
5800.00000000357,23.968167720587,1.00000000089055,0.522139119417788
5900.00000000393,27.1750338544423,1.00000000089579,0.5278824981768
6000.0000000043,30.5856118792712,1.00000000091648,0.532914518728748
6100.00000000466,34.2246232528326,1.00000000095172,0.537411144658747
6200.00000000502,38.0509858369394,1.00000000092813,0.542513301366376
6300.00000000539,42.0687023975493,1.00000000093433,0.546677346223062
6400.00000000575,46.2898520286664,1.00000000091075,0.550403991194072
6500.00000000612,50.6592030627579,1.00000000092923,0.554121253014575
6600.00000000648,55.2071433454015,1.00000000094981,0.55726354638993
6700.00000000684,59.8933357225044,1.00000000094773,0.560784684111898
6800.00000000721,64.70170021777,1.00000000092633,0.563429485518337
6900.00000000757,69.6586599572985,1.00000000092596,0.565462641311068
7000.00000000793,74.6953196225456,1.00000000094054,0.568479255789546
7100.0000000083,79.8371198671053,1.00000000093178,0.570644246328837
7200.00000000866,85.0592655898119,1.00000000090506,0.572613835916354
7300.00000000903,90.3261653812229,1.00000000094449,0.574097376061498
7400.00000000939,95.6741844931423,1.00000000090955,0.57555006632197
7500.00000000975,101.035177943915,1.000000000879,0.577816122321937
7600.00000001012,106.423356591801,1.00000000088137,0.57879089695968
7700.00000001048,111.836317982459,1.00000000085919,0.579445148712395
7800.00000001084,117.223679981222,1.00000000087387,0.580795625089048
7900.00000001121,122.623320603158,1.00000000084707,0.581659691912457
8000.00000001157,127.981425547354,1.00000000085293,0.582634422518729
8100.00000001194,133.298759347185,1.00000000085117,0.583027323471671
8200.0000000123,138.589022739504,1.00000000085463,0.58329756142597
8300.00000001266,143.799405318304,1.00000000083338,0.584571872550845
8400.00000001303,148.963149126477,1.00000000080227,0.584154127220439
8500.00000001339,154.043607273296,1.00000000081745,0.584962568464011
8600.00000001376,159.03063897287,1.0000000007854,0.584862995382668
8700.00000001412,163.948302402447,1.00000000079183,0.585120694094534
8800.00000001448,168.748596008949,1.00000000075841,0.58497902188663
8900.00000001485,173.456879095233,1.0000000007772,0.585387654830343
9000.00000001521,178.053020140835,1.00000000074912,0.584525886474778
9100.00000001557,182.518654616883,1.00000000075051,0.585446702558547
9200.00000001594,186.886202436301,1.00000000074189,0.584204349420923
9300.0000000163,191.110130835295,1.00000000074547,0.584617945481425
9400.00000001667,195.214078061676,1.00000000072461,0.584513955149152
9500.00000001703,199.185659270603,1.00000000070338,0.583230511533299
9600.00000001739,203.009218855399,1.0000000007243,0.584571985457066
9700.00000001776,206.712437489185,1.00000000068034,0.582421899244321
9800.00000001812,210.262562948273,1.00000000068321,0.583380525377318
9900.00000001848,213.673836488377,1.00000000065799,0.58274363705387
10000.0000000188,216.946180881578,1.0000000006793,0.581825326540537
10100.0000000192,220.063026276032,1.00000000066866,0.582311093422387
10200.0000000196,223.048705903238,1.000000000648,0.581265079142704
10300.0000000199,225.882955150664,1.00000000063309,0.581316723107604
10400.0000000203,228.570632164696,1.00000000060862,0.580712006246159
10500.0000000207,231.121673589167,1.00000000063423,0.580620459162653
10600.000000021,233.519728627309,1.00000000060067,0.579650412648804
10700.0000000214,235.783587575741,1.00000000062631,0.579135777800262
10800.0000000218,237.903311850766,1.00000000060913,0.57987332996587
10900.0000000221,239.879059618979,1.00000000057126,0.578162155516513
11000.0000000225,241.723231136837,1.00000000058715,0.578637446178707
11100.0000000229,243.42436528613,1.00000000058479,0.578055283022751
11200.0000000232,244.996857888278,1.00000000056393,0.576841508643835
11300.0000000236,246.434078780952,1.00000000056404,0.578346937668789
11400.0000000239,247.739592209389,1.00000000057485,0.576912486801155
11500.0000000243,248.922538288177,1.00000000054613,0.575314486324444
11600.0000000247,249.973429473458,1.00000000055063,0.578391645425264
11700.000000025,250.910602193037,1.00000000053985,0.576303666002779
11800.0000000254,251.72570727075,1.00000000051327,0.573708701348797
11900.0000000258,252.418799710858,1.00000000052202,0.576143528347589
12000.0000000261,253.008658774549,1.00000000052177,0.577195764093894
12100.0000000265,253.486090090079,1.00000000051786,0.575005962554124
12200.0000000269,253.859532790031,1.00000000049071,0.572172266092478
12300.0000000272,254.127056665203,1.00000000050296,0.573547629749373
12400.0000000276,254.295480334378,1.00000000052033,0.578130277730069
12500.0000000279,254.383660982838,1.00000000052824,0.574452463002974
12600.0000000283,254.376201347492,1.0000000004621,0.566856972027747
12700.0000000287,254.275703014889,1.00000000047159,0.569786191290809
12800.000000029,254.097899782213,1.00000000053777,0.578705039487101
12900.0000000294,253.851374725954,1.00000000052518,0.574372292561831
13000.0000000298,253.53706825445,1.0000000004688,0.564106900264651
13100.0000000301,253.138434033127,1.00000000045725,0.562049331792953
13200.0000000305,252.673188252544,1.00000000052223,0.574436207776485
13300.0000000309,252.161794421973,1.00000000056059,0.577203983170806
13400.0000000312,251.600311479103,1.00000000049252,0.566264287831062
13500.0000000316,250.980328303695,1.00000000045283,0.555183689169939
13600.0000000319,250.291832429156,1.00000000046293,0.559608689174866
13700.0000000323,249.561944663048,1.00000000056227,0.578795824340129
13800.0000000327,248.81103148221,1.00000000058067,0.574140842012858
13900.000000033,248.024772739979,1.00000000048959,0.559480623750304
14000.0000000334,247.189670250694,1.00000000042166,0.544314750234767
14100.0000000338,246.299068638157,1.00000000045769,0.555101368529628
14200.0000000341,245.387058929916,1.00000000059444,0.581820420863609
14300.0000000345,244.469816038876,1.0000000005696,0.573115754750728
14400.0000000349,243.533805755383,1.00000000051398,0.553767973472725
14500.0000000352,242.560119932932,1.00000000042189,0.536669782376891
14600.0000000356,241.539572535748,1.00000000043557,0.540764820456877
14700.0000000359,240.503065861428,1.00000000063718,0.578406562027846
14800.0000000363,239.472779223852,1.00000000061371,0.576938642950178
14900.0000000367,238.441537332721,1.00000000057307,0.556719889571303
15000.000000037,237.390962153312,1.00000000041462,0.534376587252582
15100.0000000374,236.302804290475,1.00000000041512,0.525406005996771
15200.0000000378,235.189719200648,1.00000000053176,0.551242153390604
15300.0000000381,234.082129031466,1.00000000066377,0.581650579587791
15400.0000000385,232.987165039783,1.00000000061522,0.571783505394347
15500.0000000389,231.896393705033,1.0000000005308,0.541974646680605
15600.0000000392,230.787778345473,1.00000000043244,0.52483149345028
15700.0000000396,229.652427697179,1.00000000041929,0.519834288570933
15800.0000000399,228.502901054296,1.00000000053581,0.545206306578186
15900.0000000403,227.359229780556,1.00000000065722,0.578710414859033
16000.0000000407,226.235685466991,1.00000000067827,0.574015348295374
16100.000000041,225.121452216198,1.00000000052736,0.538988410699665
16200.0000000414,223.998868804352,1.00000000043789,0.519689344097199
16300.0000000418,222.861328268337,1.00000000041807,0.516858596338181
16400.0000000418,221.709204723894,1.00000000048983,0.527707291130774
16500.0000000404,220.559750055416,1.00000000061134,0.558539342349151
16600.0000000389,219.426087362425,1.00000000067535,0.577746064541942
16700.0000000375,218.308776827149,1.00000000064208,0.558637787328759
16800.000000036,217.199348660329,1.00000000050171,0.522961743444109
16900.0000000346,216.083404937936,1.00000000043286,0.512895813724081
17000.0000000331,214.960503886422,1.0000000004557,0.519820579281627
17100.0000000317,213.832856473213,1.00000000048995,0.527144093986742
17200.0000000302,212.708649381781,1.0000000005777,0.547491234589295
17300.0000000287,211.598788789591,1.00000000068193,0.568104063513579
17400.0000000273,210.504367576266,1.00000000064412,0.556696917769854
17500.0000000258,209.419359264628,1.00000000052412,0.526478084447463
17600.0000000244,208.337062466305,1.00000000046632,0.509738877402243
17700.0000000229,207.252972684914,1.00000000047578,0.517134540634497
17800.0000000215,206.169714442798,1.00000000049393,0.525929322601345
17900.00000002,205.088324724161,1.0000000005397,0.530541030364278
18000.0000000186,204.01487308081,1.00000000059558,0.542852424904396
18100.0000000171,202.953633607483,1.00000000061055,0.553123541789689
18200.0000000156,201.903760452619,1.00000000061382,0.546676838953634
18300.0000000142,200.863577532933,1.00000000055099,0.524578217778168
18400.0000000127,199.828728622907,1.0000000004849,0.511210450178985
18500.0000000113,198.797984966555,1.00000000047185,0.516931225579462
18600.0000000098,197.771667373862,1.00000000048956,0.528315477457964
18700.0000000084,196.749922047142,1.00000000051981,0.529576969954653
18800.0000000069,195.735567988472,1.00000000054974,0.528107845273886
18900.0000000055,194.7293094576,1.00000000057687,0.533058790615294
19000.000000004,193.732534085892,1.00000000057352,0.542421379844448
19100.0000000026,192.745843632156,1.00000000059611,0.538349414577667
19200.0000000011,191.767426213318,1.00000000053286,0.524980239803366
19299.9999999996,190.796932531847,1.00000000051658,0.517606743904669
19399.9999999982,189.833489658673,1.00000000049304,0.521483529390169
19499.9999999967,188.877382999034,1.00000000052329,0.530451142802101
19599.9999999953,187.928366698289,1.00000000051753,0.53020622283342
19699.9999999938,186.985870601108,1.0000000005003,0.524326441106196
19799.9999999924,186.051329517271,1.00000000051599,0.521505491493728
19899.9999999909,185.125128561629,1.00000000055404,0.525288154265176
19999.9999999895,184.207301979003,1.00000000057582,0.538193596059131
20099.999999988,183.298385547498,1.00000000056911,0.537974363187734
20199.9999999865,182.397731706939,1.00000000052806,0.531791088311099
20299.9999999851,181.505695754151,1.00000000051243,0.525900209711642
20399.9999999836,180.622231672558,1.00000000051908,0.529851650723471
20499.9999999822,179.747565836128,1.00000000050848,0.534534557885338
20599.9999999807,178.881301894353,1.00000000048675,0.53055698788023
20699.9999999793,178.022738088073,1.00000000048093,0.518700573177388
20799.9999999778,177.172532907039,1.00000000048303,0.51549699335615
20899.9999999764,176.33082206705,1.00000000052764,0.518613685709517
20999.9999999749,175.497419151806,1.00000000054772,0.527916212273591
21099.9999999734,174.672204705403,1.00000000056652,0.537051757522556
21199.999999972,173.854835867164,1.00000000055305,0.541712897081737
21299.9999999705,173.045545845115,1.00000000054291,0.535381301100852
21399.9999999691,172.244402965816,1.00000000053641,0.533825919420046
21499.9999999676,171.451399670667,1.00000000055749,0.539494171512426
21599.9999999662,170.667228579937,1.00000000051324,0.537397125424463
21699.9999999647,169.892227609212,1.00000000048725,0.52986948133857
21799.9999999633,169.127535872796,1.00000000042871,0.515397374339745
21899.9999999618,168.372802489681,1.00000000043947,0.507943617335898
21999.9999999603,167.627357593006,1.00000000050741,0.511499981955313
22099.9999999589,166.890372391619,1.00000000054211,0.51955764749171
22199.9999999574,166.160991465641,1.00000000055772,0.526098469304455
22299.999999956,165.438515586411,1.00000000054854,0.533393476440999
22399.9999999545,164.722950950046,1.00000000052082,0.542895560236976
22499.9999999531,164.014204486312,1.00000000052519,0.540816260531011
22599.9999999516,163.312086523976,1.00000000055929,0.540145356783547
22699.9999999502,162.6161925136,1.00000000056837,0.544107798961736
22799.9999999487,161.927392204731,1.00000000055853,0.543276809968891
22899.9999999473,161.246760030989,1.00000000051363,0.532538218793019
22999.9999999458,160.577286703461,1.00000000043557,0.516852781471191
23099.9999999443,159.92062578054,1.00000000041725,0.504632102402795
23199.9999999429,159.276113869228,1.00000000043508,0.497546627531222
23299.9999999414,158.641652750076,1.00000000053765,0.506818338069979
23399.99999994,158.014244687826,1.0000000005709,0.51783986367027
23499.9999999385,157.392792705318,1.00000000058473,0.522443670269257
23599.9999999371,156.776425428231,1.00000000054819,0.523696336722132
23699.9999999356,156.165585267069,1.00000000052609,0.530599027674989
23799.9999999342,155.559956838663,1.00000000054722,0.543302363206616
23899.9999999327,154.958586203055,1.00000000054029,0.542391967208834
23999.9999999312,154.361352335495,1.00000000057822,0.54327438166856
24099.9999999298,153.76753788672,1.00000000059267,0.550028892273651
24199.9999999283,153.178498150083,1.00000000057388,0.542332083543488
24299.9999999269,152.597906067991,1.0000000005063,0.525530964835291
24399.9999999254,152.028799330499,1.00000000044791,0.513313291315186
24499.999999924,151.473887340294,1.00000000040694,0.502611831250604
24599.9999999225,150.933026526662,1.00000000045045,0.497410749126208
24699.9999999211,150.403344728463,1.00000000049757,0.497308123283856
24799.9999999196,149.881699018148,1.00000000055487,0.506828261680622
24899.9999999181,149.36465882985,1.00000000059365,0.515993572425648
24999.9999999167,148.851585674997,1.00000000056202,0.518142487693976
25099.9999999152,148.342056288986,1.00000000053247,0.517116495127344
25199.9999999138,147.83609541244,1.00000000053048,0.523310995506252
25299.9999999123,147.332996125024,1.00000000056277,0.539063127892611
25399.9999999109,146.831070671904,1.00000000058854,0.545484470356324
25499.9999999094,146.330667703394,1.00000000059846,0.54384294540961
25599.999999908,145.832250722077,1.0000000005571,0.542474587499547
25699.9999999065,145.336742543412,1.00000000057891,0.541111010675654
25799.9999999051,144.846454500303,1.00000000052631,0.533156940595615
25899.9999999036,144.364294131612,1.00000000048912,0.52010411503668
25999.9999999021,143.8937086251,1.00000000045366,0.509755046033556
26099.9999999007,143.436850306787,1.00000000042757,0.506560390565571
26199.9999998992,142.992954822557,1.00000000044349,0.504264494541958
26299.9999998978,142.561090440934,1.00000000048039,0.499373263201631
26399.9999998963,142.138077517,1.00000000048881,0.500460162706756
26499.9999998949,141.722095902178,1.00000000055266,0.505849582519601
26599.9999998934,141.310315181205,1.00000000054683,0.513306970795194
26699.999999892,140.900863628396,1.00000000055328,0.518582259490423
26799.9999998905,140.492777418804,1.00000000057877,0.522231710973055
26899.999999889,140.084936906594,1.00000000055862,0.526970178133606
26999.9999998876,139.676966172205,1.00000000057167,0.533743846770126
27099.9999998861,139.268651195189,1.00000000058233,0.541051703830046
27199.9999998847,138.859924839375,1.00000000056458,0.543072744781029
27299.9999998832,138.45236197821,1.00000000056399,0.539956197477235
27399.9999998818,138.047012004488,1.00000000057524,0.536108920992191
27499.9999998803,137.645641149758,1.00000000053924,0.531957158631341
27599.9999998789,137.249575781718,1.00000000053199,0.530842180574795
27699.9999998774,136.85955471269,1.00000000051819,0.525506356085034
27799.9999998759,136.478325734793,1.0000000004917,0.518257784032572
27899.9999998745,136.10739609032,1.00000000049921,0.514646319953827
27999.999999873,135.747641144283,1.00000000045993,0.511618966231715
28099.9999998716,135.400213165523,1.00000000045843,0.507644398766562
28199.9999998701,135.06329491841,1.00000000046244,0.503977644381419
28299.9999998687,134.736421707818,1.00000000049562,0.501752838647068
28399.9999998672,134.416735935684,1.00000000051648,0.509654206637299
28499.9999998658,134.101569248147,1.00000000054078,0.514679087929034
28599.9999998643,133.788856979745,1.00000000056737,0.523321709124004
28699.9999998629,133.475139378371,1.00000000060989,0.532653580772444
28799.9999998614,133.159792736395,1.00000000055621,0.536175471257922
28899.9999998599,132.842621186025,1.00000000053513,0.533259474257154
