Time,AGPnorm,Energy,Entropy
0,0,1,-7.65618934411777e-17
99.9999999999986,0.000678665968944868,1.00000000000168,0.00236986355088457
199.999999999993,0.00442220721359253,1.00000000000194,0.00713455756312725
300,0.0092303234088091,1.00000000000048,0.0132540514662625
400.000000000022,0.0142529083696131,0.999999999999776,0.0207734768036738
500.000000000045,0.0202377865345706,1.00000000000075,0.029929404338162
600.000000000068,0.0280962311136608,1.00000000000193,0.0405592807823417
700.000000000091,0.0364802752177177,1.00000000000126,0.0522407879854955
800.000000000113,0.0456705946162411,1.00000000000014,0.0648821850621302
900.000000000136,0.0554087294826518,1.00000000000019,0.0789075497328777
1000.00000000016,0.0658631189417576,1.00000000000135,0.0945302159028399
1100.0000000001,0.0767871624099351,1.00000000000172,0.111902326256628
1200,0.0877207521298135,1.00000000000095,0.131012476907196
1299.99999999991,0.0988112413783247,1.0000000000011,0.152595868336252
1399.99999999982,0.109726859982978,1.0000000000048,0.177618894464765
1499.99999999973,0.120443200807595,1.00000000001675,0.206957720471202
1599.99999999964,0.134329485575877,1.00000000004707,0.240282840419412
1699.99999999955,0.15477808611288,1.00000000010388,0.27596014323573
1799.99999999946,0.182869075252989,1.00000000018334,0.31185592323504
1899.99999999937,0.241410730360357,1.00000000028151,0.346013171007226
1999.99999999928,0.388335463955991,1.00000000040944,0.376949056834856
2099.99999999919,0.676146805353398,1.00000000052704,0.404534946291116
2199.99999999909,1.14263257300094,1.00000000060995,0.428907572129215
2299.999999999,1.84989444556433,1.00000000071952,0.450445889104257
2399.99999999891,2.88593540810176,1.00000000076441,0.469324069801591
2499.99999999882,4.31474161870615,1.00000000082309,0.485697481020868
2599.99999999873,6.15632688906539,1.00000000086507,0.499682102205248
2699.99999999864,8.42391323490206,1.00000000094721,0.511707648543257
2799.99999999855,11.1355245531355,1.00000000095795,0.521959872021763
2899.99999999846,14.2943087235004,1.00000000099477,0.530656425631771
2999.99999999837,17.8779598706725,1.00000000096567,0.537789969163284
3099.99999999828,21.8454477297773,1.00000000101575,0.543509969861516
3199.99999999819,26.1506737814581,1.00000000098454,0.548598451585136
3299.99999999809,30.7450588715391,1.00000000100858,0.552537674224414
3399.999999998,35.5806197019219,1.00000000101894,0.555101878030645
3499.99999999791,40.6086747658758,1.00000000093932,0.557254195644166
3599.99999999782,45.7665613719109,1.00000000095483,0.559216023968814
3699.99999999773,50.9876847890796,1.00000000095222,0.559992171665002
3799.99999999764,56.224600837786,1.00000000087704,0.560424334017166
3899.99999999755,61.440074115336,1.0000000008795,0.560424989581095
3999.99999999746,66.5852170267776,1.00000000091352,0.560380904039091
4099.99999999738,71.6107489683015,1.00000000082155,0.558541965637595
4199.99999999775,76.4756403251621,1.00000000084647,0.5586385185901
4299.99999999811,81.1523315784174,1.0000000008308,0.556714062109552
4399.99999999848,85.6283729517094,1.00000000080152,0.555320545675139
4499.99999999884,89.8735009588238,1.00000000075134,0.554325132870985
4599.9999999992,93.8627091040994,1.00000000072578,0.552079558532542
4699.99999999957,97.583386472758,1.00000000072339,0.55162969930342
4799.99999999993,101.02950765648,1.00000000074865,0.54886979903513
4900.00000000029,104.200695468279,1.00000000072005,0.547196072907848
5000.00000000066,107.085615222744,1.00000000066091,0.546756115952788
5100.00000000102,109.683503683357,1.00000000067893,0.544528328771907
5200.00000000139,111.993197249354,1.00000000067073,0.541521060263394
5300.00000000175,114.032843459783,1.00000000064267,0.544006303027446
5400.00000000211,115.808387275865,1.00000000064948,0.541280704288995
5500.00000000248,117.314097856288,1.0000000005697,0.53326341727198
5600.00000000284,118.55345149369,1.00000000058275,0.539003869987155
5700.00000000321,119.56245564794,1.00000000060302,0.546187919883901
5800.00000000357,120.349995977391,1.0000000005959,0.531254929523519
5900.00000000393,120.891677763461,1.00000000049296,0.52214718392796
6000.0000000043,121.217018742247,1.00000000055521,0.544511462593302
6100.00000000466,121.392590627739,1.00000000058888,0.551376621600144
6200.00000000502,121.406913070015,1.00000000048345,0.520230968729712
6300.00000000539,121.209139636694,1.00000000041634,0.504986649731239
6400.00000000575,120.84635108588,1.00000000053491,0.542869882285697
6500.00000000612,120.4175746926,1.00000000067617,0.562624197505982
6600.00000000648,119.923928484216,1.00000000053545,0.52740039610716
6700.00000000684,119.279058738266,1.00000000034675,0.480710871838014
6800.00000000721,118.476673829709,1.00000000043353,0.506956342274434
6900.00000000757,117.625338143989,1.00000000067823,0.561459410787175
7000.00000000793,116.799994462954,1.00000000071204,0.56509846964467
7100.0000000083,115.956012862988,1.00000000051511,0.509416245481644
7200.00000000866,114.999733734489,1.00000000030664,0.449247878171265
7300.00000000903,113.929312312986,1.00000000041127,0.481822828119536
7400.00000000939,112.839540698773,1.00000000072216,0.5524347616047
7500.00000000975,111.804271698406,1.0000000008167,0.573166732554154
7600.00000001012,110.814818724494,1.00000000067739,0.537012504626744
7700.00000001048,109.795170494902,1.00000000037924,0.453239721808386
7800.00000001084,108.689396371795,1.00000000027394,0.412903709089943
7900.00000001121,107.52641217405,1.00000000048333,0.474671510413819
8000.00000001157,106.376143721778,1.00000000073599,0.54692705591738
8100.00000001194,105.285929093885,1.00000000081312,0.564970055853756
8200.0000000123,104.254221314585,1.00000000072406,0.543865440724151
8300.00000001266,103.234483035881,1.00000000049103,0.476299538813632
8400.00000001303,102.177835190483,1.00000000030335,0.39811782624469
8500.00000001339,101.078391764219,1.0000000003122,0.401138415902217
8600.00000001376,99.9683666391315,1.00000000053669,0.472413695908864
8700.00000001412,98.8823968307783,1.00000000074415,0.533038670099393
8800.00000001448,97.8405902739805,1.00000000084866,0.55235116622961
8900.00000001485,96.844952262144,1.00000000075061,0.543359484011948
9000.00000001521,95.8765081916744,1.00000000058292,0.500590267152273
9100.00000001557,94.9086918951933,1.00000000040806,0.437687724173689
9200.00000001594,93.9305683718905,1.00000000032335,0.392150471274657
9300.0000000163,92.9492065485169,1.0000000003624,0.405543212672648
9400.00000001667,91.9757321920189,1.00000000049925,0.457247644251293
9500.00000001703,91.0189659053892,1.00000000068144,0.507828963190654
9600.00000001739,90.0849185463424,1.00000000072296,0.529665587386244
9700.00000001776,89.1773463691452,1.00000000074805,0.53623685977997
9800.00000001812,88.2948456537629,1.00000000064948,0.532254822587789
9900.00000001848,87.4296907987518,1.0000000005407,0.49551619051524
10000.0000000188,86.5747199434024,1.00000000041946,0.44712437310871
10100.0000000192,85.7316367913864,1.00000000038456,0.417666658100915
10200.0000000196,84.9070292356993,1.0000000004146,0.415568345970894
10300.0000000199,84.1028867827382,1.00000000046169,0.443618649933695
10400.0000000203,83.3158456563342,1.00000000051497,0.472917867528754
10500.0000000207,82.5435300344294,1.00000000055867,0.499184500639042
10600.000000021,81.7838313070764,1.00000000060627,0.509568296632896
10700.0000000214,81.03490510054,1.00000000071371,0.517964214544087
10800.0000000218,80.2952415115424,1.00000000073429,0.533832504479228
10900.0000000221,79.5666198994674,1.00000000067304,0.535599737546539
11000.0000000225,78.8520281451507,1.0000000005128,0.501312195932511
11100.0000000229,78.1568053993818,1.00000000037259,0.453813882793947
11200.0000000232,77.4880085958646,1.00000000035831,0.424082572299483
11300.0000000236,76.8470882304259,1.00000000045957,0.427222148879349
11400.0000000239,76.2300233572434,1.000000000545,0.443013893523119
11500.0000000243,75.6304108365921,1.00000000056912,0.472234011579002
11600.0000000247,75.0432221027513,1.00000000057392,0.486370273446706
11700.000000025,74.4676891920076,1.00000000055672,0.492358236153588
11800.0000000254,73.9060978733582,1.00000000049297,0.493096422516002
11900.0000000258,73.357653259357,1.00000000051681,0.494894287732223
12000.0000000261,72.8143383964303,1.00000000066163,0.507551568102084
12100.0000000265,72.2662532905692,1.00000000074553,0.527831859843006
12200.0000000269,71.7127664386395,1.00000000078301,0.540366504544934
12300.0000000272,71.1613677751776,1.00000000064456,0.530798997997117
12400.0000000276,70.6225411894688,1.00000000052338,0.497022159422611
12500.0000000279,70.109091926114,1.00000000037327,0.455583869196578
12600.0000000283,69.6309965827116,1.00000000036308,0.430629709917309
12700.0000000287,69.1874982064072,1.00000000043824,0.428029895931204
12800.000000029,68.7683484776267,1.00000000052433,0.445488901149973
12900.0000000294,68.3620428373812,1.00000000058083,0.464498557592087
13000.0000000298,67.9613364599095,1.00000000060168,0.483944073665753
13100.0000000301,67.5639036674387,1.000000000614,0.497483758671559
13200.0000000305,67.1718176782494,1.00000000056355,0.50208343643273
13300.0000000309,66.7883342127076,1.00000000053777,0.501270340666113
13400.0000000312,66.4156323397237,1.00000000048821,0.505591977547461
13500.0000000316,66.0533337456608,1.00000000050444,0.509881734488564
13600.0000000319,65.6946638592206,1.00000000056885,0.511307190778123
13700.0000000323,65.3319608281612,1.00000000065523,0.514800694868228
13800.0000000327,64.9592700354793,1.00000000072222,0.523312629833221
13900.000000033,64.5752638068044,1.00000000072858,0.536013794866653
14000.0000000334,64.1854444582513,1.0000000007212,0.542001734987542
14100.0000000338,63.8003132873988,1.0000000005597,0.524767923253319
14200.0000000341,63.4321077426632,1.00000000042749,0.495686301987199
14300.0000000345,63.0916439725303,1.00000000040225,0.464928118084884
14400.0000000349,62.7856376577045,1.0000000003987,0.450759899313818
14500.0000000352,62.5129042923593,1.00000000044284,0.451725589405846
14600.0000000356,62.2661783087684,1.00000000049626,0.453627198687592
14700.0000000359,62.0353286076469,1.00000000053957,0.46332322464199
14800.0000000363,61.8110482948136,1.00000000057525,0.482608396777665
14900.0000000367,61.5896344209836,1.00000000056839,0.491228203236162
15000.000000037,61.3763030908227,1.00000000051504,0.489843057835574
15100.0000000374,61.172656664437,1.00000000052476,0.494202291643189
15200.0000000378,60.9739787086858,1.0000000005446,0.506519341361122
15300.0000000381,60.7699402323891,1.00000000059883,0.522936644373358
15400.0000000385,60.5554824991907,1.00000000060679,0.535333379885462
15500.0000000389,60.3313231380272,1.00000000059401,0.539613959683614
15600.0000000392,60.1030645581961,1.00000000057215,0.543522029087064
15700.0000000396,59.8756958634762,1.00000000053429,0.536496105923127
15800.0000000399,59.652748393152,1.00000000046288,0.523845910938982
15900.0000000403,59.4340070010731,1.00000000054052,0.513094727255883
16000.0000000407,59.2150626107321,1.00000000057002,0.509374318607277
16100.000000041,58.9890732016752,1.00000000065267,0.52347412172962
16200.0000000414,58.7508702162057,1.0000000007608,0.540145814609525
16300.0000000418,58.5009259659275,1.0000000007024,0.55052471220897
16400.0000000418,58.2467252344259,1.00000000061107,0.546060780229513
16500.0000000404,58.0001065187666,1.00000000052991,0.52732977349365
16600.0000000389,57.7741628592529,1.00000000045076,0.502213852358738
16700.0000000375,57.5791556963869,1.00000000038818,0.480968618176756
16800.000000036,57.4182293510484,1.0000000003958,0.46499984813689
16900.0000000346,57.2881391975436,1.00000000045891,0.461995758047293
17000.0000000331,57.1790126538827,1.000000000498,0.465733226810894
17100.0000000317,57.0812372463486,1.00000000055144,0.473517293369579
17200.0000000302,56.9893636339489,1.00000000057148,0.4770051246604
17300.0000000287,56.900421643291,1.00000000058264,0.481918887876436
17400.0000000273,56.8128371192202,1.00000000056011,0.494035620930901
17500.0000000258,56.7262833358232,1.00000000057265,0.505586479363923
17600.0000000244,56.642980254388,1.00000000054189,0.514655466570786
17700.0000000229,56.5680418690505,1.00000000049491,0.517986236908833
17800.0000000215,56.5057127766519,1.00000000048614,0.518661242731747
17900.00000002,56.4521877594745,1.00000000049168,0.523043216103772
18000.0000000186,56.3980852884254,1.0000000005939,0.532779319940167
18100.0000000171,56.3330044661099,1.00000000060919,0.537607881868582
18200.0000000156,56.2492530412972,1.00000000063282,0.544669138068564
18300.0000000142,56.1443093232101,1.00000000065003,0.547137531792884
18400.0000000127,56.0193532844053,1.00000000063296,0.544782519299656
18500.0000000113,55.8804701628263,1.00000000058147,0.548469334686732
18600.0000000098,55.7350638908093,1.0000000005408,0.558501935845176
18700.0000000084,55.5900521615499,1.0000000005157,0.557110113108467
18800.0000000069,55.4497502830808,1.00000000048515,0.54586510476457
18900.0000000055,55.315725598786,1.0000000004719,0.543157790650885
19000.000000004,55.1859916884527,1.00000000050863,0.544275055261733
19100.0000000026,55.0569371950418,1.00000000057643,0.537531059383029
19200.0000000011,54.9256421897077,1.00000000059477,0.533705236709999
19299.9999999996,54.7892433612241,1.00000000063605,0.537356088850811
19399.9999999982,54.6452620005171,1.00000000068931,0.547662798372622
19499.9999999967,54.4910554776037,1.00000000071288,0.556953727261058
19599.9999999953,54.3280343525032,1.00000000066601,0.562068565583882
19699.9999999938,54.1632707592468,1.00000000057848,0.556718887344808
19799.9999999924,54.0070177364406,1.00000000048272,0.542339699973589
19899.9999999909,53.8692568724301,1.00000000044358,0.525277915765828
19999.9999999895,53.7566077105623,1.00000000043611,0.505902953266696
20099.999999988,53.6719108998615,1.00000000043919,0.491759366986305
20199.9999999865,53.6148259930035,1.00000000045629,0.481786947782853
20299.9999999851,53.5812374345546,1.00000000048058,0.48228263943188
20399.9999999836,53.5647850297909,1.00000000051473,0.486969305061216
20499.9999999822,53.5602947927046,1.00000000055863,0.487630994419432
20599.9999999807,53.5630745081935,1.00000000060393,0.483501530553735
20699.9999999793,53.5667047895269,1.00000000056199,0.484836015383369
20799.9999999778,53.5701274666299,1.00000000057196,0.487463146780895
20899.9999999764,53.5772494749534,1.0000000005367,0.4841751012691
20999.9999999749,53.5928889040495,1.00000000051601,0.483018217203581
21099.9999999734,53.6178889321304,1.00000000050259,0.492824945995223
21199.999999972,53.6466857796683,1.0000000005463,0.511223454529803
21299.9999999705,53.6720142096776,1.000000000575,0.525963279183009
21399.9999999691,53.6883627981273,1.00000000061886,0.534541402076353
21499.9999999676,53.6939692866593,1.00000000062709,0.543491105155008
21599.9999999662,53.6912362915133,1.00000000058416,0.546019741099184
21699.9999999647,53.6848406126439,1.0000000005508,0.54666793314618
21799.9999999633,53.6785806184134,1.00000000054905,0.545333633220176
21899.9999999618,53.6725945786187,1.00000000053421,0.545549523569804
21999.9999999603,53.6651308224876,1.00000000052683,0.555446071918765
22099.9999999589,53.6544151890709,1.00000000055749,0.56566661776421
22199.9999999574,53.639224004472,1.00000000054344,0.567114056468977
22299.999999956,53.6161321325484,1.00000000055389,0.564008960656638
22399.9999999545,53.5827631522384,1.00000000056659,0.56063044049377
22499.9999999531,53.5382064750974,1.00000000058741,0.560064160576978
22599.9999999516,53.4829068163933,1.00000000059689,0.554599825973248
22699.9999999502,53.4169147257281,1.00000000062933,0.540940333758039
22799.9999999487,53.3415615299256,1.0000000006094,0.532248709414891
22899.9999999473,53.2571834917408,1.00000000059266,0.53830595781934
22999.9999999458,53.1645256916054,1.00000000061582,0.552887995240098
23099.9999999443,53.0646128456707,1.00000000060878,0.560618232222297
23199.9999999429,52.9591669165881,1.0000000005896,0.56165983906219
23299.9999999414,52.8528548346087,1.00000000057057,0.557594572133318
23399.99999994,52.7493852736519,1.0000000005003,0.554316936832142
23499.9999999385,52.6509223061996,1.00000000046783,0.554241323535854
23599.9999999371,52.5566277737234,1.00000000048107,0.557989457280189
23699.9999999356,52.4641780119637,1.0000000005291,0.555639757663209
23799.9999999342,52.372233144201,1.0000000005532,0.552017626105832
23899.9999999327,52.2798495467347,1.00000000057217,0.552470677905975
23999.9999999312,52.1863208666938,1.00000000058194,0.551406270410248
24099.9999999298,52.0903634311771,1.00000000063246,0.548385171355373
24199.9999999283,51.9897169162038,1.0000000006566,0.547074264037865
24299.9999999269,51.8837254842177,1.00000000068495,0.546386113771171
24399.9999999254,51.771297991153,1.00000000067106,0.549234609570958
24499.999999924,51.6531147019255,1.00000000066256,0.55176597647991
24599.9999999225,51.5335832731709,1.00000000061666,0.553958060063124
24699.9999999211,51.418786793201,1.00000000057078,0.550235703977287
24799.9999999196,51.3148092742291,1.00000000048096,0.542635629793442
24899.9999999181,51.2273323649609,1.00000000047713,0.529693624279169
24999.9999999167,51.1602387594614,1.00000000045134,0.518405742079964
25099.9999999152,51.1165432195538,1.00000000045375,0.51313940999307
25199.9999999138,51.0968031033957,1.00000000043238,0.504258999314057
25299.9999999123,51.0987237160554,1.00000000047922,0.497960953011739
25399.9999999109,51.1168618201361,1.00000000052261,0.495456362250215
25499.9999999094,51.1474226237461,1.00000000052252,0.493362831831291
25599.999999908,51.1895941231483,1.00000000050548,0.492351818364538
25699.9999999065,51.2396930357167,1.00000000056961,0.49526557423409
25799.9999999051,51.2930359490115,1.00000000058345,0.499344857545458
25899.9999999036,51.3488969079275,1.00000000054223,0.501305650198897
25999.9999999021,51.4081724299673,1.00000000055532,0.498806188042218
26099.9999999007,51.4732672995984,1.0000000005218,0.493841685867094
26199.9999998992,51.5437115700718,1.00000000055904,0.496034484622716
26299.9999998978,51.6169824274461,1.00000000053687,0.504805149116173
26399.9999998963,51.6916806119051,1.00000000057081,0.515085528209665
26499.9999998949,51.7667540385501,1.00000000055708,0.522721832586625
26599.9999998934,51.8404662917797,1.00000000053435,0.532296186186459
26699.999999892,51.9113552047685,1.00000000060458,0.542731885998775
26799.9999998905,51.9775295248619,1.00000000061291,0.550143349354239
26899.999999889,52.0379908756109,1.00000000059175,0.558133685764044
26999.9999998876,52.0920578865893,1.00000000057204,0.567109179865696
27099.9999998861,52.1410716240198,1.00000000061485,0.571961571167148
27199.9999998847,52.1853371253782,1.00000000054221,0.575346210329755
27299.9999998832,52.2248912917925,1.00000000056281,0.57585881380454
27399.9999998818,52.2586845775596,1.00000000056489,0.574395848961225
27499.9999998803,52.2858445314964,1.00000000057314,0.574469117684742
27599.9999998789,52.3060733594419,1.00000000056714,0.575617774308824
27699.9999998774,52.319571404624,1.00000000059504,0.579155164259432
27799.9999998759,52.3267757718993,1.00000000061104,0.580402539705074
27899.9999998745,52.3286640587747,1.00000000058023,0.585115120842136
27999.999999873,52.3269885426102,1.00000000054581,0.588282874877017
28099.9999998716,52.3244685474911,1.0000000005341,0.582807058467208
28199.9999998701,52.3222630561133,1.00000000056693,0.580948590314987
28299.9999998687,52.318394775639,1.00000000056907,0.581938721055333
28399.9999998672,52.3112280735376,1.00000000058446,0.579130513601054
28499.9999998658,52.2999212805371,1.00000000057622,0.5792175272087
28599.9999998643,52.2843373436157,1.00000000058245,0.574831590331674
28699.9999998629,52.2625958088221,1.00000000059611,0.571456288543782
28799.9999998614,52.2336464105746,1.00000000060891,0.572526240460528
28899.9999998599,52.1986384814287,1.00000000058557,0.569213546964094
28999.9999998585,52.1588363437831,1.00000000058552,0.56986500883642
