Time,AGPnorm,Energy,Entropy
0,0,1,-1.067808834605e-18
99.9999999999986,0.0116029565991217,1.00000000000164,0.029753302942463
199.999999999993,0.030166785003508,1.00000000000153,0.0883390440813145
300,0.0576960877118631,1.00000000001398,0.182152635291142
400.000000000022,0.0919816844558212,1.00000000071685,0.333343797390662
500.000000000045,0.270500642764364,1.00000000262099,0.473349753441628
600.000000000068,1.05906209097163,1.0000000037686,0.551745195718113
700.000000000091,2.67479720167521,1.00000000414024,0.584742644695629
800.000000000113,4.80223282496993,1.00000000401901,0.597805946418903
900.000000000136,7.15394222992802,1.0000000040728,0.593313041646156
1000.00000000016,9.25431280634848,1.00000000345302,0.586152462428577
1100.0000000001,10.9783721225985,1.00000000315817,0.574304402442012
1200,12.1611483470091,1.00000000274968,0.564223866055588
1299.99999999991,12.8472989072934,1.00000000240719,0.557555006638018
1399.99999999982,13.1081204599381,1.00000000256388,0.564611400920938
1499.99999999973,13.0273929362141,1.00000000293225,0.578919142856159
1599.99999999964,12.747860860258,1.00000000199426,0.496331525110493
1699.99999999955,12.3981806302892,1.00000000263699,0.523451704250251
1799.99999999946,11.9291169844433,1.00000000286647,0.53323749093778
1899.99999999937,11.4976647181398,1.00000000210457,0.477204796493352
1999.99999999928,11.0125901548198,1.000000002454,0.494577165553001
2099.99999999919,10.5721493788582,1.00000000266925,0.534495472130207
2199.99999999909,10.1495150384961,1.00000000192146,0.431128029337978
2299.999999999,9.72584127185941,1.00000000301098,0.535463559533994
2399.99999999891,9.33940097041849,1.00000000302658,0.54105361770025
2499.99999999882,9.00419806500778,1.00000000169722,0.421665134082671
2599.99999999873,8.67816195498676,1.00000000270788,0.526855555773325
2699.99999999864,8.36979368330181,1.00000000267729,0.539469827325797
2799.99999999855,8.07467275617763,1.00000000290528,0.544376063624853
2899.99999999846,7.84748164697492,1.00000000173478,0.428708026193057
2999.99999999837,7.65188444510607,1.00000000304997,0.505954999455252
3099.99999999828,7.44780442441048,1.0000000026012,0.537360578134607
3199.99999999819,7.25290534398794,1.00000000270672,0.558200685560312
3299.99999999809,7.05278766072243,1.0000000031814,0.557114302723117
3399.999999998,6.87164841165575,1.00000000228647,0.514920958001236
3499.99999999791,6.77841370020272,1.00000000194373,0.449280157815904
3599.99999999782,6.71000064934995,1.00000000282211,0.515519588981744
3699.99999999773,6.62360371455507,1.0000000025612,0.546598199866908
3799.99999999764,6.53907991606251,1.0000000027232,0.563374331136559
3899.99999999755,6.43683688936919,1.0000000030969,0.587594230348431
3999.99999999746,6.32801770717797,1.00000000259573,0.580339875002107
4099.99999999738,6.21097336775303,1.000000003278,0.580451139612532
4199.99999999775,6.08953017096551,1.00000000302472,0.571469211461108
4299.99999999811,6.02206396516019,1.00000000188756,0.488523153179147
4399.99999999848,6.04420058012411,1.00000000200678,0.490126544218267
4499.99999999884,6.07275696284764,1.00000000292359,0.537084535994465
4599.9999999992,6.08657763403597,1.00000000278424,0.555130427651278
4699.99999999957,6.08305859837622,1.00000000287206,0.584706840091271
4799.99999999993,6.05903758971064,1.00000000276921,0.602033418739373
4900.00000000029,6.03984071930127,1.00000000265722,0.597632150191622
5000.00000000066,6.01100797575737,1.00000000277825,0.605941171363668
5100.00000000102,5.96517328401756,1.00000000299295,0.599012769682174
5200.00000000139,5.90415413757741,1.0000000028291,0.615646238521959
5300.00000000175,5.84079827619183,1.00000000263625,0.61599433619065
5400.00000000211,5.77029072683229,1.00000000284957,0.617265505752831
5500.00000000248,5.69336664560827,1.00000000329865,0.61751231197024
5600.00000000284,5.61499522336253,1.00000000309858,0.588902634773974
5700.00000000321,5.56825914248742,1.0000000021206,0.533381551657759
5800.00000000357,5.6054428174071,1.00000000208455,0.494670556674172
5900.00000000393,5.7067500980858,1.00000000246112,0.520706988129908
6000.0000000043,5.80360597835552,1.00000000328911,0.557581275662413
6100.00000000466,5.88377566077809,1.00000000287481,0.569806551269974
6200.00000000502,5.95025192398365,1.00000000303117,0.586234803994293
6300.00000000539,5.99994167205823,1.00000000295086,0.614965689836155
6400.00000000575,6.02781142884923,1.00000000293164,0.628978124897645
6500.00000000612,6.0441602078331,1.00000000305847,0.636944227249519
6600.00000000648,6.04984882315201,1.00000000306246,0.634504150623922
6700.00000000684,6.04285078322855,1.0000000031952,0.639927007502342
6800.00000000721,6.0370190460807,1.00000000272801,0.628040872311331
6900.00000000757,6.03636667800641,1.00000000279159,0.625387934665278
7000.00000000793,6.03415659380713,1.00000000300413,0.608175840462082
7100.0000000083,6.01844356565744,1.00000000330731,0.620187911273962
7200.00000000866,6.00181336173853,1.00000000280127,0.636363616911067
7300.00000000903,5.98509785421584,1.00000000308235,0.650891138203303
7400.00000000939,5.96414076826737,1.00000000301984,0.640948003304296
7500.00000000975,5.94187249100607,1.00000000315385,0.628051332454364
7600.00000001012,5.91956194898827,1.00000000326882,0.629668673578028
7700.00000001048,5.88394427368052,1.00000000331257,0.646720539261004
7800.00000001084,5.83888273222628,1.00000000322926,0.659082480668744
7900.00000001121,5.78794759838866,1.00000000293107,0.659831764704129
8000.00000001157,5.7371480057944,1.0000000028494,0.662172072862701
8100.00000001194,5.68724389752416,1.00000000309621,0.659556499852886
8200.0000000123,5.6388321914814,1.00000000359223,0.667687379984571
8300.00000001266,5.59125054813322,1.00000000357314,0.645940141384753
8400.00000001303,5.53921287633996,1.00000000339697,0.612037060851304
8500.00000001339,5.4938632447731,1.00000000261923,0.572511740277009
8600.00000001376,5.48941993956512,1.00000000224798,0.53230383302419
8700.00000001412,5.55726461975059,1.00000000238662,0.520994483025163
8800.00000001448,5.69143026947299,1.00000000279697,0.530622337277257
8900.00000001485,5.85014183944213,1.00000000305305,0.544512086683859
9000.00000001521,6.00232934473552,1.00000000350565,0.567940482970057
9100.00000001557,6.14483769340718,1.00000000343447,0.573095112150923
9200.00000001594,6.27321088804644,1.00000000310413,0.584099253560211
9300.0000000163,6.39178662243481,1.00000000327657,0.60271694671204
9400.00000001667,6.49134011239444,1.00000000354376,0.608489078657534
9500.00000001703,6.5789613210098,1.00000000336559,0.635465129258489
9600.00000001739,6.6520655562177,1.00000000324371,0.646864333339048
9700.00000001776,6.71543194217716,1.0000000032169,0.633826714140656
9800.00000001812,6.77052459895479,1.00000000365805,0.648936416964943
9900.00000001848,6.81601182141918,1.00000000362817,0.665039308316884
10000.0000000188,6.85121074549144,1.0000000034937,0.672251892737036
10100.0000000192,6.8870731489525,1.00000000355884,0.656327203389445
10200.0000000196,6.92169745524343,1.00000000343286,0.661900629877649
10300.0000000199,6.94231877608371,1.00000000386661,0.678768997036012
10400.0000000203,6.95828318048092,1.00000000332089,0.673948974569368
10500.0000000207,6.97659931747347,1.00000000348082,0.671969999022276
10600.000000021,6.98307028450464,1.00000000348698,0.680541118921887
10700.0000000214,6.98589439930592,1.00000000366353,0.673512028803189
10800.0000000218,6.98130080254144,1.00000000323182,0.662064952078011
10900.0000000221,6.97580834529156,1.00000000357107,0.679829866952653
11000.0000000225,6.96576710238704,1.00000000392477,0.680486445575383
11100.0000000229,6.95152418030085,1.00000000357556,0.682248392334616
11200.0000000232,6.94296521775021,1.00000000409293,0.660278865614077
11300.0000000236,6.94573057654211,1.0000000032298,0.652295335041983
11400.0000000239,6.96496885595677,1.00000000333289,0.637261596092483
11500.0000000243,6.99579246698207,1.00000000335846,0.632007855689709
11600.0000000247,7.03213248182747,1.00000000385566,0.637931793686885
11700.000000025,7.0598388838349,1.00000000369573,0.629975285771109
11800.0000000254,7.0839940581435,1.00000000336727,0.644432037411521
11900.0000000258,7.10609356411214,1.00000000365127,0.656390059881552
12000.0000000261,7.13100499211512,1.00000000367942,0.659309022310858
12100.0000000265,7.1484976265082,1.00000000382719,0.660502694340454
12200.0000000269,7.16758098405787,1.00000000374305,0.669621561762416
12300.0000000272,7.18824864447265,1.0000000038555,0.668388163724449
12400.0000000276,7.20828302675211,1.00000000390022,0.674505923397803
12500.0000000279,7.21826476864493,1.00000000404146,0.68484853083201
12600.0000000283,7.23570822283884,1.00000000372742,0.674784426247339
12700.0000000287,7.25606367530166,1.00000000392296,0.669908658791208
12800.000000029,7.28590533661455,1.00000000378433,0.666262122147961
12900.0000000294,7.31754722897128,1.00000000402093,0.655934572916589
13000.0000000298,7.34473813534475,1.00000000379012,0.687623222921553
13100.0000000301,7.37486354963654,1.00000000376406,0.683693860122385
13200.0000000305,7.41085187344125,1.00000000384958,0.690825809835919
13300.0000000309,7.44374878116623,1.0000000038922,0.681209530217937
13400.0000000312,7.47728365193704,1.00000000386137,0.665652616712048
13500.0000000316,7.50577570822321,1.00000000411478,0.692643386233042
13600.0000000319,7.53275090382722,1.00000000422726,0.685388106533544
13700.0000000323,7.55791445710707,1.00000000401126,0.69541111560222
13800.0000000327,7.57851382477079,1.00000000433858,0.686346139528604
13900.000000033,7.60366097274631,1.00000000391571,0.700460027564123
14000.0000000334,7.63501622948753,1.0000000038075,0.679333683147585
14100.0000000338,7.65890977712257,1.00000000456903,0.69543973418211
14200.0000000341,7.67096050915476,1.00000000405919,0.685468281820099
14300.0000000345,7.68788067016529,1.00000000408457,0.679052876995672
14400.0000000349,7.70584955836665,1.00000000440933,0.687534453895553
14500.0000000352,7.72140289859967,1.00000000397426,0.682128889287847
14600.0000000356,7.73328403263079,1.00000000440284,0.695017389200998
14700.0000000359,7.74296661720791,1.00000000423982,0.679425443308476
14800.0000000363,7.75650440919486,1.00000000420228,0.695901236823852
14900.0000000367,7.76446677397818,1.00000000443618,0.700269095824305
15000.000000037,7.77493560470073,1.00000000375799,0.686053171920314
15100.0000000374,7.78539440371167,1.00000000442264,0.698440362860715
15200.0000000378,7.78580436553646,1.0000000045072,0.699069003227155
15300.0000000381,7.7840679493833,1.00000000410547,0.699008569890044
15400.0000000385,7.77838832982522,1.00000000385889,0.701104282836783
15500.0000000389,7.76611799200203,1.00000000432406,0.686768367091059
15600.0000000392,7.744940610119,1.00000000442186,0.701518611704852
15700.0000000396,7.71774147804121,1.00000000438788,0.698354871873855
15800.0000000399,7.68923241015385,1.00000000441467,0.706981073039718
15900.0000000403,7.65939656267581,1.00000000390783,0.700179909268987
16000.0000000407,7.63124531451277,1.00000000489826,0.706667030792675
16100.000000041,7.60629499259135,1.00000000406741,0.695805526786307
16200.0000000414,7.58472519792617,1.00000000497194,0.707496558113923
16300.0000000418,7.57036488596927,1.00000000428788,0.69985057092118
16400.0000000418,7.55870420370585,1.00000000455561,0.715773452600777
16500.0000000404,7.55616012426409,1.00000000464457,0.709699015967591
16600.0000000389,7.55467149286492,1.00000000455707,0.710528739553221
16700.0000000375,7.55516235722478,1.00000000474031,0.69103463105346
16800.000000036,7.55037475161713,1.00000000440338,0.668455307122404
16900.0000000346,7.54676126481525,1.00000000445751,0.659074616695519
17000.0000000331,7.54309351541023,1.00000000440876,0.634816938171402
17100.0000000317,7.56157259325866,1.00000000404698,0.6156772033669
17200.0000000302,7.61806551167086,1.00000000358737,0.603978402632516
17300.0000000287,7.73565908173515,1.00000000333397,0.584795898187519
17400.0000000273,7.91948771599118,1.00000000386724,0.57659370771051
17500.0000000258,8.18540285339684,1.00000000398249,0.577381801224967
17600.0000000244,8.49893365043657,1.0000000039861,0.578284695886701
17700.0000000229,8.8760051847709,1.00000000435934,0.59028720283618
17800.0000000215,9.25268603638962,1.00000000452297,0.590132462746879
17900.00000002,9.65288925539511,1.00000000487639,0.599279714792636
18000.0000000186,10.0224888906837,1.00000000475405,0.604988304606447
18100.0000000171,10.4090529822053,1.00000000448641,0.60844597795001
18200.0000000156,10.7778806604732,1.00000000437836,0.619748298128319
18300.0000000142,11.1376433844542,1.00000000489153,0.619015642346591
18400.0000000127,11.4956160025796,1.00000000462162,0.627322785865788
18500.0000000113,11.8289903859538,1.00000000444346,0.620794645845513
18600.0000000098,12.1767961299357,1.00000000452442,0.634476454033729
18700.0000000084,12.4970342074168,1.00000000456998,0.642782737898638
18800.0000000069,12.8223582054226,1.00000000502518,0.642526993557561
18900.0000000055,13.1183390511012,1.00000000461497,0.655670043081284
19000.000000004,13.4023400801002,1.00000000469781,0.66421260507627
19100.0000000026,13.6693334259378,1.00000000494655,0.689174222664348
19200.0000000011,13.9235082087598,1.00000000457208,0.674536065898914
19299.9999999996,14.1898773481758,1.00000000499505,0.678865790357717
19399.9999999982,14.4236830235197,1.00000000457816,0.673162895109687
19499.9999999967,14.6578329424489,1.00000000483479,0.697440508353897
19599.9999999953,14.8761905850988,1.00000000495173,0.693533251053912
19699.9999999938,15.0878416918421,1.00000000485348,0.682683105893818
19799.9999999924,15.2975854246027,1.00000000463303,0.696291784170609
19899.9999999909,15.4948228979291,1.00000000477126,0.685815350623645
19999.9999999895,15.6923230574278,1.00000000477079,0.689617693588641
20099.999999988,15.8785209225653,1.00000000481665,0.703435722061998
20199.9999999865,16.0670615264773,1.00000000493486,0.704895880071936
20299.9999999851,16.2491075309705,1.0000000049592,0.707682669415962
20399.9999999836,16.433348616986,1.00000000520503,0.687853272258298
20499.9999999822,16.6109457211988,1.00000000516426,0.703034510329871
20599.9999999807,16.7689644640024,1.000000005175,0.701640982981978
20699.9999999793,16.9165163804147,1.00000000478541,0.707632466218763
20799.9999999778,17.055488943399,1.00000000478973,0.713903196599744
20899.9999999764,17.2121528503892,1.00000000473697,0.706294666387825
20999.9999999749,17.3828577482286,1.00000000491552,0.701836100729413
21099.9999999734,17.5552866031031,1.00000000495152,0.692593319086733
21199.999999972,17.7107399471087,1.00000000502875,0.70244762415164
21299.9999999705,17.8556958546231,1.00000000491972,0.705324399868028
21399.9999999691,18.002985139671,1.00000000502199,0.714128253966643
21499.9999999676,18.1541829422641,1.00000000479645,0.707780409545033
21599.9999999662,18.3066002371549,1.00000000555341,0.709602332184164
21699.9999999647,18.4507377494573,1.00000000543291,0.716600481831722
21799.9999999633,18.590986120871,1.00000000538996,0.693400622790616
21899.9999999618,18.7300448282267,1.00000000539058,0.717249721559762
21999.9999999603,18.8662518385299,1.00000000550412,0.7223840473125
22099.9999999589,19.0057541167271,1.0000000051436,0.720994878930706
22199.9999999574,19.1528349302319,1.0000000048703,0.703176385224288
22299.999999956,19.3009907316635,1.00000000592548,0.710864214314982
22399.9999999545,19.443591046058,1.00000000517846,0.712307257328922
22499.9999999531,19.5882536076646,1.00000000499028,0.695093594884001
22599.9999999516,19.7385842120169,1.0000000052517,0.714611260542704
22699.9999999502,19.8862061087232,1.00000000541857,0.704471751325689
22799.9999999487,20.0329924301964,1.00000000524672,0.678945349116294
22899.9999999473,20.1842917706563,1.00000000463613,0.688812623294836
22999.9999999458,20.3359725474015,1.00000000551104,0.692639249201745
23099.9999999443,20.4960590951049,1.00000000600027,0.694074304735909
23199.9999999429,20.6546407290291,1.00000000557894,0.70938222739269
23299.9999999414,20.8182088414069,1.00000000518047,0.693679443626934
23399.99999994,20.9784893412629,1.00000000555296,0.690055913156214
23499.9999999385,21.137416269903,1.00000000569258,0.703549689234273
23599.9999999371,21.295062533028,1.00000000557725,0.704041516849276
23699.9999999356,21.4615518071204,1.00000000524081,0.688115428323979
23799.9999999342,21.632127247095,1.00000000517061,0.715485151752875
23899.9999999327,21.8044102578679,1.00000000515807,0.709191195694944
23999.9999999312,21.9704073632728,1.00000000495209,0.699797015371795
24099.9999999298,22.1347364073014,1.00000000525891,0.690555995249334
24199.9999999283,22.2959162706334,1.00000000621869,0.707092668734113
24299.9999999269,22.4411884538331,1.00000000600942,0.712374919589205
24399.9999999254,22.5829017638237,1.00000000553897,0.686496435746063
24499.999999924,22.73470456986,1.00000000547414,0.702696548991471
24599.9999999225,22.8848743747529,1.00000000598066,0.715664475278123
24699.9999999211,23.036972661211,1.00000000534212,0.699085373340511
24799.9999999196,23.1978863734425,1.00000000562139,0.683413770670055
24899.9999999181,23.3670142768278,1.00000000526442,0.703860622735901
24999.9999999167,23.5278209663528,1.00000000622787,0.715552513075398
25099.9999999152,23.6767707737841,1.00000000549317,0.720317538175629
25199.9999999138,23.8318834834697,1.00000000546665,0.713651063298539
25299.9999999123,23.9951171504723,1.00000000601105,0.72200152357825
25399.9999999109,24.1673876270979,1.00000000559675,0.717087832807922
25499.9999999094,24.3511671596243,1.00000000565911,0.720647861595095
25599.999999908,24.5433196775401,1.00000000511664,0.720885055575742
25699.9999999065,24.7567033262303,1.00000000544697,0.720289999029748
25799.9999999051,24.9729621013753,1.0000000060433,0.725953217110166
25899.9999999036,25.1813263330392,1.0000000058665,0.715622099581066
25999.9999999021,25.3834107249092,1.00000000559973,0.707183768643308
26099.9999999007,25.5984466004721,1.00000000534765,0.707937990187131
26199.9999998992,25.8211127393388,1.00000000568834,0.730654686604696
26299.9999998978,26.0347178894821,1.00000000578951,0.729590689809253
26399.9999998963,26.2582014211208,1.00000000580718,0.714952978525185
26499.9999998949,26.492694693314,1.00000000590815,0.711408115422635
26599.9999998934,26.7380277246051,1.00000000614342,0.716388700062052
26699.999999892,26.9831997330002,1.00000000587723,0.717919721146919
26799.9999998905,27.218119921683,1.0000000062239,0.718080069425398
26899.999999889,27.4517804557405,1.00000000575803,0.713346158887679
26999.9999998876,27.697284326316,1.00000000545532,0.711241451762592
27099.9999998861,27.9548326471546,1.00000000635245,0.713284813755524
27199.9999998847,28.2114910194227,1.00000000608208,0.722754608591515
27299.9999998832,28.4609360577289,1.00000000646423,0.711782826523872
27399.9999998818,28.6926319228934,1.00000000610769,0.716628964383867
27499.9999998803,28.9219886574652,1.00000000599801,0.716942142372707
27599.9999998789,29.150099021641,1.00000000618243,0.721832222213696
27699.9999998774,29.3704312969899,1.00000000625552,0.713989765139821
27799.9999998759,29.5960128952568,1.00000000649187,0.707137057251056
27899.9999998745,29.8303208596691,1.00000000579688,0.705811536870513
27999.999999873,30.0719787061735,1.00000000601961,0.703464714330443
28099.9999998716,30.317792645152,1.00000000564686,0.712177241236452
28199.9999998701,30.5723656991396,1.00000000562457,0.719716948769988
28299.9999998687,30.8312988851459,1.00000000652536,0.707321854317152
28399.9999998672,31.0911314895441,1.00000000659744,0.711059442088697
28499.9999998658,31.3431446194073,1.0000000063484,0.72416399613292
28599.9999998643,31.5757567481262,1.00000000650182,0.723039018763963
28699.9999998629,31.8082139722861,1.00000000612149,0.713673854823915
28799.9999998614,32.0388358351682,1.00000000686642,0.726541030704616
28899.9999998599,32.2829871521811,1.00000000571677,0.706373005166928
28999.9999998585,32.5421474318733,1.0000000058568,0.710176936610533
29099.999999857,32.8091726681071,1.00000000586136,0.715907708489804
