Time,AGPnorm,Energy,Entropy
0,0,1,-7.58754449046459e-17
99.9999999999986,0.000677006763179508,1.00000000000094,0.00241098339920929
199.999999999993,0.00442858767099668,0.999999999999253,0.00721253010889416
300,0.00943264422338619,0.999999999997935,0.0132818590157178
400.000000000022,0.0144042177069683,0.999999999999172,0.0208376583700398
500.000000000045,0.020319985798025,1.00000000000067,0.0301357005327237
600.000000000068,0.0280685783225862,0.999999999999993,0.0408740451435265
700.000000000091,0.0370097107528411,0.999999999998398,0.052507304787246
800.000000000113,0.0460146622695527,0.999999999998629,0.0651491279876075
900.000000000136,0.0555665112472845,1.00000000000018,0.079341105547688
1000.00000000016,0.0662163936748806,1.00000000000025,0.0951909009772991
1100.0000000001,0.0772695833656354,0.99999999999909,0.112578015259212
1200,0.0883235007892222,0.999999999998823,0.131741593701422
1299.99999999991,0.0992864557516071,1.00000000000042,0.153498391584398
1399.99999999982,0.11038374411201,1.00000000000466,0.178978737970388
1499.99999999973,0.120946224397301,1.00000000001631,0.208568729937268
1599.99999999964,0.13577426644501,1.00000000004619,0.242048698551524
1699.99999999955,0.156180369158233,1.00000000010646,0.277919832984528
1799.99999999946,0.184022377601281,1.00000000020196,0.313895687238299
1899.99999999937,0.24556172790052,1.00000000031175,0.348051860376578
1999.99999999928,0.402972906125133,1.00000000040288,0.37891323904617
2099.99999999919,0.702348009632954,1.0000000005155,0.406247325213739
2199.99999999909,1.17637355047919,1.00000000057792,0.430549171300678
2299.999999999,1.89869741866857,1.0000000006781,0.452235702611814
2399.99999999891,2.9669037069423,1.00000000079396,0.470728579444257
2499.99999999882,4.43161142893968,1.00000000081801,0.486887664311918
2599.99999999873,6.29682939349993,1.00000000089125,0.50067949086716
2699.99999999864,8.58364885055644,1.00000000091188,0.512917451422788
2799.99999999855,11.3323359622492,1.00000000093901,0.523110848781304
2899.99999999846,14.535333785483,1.00000000093936,0.531509383294464
2999.99999999837,18.1464791036041,1.00000000097394,0.538366890792031
3099.99999999828,22.1238841819318,1.00000000104684,0.544429064270256
3199.99999999819,26.4460566155753,1.00000000101835,0.549281830122065
3299.99999999809,31.0666794656634,1.0000000009812,0.552932762837905
3399.999999998,35.9176606544827,1.00000000099258,0.555564488867128
3499.99999999791,40.9405528031483,1.00000000091699,0.557765129437106
3599.99999999782,46.0852779061903,1.00000000094753,0.559751864033622
3699.99999999773,51.3028438320098,1.00000000090683,0.560309208289984
3799.99999999764,56.5335732304245,1.00000000094671,0.56008422688762
3899.99999999755,61.7243120154717,1.0000000009119,0.560659914895856
3999.99999999746,66.8330791588982,1.00000000088445,0.560722499697982
4099.99999999738,71.8241597071695,1.00000000088227,0.558179241547449
4199.99999999775,76.6593351233841,1.00000000085353,0.558718591264525
4299.99999999811,81.2999010720575,1.00000000083602,0.556689420758473
4399.99999999848,85.7270376352758,1.00000000080834,0.555399701434032
4499.99999999884,89.9213679026858,1.00000000077512,0.554203329209439
4599.9999999992,93.8627089788724,1.0000000007577,0.551687412092325
4699.99999999957,97.536230056292,1.00000000072396,0.551625628937124
4799.99999999993,100.929714911926,1.00000000071623,0.548740998573065
4900.00000000029,104.045318039523,1.00000000072651,0.547260362041765
5000.00000000066,106.874915327293,1.00000000067961,0.546757854525072
5100.00000000102,109.421645565118,1.00000000068327,0.544160485256583
5200.00000000139,111.681340995525,1.00000000067665,0.541435453292258
5300.00000000175,113.667832746009,1.00000000062233,0.544576357559291
5400.00000000211,115.390232549299,1.00000000061376,0.541141485244213
5500.00000000248,116.845180343901,1.00000000058397,0.53273858139143
5600.00000000284,118.039344491413,1.00000000060245,0.539624619829231
5700.00000000321,119.004267129497,1.00000000058686,0.546364918494884
5800.00000000357,119.747112241842,1.00000000055104,0.529969085093896
5900.00000000393,120.243890700467,1.00000000049707,0.522683781838493
6000.0000000043,120.533431126866,1.00000000059355,0.546272445586374
6100.00000000466,120.678230206796,1.0000000006096,0.550619338225539
6200.00000000502,120.6589586315,1.00000000048986,0.517448583929902
6300.00000000539,120.426919230789,1.00000000042242,0.505898768034193
6400.00000000575,120.039907122075,1.0000000005965,0.546070332454025
6500.00000000612,119.595764573894,1.00000000068144,0.562086930686641
6600.00000000648,119.083543612271,1.00000000052886,0.522700487873344
6700.00000000684,118.413882207853,1.00000000034069,0.478662298028119
6800.00000000721,117.594287516724,1.00000000045145,0.512066891391318
6900.00000000757,116.737720295384,1.0000000006637,0.564262048948433
7000.00000000793,115.909995581846,1.00000000070419,0.56240615532177
7100.0000000083,115.056021161526,1.0000000004933,0.502420968505687
7200.00000000866,114.084507730324,1.00000000030196,0.447058698434526
7300.00000000903,113.006452866314,1.00000000047225,0.48847149038586
7400.00000000939,111.920225922127,1.0000000006933,0.556817179748154
7500.00000000975,110.892332205009,1.00000000079713,0.572222318337056
7600.00000001012,109.904638329588,1.00000000062893,0.530584120690025
7700.00000001048,108.878804047132,1.00000000035851,0.445155776809438
7800.00000001084,107.767296590972,1.00000000028162,0.414448773804785
7900.00000001121,106.606263297089,1.00000000051042,0.483172911880944
8000.00000001157,105.464959941301,1.00000000075314,0.551038257824555
8100.00000001194,104.385294881363,1.00000000081992,0.564513174754527
8200.0000000123,103.360149482991,1.00000000068512,0.538594950536908
8300.00000001266,102.341688692652,1.00000000047903,0.466722856173315
8400.00000001303,101.284411827988,1.00000000029504,0.394835007894888
8500.00000001339,100.187351034221,1.00000000033781,0.406977244331236
8600.00000001376,99.0842449804574,1.00000000056333,0.480374686099755
8700.00000001412,98.0079927767384,1.00000000077204,0.536158934019553
8800.00000001448,96.9767677662902,1.00000000081683,0.552122446592988
8900.00000001485,95.989852073225,1.00000000074184,0.539749650617295
9000.00000001521,95.0264519173235,1.00000000055183,0.494329733949232
9100.00000001557,94.0618044486279,1.00000000041706,0.43178258793497
9200.00000001594,93.0880001029934,1.00000000033055,0.392378821988706
9300.0000000163,92.1129661758041,1.00000000038125,0.410877788649977
9400.00000001667,91.1472160985673,1.00000000050645,0.463502419294457
9500.00000001703,90.1988869332199,1.000000000665,0.511567576353829
9600.00000001739,89.2734827994907,1.00000000072644,0.530074391315394
9700.00000001776,88.3742199302711,1.00000000071685,0.536196235190734
9800.00000001812,87.499064949837,1.00000000067857,0.528881032687152
9900.00000001848,86.6400128134407,1.00000000052425,0.489645122184449
10000.0000000188,85.7911609536087,1.00000000042293,0.443723594679851
10100.0000000192,84.9554617757367,1.00000000040032,0.41835616882079
10200.0000000196,84.139041576493,1.00000000044586,0.420614716085863
10300.0000000199,83.3428004170666,1.00000000048184,0.44833156951086
10400.0000000203,82.5633517624188,1.00000000054658,0.475645012425033
10500.0000000207,81.798601289556,1.00000000056855,0.500529728379396
10600.000000021,81.0462627942397,1.00000000059421,0.509061451314788
10700.0000000214,80.3041491116208,1.00000000067531,0.519276034085859
10800.0000000218,79.5710135575905,1.0000000007433,0.535087706172535
10900.0000000221,78.8490518276017,1.00000000066155,0.53322547999339
11000.0000000225,78.1417164111889,1.00000000047501,0.495044670757819
11100.0000000229,77.4549569413908,1.00000000036103,0.449046869696851
11200.0000000232,76.7953388904308,1.0000000003799,0.424751885037156
11300.0000000236,76.1630127041721,1.00000000048203,0.430914851725269
11400.0000000239,75.5531533156647,1.00000000055727,0.448677382449132
11500.0000000243,74.9595607347678,1.00000000057123,0.476776763214584
11600.0000000247,74.3781128914149,1.00000000055755,0.486869644017511
11700.000000025,73.8090410595398,1.00000000051365,0.491555861833026
11800.0000000254,73.254488294099,1.00000000048633,0.492773505256594
11900.0000000258,72.7125308939887,1.00000000054429,0.496177463800898
12000.0000000261,72.174163845207,1.00000000064716,0.510748187133832
12100.0000000265,71.6299508878735,1.00000000078367,0.529617049609058
12200.0000000269,71.0807650245399,1.0000000007387,0.540226185934225
12300.0000000272,70.5351192307859,1.00000000061652,0.526824241481381
12400.0000000276,70.0040506013835,1.00000000048976,0.49107658479545
12500.0000000279,69.5003241986081,1.00000000037728,0.452285005927107
12600.0000000283,69.0322168404512,1.00000000038498,0.431169107069779
12700.0000000287,68.5972366639606,1.00000000042771,0.432071975754619
12800.000000029,68.1840101622311,1.00000000053182,0.450427970386461
12900.0000000294,67.7814190826663,1.00000000059959,0.468520041652058
13000.0000000298,67.3834190232157,1.00000000062051,0.486827163278318
13100.0000000301,66.9890317839926,1.0000000005909,0.498615426928982
13200.0000000305,66.6013961458924,1.00000000054666,0.502059606180873
13300.0000000309,66.2232639932274,1.00000000051939,0.500981620116262
13400.0000000312,65.855938089753,1.00000000049273,0.50659085528269
13500.0000000316,65.4979111338127,1.00000000053018,0.511226649341422
13600.0000000319,65.1424143235303,1.0000000005655,0.511955773766667
13700.0000000323,64.7821488049026,1.00000000066477,0.515664074903055
13800.0000000327,64.4115453166604,1.00000000071597,0.524177940980221
13900.000000033,64.0300604121426,1.00000000074483,0.537001003149145
14000.0000000334,63.6442088030845,1.00000000067815,0.541016626342391
14100.0000000338,63.2653305519475,1.00000000053247,0.521150028554567
14200.0000000341,62.9054902911726,1.00000000042969,0.490789385790809
14300.0000000345,62.5746952705579,1.00000000038959,0.461633268632547
14400.0000000349,62.2778444004577,1.00000000043486,0.452754467873539
14500.0000000352,62.0125725005081,1.00000000042639,0.454573566593706
14600.0000000356,61.7708194011351,1.00000000051539,0.45577034163491
14700.0000000359,61.5431007168263,1.00000000056441,0.468098886390258
14800.0000000363,61.3203091770328,1.00000000058766,0.486279456165111
14900.0000000367,61.1010909085501,1.00000000056946,0.490794612651392
15000.000000037,60.8908779272358,1.00000000052045,0.489177963361109
15100.0000000374,60.6905987637053,1.00000000049498,0.495745298110596
15200.0000000378,60.4938151455504,1.00000000057628,0.509656406528264
15300.0000000381,60.2904256332364,1.00000000060832,0.526048270192999
15400.0000000385,60.0756610969075,1.00000000063465,0.535849773965903
15500.0000000389,59.8519180945195,1.00000000058839,0.541112767451186
15600.0000000392,59.6249263037022,1.0000000005251,0.543419644185908
15700.0000000396,59.3999295838557,1.00000000049929,0.534481244874642
15800.0000000399,59.1802133077092,1.00000000050592,0.521461563258588
15900.0000000403,58.9643901363569,1.00000000051898,0.510429340132884
16000.0000000407,58.7472490564929,1.00000000061453,0.510069854620326
16100.000000041,58.5221577887704,1.00000000067095,0.52569208196239
16200.0000000414,58.2840957205974,1.00000000074778,0.542283547523029
16300.0000000418,58.0355018928151,1.00000000067488,0.550908697610492
16400.0000000418,57.7849965871138,1.00000000060198,0.54367827629582
16500.0000000404,57.5445947593544,1.00000000049613,0.522295031066337
16600.0000000389,57.3271855115366,1.0000000004395,0.498479948580449
16700.0000000375,57.1413775023898,1.00000000043257,0.478298075759285
16800.000000036,56.9886959204657,1.00000000041535,0.466102789475827
16900.0000000346,56.8644273216519,1.00000000049216,0.46479413103071
17000.0000000331,56.7582715128244,1.00000000052947,0.469727458546054
17100.0000000317,56.6608115718912,1.00000000056126,0.475904671674851
17200.0000000302,56.5685151130333,1.00000000055937,0.478239483965961
17300.0000000287,56.4795605119676,1.00000000055662,0.484040044662832
17400.0000000273,56.391936809022,1.00000000054616,0.496143295119291
17500.0000000258,56.3056022990272,1.00000000058782,0.507955944366065
17600.0000000244,56.2237660584282,1.00000000053233,0.515836421331814
17700.0000000229,56.1511685800351,1.0000000004877,0.517974973701394
17800.0000000215,56.0909578841277,1.00000000051086,0.519095117149242
17900.00000002,56.038495041052,1.00000000050971,0.524194745204139
18000.0000000186,55.9832916403555,1.00000000058399,0.533970313180571
18100.0000000171,55.9152870108235,1.00000000061463,0.538832474996449
18200.0000000156,55.8276837875339,1.00000000066236,0.545787382092305
18300.0000000142,55.7190186920492,1.0000000006643,0.546581574318709
18400.0000000127,55.5911709925052,1.00000000066369,0.544883012576027
18500.0000000113,55.4509640063988,1.00000000057388,0.551660961060519
18600.0000000098,55.3055947873622,1.00000000051719,0.560109760984412
18700.0000000084,55.1614618001866,1.00000000051643,0.555452583304857
18800.0000000069,55.0229922375304,1.00000000047218,0.545486463381814
18900.0000000055,54.8909585152793,1.00000000047574,0.543858930036643
19000.000000004,54.7627901415644,1.00000000052264,0.542891266126609
19100.0000000026,54.6347426574772,1.00000000053963,0.535407747495208
19200.0000000011,54.5042522044618,1.00000000057424,0.533351534720013
19299.9999999996,54.3683716532698,1.00000000062715,0.538262549656597
19399.9999999982,54.2243342747674,1.0000000006797,0.548990353148554
19499.9999999967,54.0698941004193,1.0000000007171,0.558084857320539
19599.9999999953,53.9077181594195,1.00000000068801,0.562523942155644
19699.9999999938,53.7463358368706,1.00000000056156,0.55503168500049
19799.9999999924,53.5959575068821,1.00000000048591,0.538648594634413
19899.9999999909,53.4658835746476,1.00000000044524,0.521493201850209
19999.9999999895,53.3615051290382,1.00000000043561,0.503341295238326
20099.999999988,53.2845228504879,1.00000000043513,0.491321262798974
20199.9999999865,53.2335745732326,1.00000000046416,0.482930907068728
20299.9999999851,53.2038641289055,1.00000000049508,0.486685324993923
20399.9999999836,53.1893300742395,1.00000000048139,0.489854024089064
20499.9999999822,53.184890982425,1.0000000005591,0.4873690273536
20599.9999999807,53.1859244746661,1.0000000005905,0.484744329149086
20699.9999999793,53.1872730662114,1.00000000057376,0.486805526756974
20799.9999999778,53.1894239190662,1.00000000054906,0.487214460585236
20899.9999999764,53.1970949191809,1.00000000050488,0.483074997128187
20999.9999999749,53.2141061322956,1.00000000051385,0.483785478077261
21099.9999999734,53.2395836486629,1.00000000051389,0.497990811801846
21199.999999972,53.2668262253321,1.00000000055183,0.516960913943167
21299.9999999705,53.2891693963267,1.00000000059842,0.528537185120595
21399.9999999691,53.3017252758003,1.00000000061356,0.535977363638699
21499.9999999676,53.3039486662384,1.00000000061715,0.544824612520739
21599.9999999662,53.299245338716,1.00000000058319,0.546681705982512
21699.9999999647,53.2923263337365,1.00000000054971,0.546598284947548
21799.9999999633,53.2859788296761,1.00000000054813,0.54562665929118
21899.9999999618,53.2797006794519,1.0000000005486,0.547721886788769
21999.9999999603,53.2715492904431,1.00000000053102,0.560137282171418
22099.9999999589,53.2597468813117,1.00000000054368,0.567591596164658
22199.9999999574,53.2426286689325,1.00000000057497,0.56828381460776
22299.999999956,53.2167446578537,1.00000000058775,0.564170482296941
22399.9999999545,53.1802066154157,1.00000000059177,0.561243594049588
22499.9999999531,53.1326558665262,1.0000000005866,0.559786454560159
22599.9999999516,53.0745300212649,1.0000000005832,0.551404626575971
22699.9999999502,53.0059651612425,1.00000000059236,0.537499949378493
22799.9999999487,52.9281755999939,1.00000000058833,0.534152184817123
22899.9999999473,52.841275613551,1.00000000056768,0.543877021208406
22999.9999999458,52.7458238194295,1.00000000062974,0.557114590945874
23099.9999999443,52.6437033529771,1.00000000060671,0.562934884627645
23199.9999999429,52.5374859277501,1.00000000055884,0.561013693921282
23299.9999999414,52.431746243134,1.00000000052143,0.556630410610245
23399.99999994,52.3297535621305,1.00000000049257,0.554888421350967
23499.9999999385,52.2330522596351,1.0000000004768,0.556666629887148
23599.9999999371,52.1399904082674,1.00000000051635,0.558399758506169
23699.9999999356,52.0481909376671,1.00000000052566,0.553828237801737
23799.9999999342,51.956742959134,1.00000000058102,0.552069149643483
23899.9999999327,51.8649245868885,1.00000000059577,0.553442046975829
23999.9999999312,51.7720188465155,1.00000000059886,0.551365062576962
24099.9999999298,51.6763758637622,1.00000000061198,0.548097819055579
24199.9999999283,51.5758646586618,1.00000000065651,0.545770555841407
24299.9999999269,51.4698428920809,1.000000000679,0.546801460760433
24399.9999999254,51.3572694675039,1.00000000067849,0.549729355435095
24499.999999924,51.2396657532294,1.00000000064703,0.551787518556971
24599.9999999225,51.1223451482276,1.0000000005851,0.554104792414699
24699.9999999211,51.0119078384926,1.00000000051491,0.550011613952759
24799.9999999196,50.9140985549456,1.00000000048542,0.54101080625302
24899.9999999181,50.8339394381089,1.00000000045538,0.527433054533317
24999.9999999167,50.7745947304484,1.00000000042874,0.518476226210782
25099.9999999152,50.7385587191319,1.00000000045023,0.51361663447831
25199.9999999138,50.7254425717169,1.00000000043857,0.50352804563449
25299.9999999123,50.731674096321,1.00000000053351,0.500201764563186
25399.9999999109,50.7520087021988,1.00000000053845,0.498284193882313
25499.9999999094,50.7839424069166,1.00000000050235,0.494937321819274
25599.999999908,50.8264356152949,1.00000000054561,0.495315120610378
25699.9999999065,50.8748235574941,1.00000000056513,0.497733569822598
25799.9999999051,50.925891141769,1.00000000059752,0.501944732045328
25899.9999999036,50.9800600104356,1.00000000053672,0.50220506075157
25999.9999999021,51.0386610381834,1.00000000053171,0.497303261057036
26099.9999999007,51.1036887526285,1.00000000051618,0.493848526499703
26199.9999998992,51.1734766656207,1.00000000054437,0.499559065643974
26299.9999998978,51.245513197409,1.00000000052496,0.508767519740702
26399.9999998963,51.3181587615126,1.00000000054935,0.518872667478629
26499.9999998949,51.3909726081895,1.00000000055672,0.52660974953755
26599.9999998934,51.4621170581356,1.00000000053127,0.535917955910136
26699.999999892,51.5295681035485,1.00000000058672,0.54416325566349
26799.9999998905,51.5917700474591,1.00000000062999,0.553726925189444
26899.999999889,51.6484692466962,1.0000000005893,0.562612910193709
26999.9999998876,51.6991155796754,1.00000000058523,0.568751470585255
27099.9999998861,51.7452258979278,1.00000000057727,0.573960329930028
27199.9999998847,51.7871679994276,1.00000000054311,0.576697364551643
27299.9999998832,51.8246175270901,1.00000000058059,0.576141493084379
27399.9999998818,51.856553672595,1.00000000058899,0.575282957173646
27499.9999998803,51.8821738832745,1.00000000059241,0.575344877878581
27599.9999998789,51.9008373776816,1.00000000058612,0.577348629945184
27699.9999998774,51.9124243025012,1.00000000059135,0.580707455718969
27799.9999998759,51.9173580748044,1.00000000060799,0.583487203215576
27899.9999998745,51.9170613808612,1.00000000059353,0.590120005997444
27999.999999873,51.9140313509583,1.00000000054778,0.589865800261923
28099.9999998716,51.9109319402841,1.00000000053195,0.582752013498512
28199.9999998701,51.9076850399627,1.00000000055263,0.583283575017146
28299.9999998687,51.902230561681,1.00000000057782,0.582476216904835
28399.9999998672,51.893438505154,1.0000000005818,0.580709864271124
28499.9999998658,51.8806203543763,1.00000000057472,0.579267066450075
28599.9999998643,51.8633246300462,1.00000000058392,0.573421016948014
28699.9999998629,51.8392246994244,1.00000000059776,0.571091109445833
28799.9999998614,51.8079502928154,1.00000000060575,0.572086932964845
28899.9999998599,51.7712704533028,1.00000000059898,0.57040862185916
28999.9999998585,51.7300874937876,1.00000000057391,0.571986059520443
