Time,AGPnorm,Energy,Entropy
0,0,1,-3.52376915419642e-18
99.9999999999986,0.00745812169832745,1.00000000000152,0.0215301143174176
199.999999999993,0.0197958646567561,1.00000000000011,0.062076717341942
300,0.0398597240263869,1.00000000000198,0.123580131677707
400.000000000022,0.059909502398378,1.00000000003789,0.212013675480814
500.000000000045,0.0800753475116768,1.00000000051177,0.339525153903535
600.000000000068,0.283014985421729,1.00000000167624,0.454624189640748
700.000000000091,0.970519255687645,1.00000000240838,0.5258634441096
800.000000000113,2.47870271408834,1.00000000282218,0.563301746471284
900.000000000136,4.74068162131632,1.00000000292497,0.579353900985804
1000.00000000016,7.46847028087644,1.00000000281451,0.582928690715115
1100.0000000001,10.3565903344972,1.00000000282473,0.579324072182149
1200,13.0501619297589,1.00000000257256,0.570756540599649
1299.99999999991,15.3755864553072,1.00000000234834,0.56430111657663
1399.99999999982,17.1938757813173,1.00000000207706,0.556197984421328
1499.99999999973,18.4747717604054,1.00000000202288,0.55366368184215
1599.99999999964,19.2358382316125,1.000000001733,0.533634033274074
1699.99999999955,19.5934301641629,1.00000000169975,0.535082512927235
1799.99999999946,19.5626000390918,1.00000000184577,0.558974519423564
1899.99999999937,19.348482696883,1.00000000119405,0.481445321446837
1999.99999999928,18.899069191666,1.00000000219552,0.562918140554571
2099.99999999919,18.4537000241267,1.00000000141804,0.479468786850095
2199.99999999909,17.8431799570566,1.00000000167037,0.483495245551214
2299.999999999,17.289264189041,1.00000000236083,0.575925158148261
2399.99999999891,16.7377605305017,1.00000000104632,0.385990006315932
2499.99999999882,16.1319976343267,1.00000000181971,0.490742936546235
2599.99999999873,15.5750552502227,1.00000000252483,0.571288187956576
2699.99999999864,15.0742375020227,1.00000000137952,0.450753000140308
2799.99999999855,14.5812666179539,1.00000000124829,0.393947507033434
2899.99999999846,14.0951550150353,1.00000000185768,0.517419382091702
2999.99999999837,13.6312061454024,1.00000000205527,0.540908126870526
3099.99999999828,13.2053150777759,1.00000000193963,0.544981776965187
3199.99999999819,12.8298061160534,1.00000000092109,0.383451497972104
3299.99999999809,12.5138824549037,1.00000000161116,0.436291728700836
3399.999999998,12.1928964395364,1.0000000021361,0.532600833692675
3499.99999999791,11.8826434035602,1.00000000165191,0.521166246338959
3599.99999999782,11.5730001044961,1.00000000230717,0.54113227548518
3699.99999999773,11.2645429882786,1.00000000211046,0.563941875755009
3799.99999999764,11.0040799854076,1.00000000101407,0.431301444319842
3899.99999999755,10.8427161436455,1.00000000121961,0.394503718400589
3999.99999999746,10.7219886764705,1.00000000189638,0.490670513858155
4099.99999999738,10.5798865914875,1.00000000193074,0.529101267537623
4199.99999999775,10.4212396688062,1.0000000019148,0.551438234441924
4299.99999999811,10.258659128185,1.0000000017011,0.549589517713631
4399.99999999848,10.0926105646883,1.00000000176892,0.544469717668497
4499.99999999884,9.91168898850913,1.00000000240638,0.546932415268043
4599.9999999992,9.71410346375803,1.00000000241757,0.580915266778123
4699.99999999957,9.53610166084819,1.00000000138156,0.507650484950362
4799.99999999993,9.44577964622754,1.00000000103569,0.410581113459242
4900.00000000029,9.46554747394053,1.00000000153175,0.421140044379101
5000.00000000066,9.51183185044141,1.00000000175747,0.480325808868177
5100.00000000102,9.52356915040523,1.00000000204056,0.53833251361177
5200.00000000139,9.51097131819546,1.00000000184498,0.55415698038186
5300.00000000175,9.48456551830748,1.00000000190755,0.568744540962997
5400.00000000211,9.43934649347745,1.00000000191417,0.569599990875175
5500.00000000248,9.37801284961725,1.00000000179826,0.554944988902124
5600.00000000284,9.29826081361779,1.00000000208391,0.580980312513147
5700.00000000321,9.21101115278068,1.00000000167799,0.574049886460246
5800.00000000357,9.12718082669791,1.00000000171089,0.580288193594348
5900.00000000393,9.03248896352082,1.00000000186442,0.580699082570136
6000.0000000043,8.92345518195256,1.0000000023119,0.584665365314987
6100.00000000466,8.80042778261359,1.00000000241788,0.585099294142085
6200.00000000502,8.67301039397098,1.00000000205912,0.56848153568089
6300.00000000539,8.57496872073698,1.00000000131558,0.493472252091421
6400.00000000575,8.56494455288655,1.00000000110119,0.431468144466385
6500.00000000612,8.66910165215048,1.00000000140685,0.428616841627827
6600.00000000648,8.82782721789155,1.00000000185062,0.470337811366485
6700.00000000684,8.97824395767673,1.00000000210423,0.507274533669866
6800.00000000721,9.0998943113095,1.00000000197916,0.532413972239549
6900.00000000757,9.2021657578191,1.00000000185931,0.566705281850084
7000.00000000793,9.27621259110161,1.00000000203068,0.575294275486466
7100.0000000083,9.32271535921486,1.00000000210102,0.596760737384423
7200.00000000866,9.34422707222465,1.00000000193303,0.599227871028349
7300.00000000903,9.33889169464179,1.00000000202828,0.60365153561821
7400.00000000939,9.32075051494991,1.0000000020493,0.584423418573625
7500.00000000975,9.29764170474832,1.00000000193292,0.579938382050257
7600.00000001012,9.27541458102623,1.00000000179555,0.565741836068581
7700.00000001048,9.24632327988346,1.00000000200197,0.558223580176218
7800.00000001084,9.20839957465605,1.00000000193799,0.580057890208081
7900.00000001121,9.17291752715366,1.00000000173324,0.581939383627377
8000.00000001157,9.13975059494213,1.00000000200144,0.591673995968904
8100.00000001194,9.10356776446687,1.0000000018207,0.595032393170643
8200.0000000123,9.06339543594481,1.00000000195811,0.586256529066561
8300.00000001266,9.01551302575801,1.00000000204694,0.586350327898427
8400.00000001303,8.96066812711375,1.00000000209083,0.596146713283846
8500.00000001339,8.89522703387681,1.00000000203908,0.619450072514562
8600.00000001376,8.82457118947954,1.00000000187706,0.620908959985093
8700.00000001412,8.75573631443337,1.00000000183377,0.616648917406948
8800.00000001448,8.68454688967001,1.00000000197648,0.615334375232848
8900.00000001485,8.61033523068592,1.00000000223751,0.609227307885492
9000.00000001521,8.53427127666623,1.00000000236834,0.606231223869313
9100.00000001557,8.4592313034937,1.00000000251412,0.588173898075392
9200.00000001594,8.38190923556242,1.00000000248352,0.575541661638052
9300.0000000163,8.29736909862424,1.00000000193012,0.562752448054319
9400.00000001667,8.21534642988333,1.00000000161546,0.525046038231968
9500.00000001703,8.16572380320252,1.00000000138307,0.475390123355009
9600.00000001739,8.19024907748306,1.00000000128244,0.437737422392288
9700.00000001776,8.31201463480497,1.00000000127394,0.430692004278518
9800.00000001812,8.515560219918,1.00000000177041,0.447095289093564
9900.00000001848,8.7620900339095,1.00000000186911,0.465649794529163
10000.0000000188,9.00656171453017,1.00000000234184,0.494961139089873
10100.0000000192,9.23919089986001,1.00000000202425,0.521614716305303
10200.0000000196,9.44967472556071,1.00000000219044,0.541576964420759
10300.0000000199,9.64185621710553,1.00000000230951,0.554939719597965
10400.0000000203,9.81401591267613,1.00000000209351,0.576199040614195
10500.0000000207,9.96852164711951,1.00000000203291,0.601666299221513
10600.000000021,10.0972850891869,1.00000000237742,0.611871757166906
10700.0000000214,10.198822130166,1.00000000202572,0.61304772013011
10800.0000000218,10.2811583512298,1.0000000023528,0.632685030922279
10900.0000000221,10.3388032861548,1.00000000217893,0.641388321532429
11000.0000000225,10.3751625172126,1.00000000237297,0.645796984000672
11100.0000000229,10.3986209242328,1.00000000208744,0.642272131334422
11200.0000000232,10.4132731297556,1.00000000221305,0.641604835437463
11300.0000000236,10.420691760424,1.00000000226866,0.636054498427005
11400.0000000239,10.4231844757316,1.00000000235642,0.641064556962297
11500.0000000243,10.4087896738772,1.00000000236348,0.637819768115704
11600.0000000247,10.3899173586552,1.00000000191977,0.615015655051144
11700.000000025,10.3717045044172,1.00000000239231,0.632294682208348
11800.0000000254,10.3421494094732,1.00000000237299,0.633491365889695
11900.0000000258,10.3069182100724,1.00000000213922,0.643406313462349
12000.0000000261,10.2689398839537,1.0000000021929,0.646963819643553
12100.0000000265,10.2294794718155,1.00000000224359,0.655553186893732
12200.0000000269,10.1881554515639,1.00000000215632,0.653009970176007
12300.0000000272,10.1507301347963,1.00000000219344,0.634921307568363
12400.0000000276,10.1207936454824,1.00000000229709,0.621791554933588
12500.0000000279,10.0974181607661,1.0000000020674,0.622026999583011
12600.0000000283,10.0789694670712,1.00000000212516,0.620956590887508
12700.0000000287,10.0660263585199,1.00000000203895,0.623930569112541
12800.000000029,10.0531799890463,1.00000000229388,0.628842392866362
12900.0000000294,10.0370252825883,1.00000000231612,0.635399958675392
13000.0000000298,10.0177102127426,1.00000000233825,0.623652918107264
13100.0000000301,10.001241267713,1.00000000220351,0.61514359596949
13200.0000000305,9.98481693548284,1.0000000022054,0.620056559027013
13300.0000000309,9.97283531279272,1.00000000205501,0.611128618062446
13400.0000000312,9.96319903347049,1.00000000209075,0.601109825066153
13500.0000000316,9.95315809853009,1.00000000234374,0.594141834374183
13600.0000000319,9.93727767973506,1.00000000235909,0.6037493768822
13700.0000000323,9.92580733890726,1.0000000021335,0.593944005982815
13800.0000000327,9.918048319231,1.00000000246828,0.621624516137535
13900.000000033,9.90969464871102,1.00000000226472,0.634333697443585
14000.0000000334,9.9011066276608,1.00000000228138,0.629587256686485
14100.0000000338,9.88986622366915,1.00000000243637,0.632576301492219
14200.0000000341,9.87626618353581,1.00000000225955,0.643435722614913
14300.0000000345,9.86480219253371,1.00000000223721,0.633125021687852
14400.0000000349,9.8503405942771,1.00000000245394,0.641808563196451
14500.0000000352,9.82674521926497,1.0000000020702,0.64792135034878
14600.0000000356,9.80762695612221,1.00000000199634,0.634286842880161
14700.0000000359,9.79386068148788,1.00000000228604,0.652876051947644
14800.0000000363,9.77382217579858,1.0000000024144,0.645517872998036
14900.0000000367,9.75106903112542,1.00000000222105,0.621057864740486
15000.000000037,9.72450914869934,1.00000000243885,0.633461356787439
15100.0000000374,9.70127268845545,1.00000000203419,0.654194312964576
15200.0000000378,9.68152404217289,1.0000000023896,0.663296873806825
15300.0000000381,9.65800037876022,1.00000000248706,0.652325295914233
15400.0000000385,9.62951709334901,1.00000000251924,0.653290693805149
15500.0000000389,9.60081201246397,1.00000000205902,0.645043419599203
15600.0000000392,9.57681217679867,1.00000000255622,0.645974434991611
15700.0000000396,9.54842102386695,1.00000000231128,0.64653946751466
15800.0000000399,9.5176511737499,1.00000000247702,0.650486279763279
15900.0000000403,9.48770587163066,1.00000000204574,0.648607986615744
16000.0000000407,9.45682075270522,1.0000000024608,0.647140427641308
16100.000000041,9.4265773261552,1.00000000226538,0.65906368545667
16200.0000000414,9.39539913966436,1.00000000234405,0.656061852631233
16300.0000000418,9.35980330722675,1.00000000233707,0.665509246283643
16400.0000000418,9.32078072704592,1.00000000245076,0.63929206065085
16500.0000000404,9.28052171110665,1.00000000242592,0.655518974625513
16600.0000000389,9.23579778909558,1.00000000249527,0.653826125959195
16700.0000000375,9.19107467721658,1.00000000226584,0.641247506830976
16800.000000036,9.14630233165344,1.00000000242711,0.664727437708238
16900.0000000346,9.09704667411131,1.00000000257929,0.666134125362538
17000.0000000331,9.04691122832007,1.00000000253405,0.665848781413708
17100.0000000317,8.99697961322891,1.00000000229609,0.662378814089264
17200.0000000302,8.9471401857311,1.00000000226122,0.672847579626479
17300.0000000287,8.89705290863603,1.00000000214603,0.667734396078111
17400.0000000273,8.84801513009768,1.00000000228224,0.645840602176494
17500.0000000258,8.80137001987723,1.00000000235892,0.661579893520138
17600.0000000244,8.75728512033337,1.00000000227595,0.660399082427241
17700.0000000229,8.71793100740534,1.00000000234295,0.65920570100902
17800.0000000215,8.68431357520159,1.00000000240621,0.666165659373922
17900.00000002,8.65816622229704,1.00000000271909,0.667525365900212
18000.0000000186,8.64508490121517,1.00000000270136,0.67460386748322
18100.0000000171,8.6390658466832,1.00000000286848,0.682266405837304
18200.0000000156,8.65114423759497,1.00000000291111,0.687506675439279
18300.0000000142,8.66160298908444,1.00000000293171,0.685985368784871
18400.0000000127,8.68383864252638,1.0000000027124,0.671935496754463
18500.0000000113,8.68831382169194,1.00000000271605,0.653734732129612
18600.0000000098,8.68534193298269,1.00000000248011,0.63342400914465
18700.0000000084,8.66018584316657,1.0000000023365,0.615919209161324
18800.0000000069,8.62192416687335,1.00000000224173,0.592285158995086
18900.0000000055,8.58017943735949,1.00000000175209,0.560096740327161
19000.000000004,8.55110271054488,1.00000000189505,0.532738215403834
19100.0000000026,8.55963126065924,1.00000000175538,0.508683632233665
19200.0000000011,8.62518500933205,1.00000000171399,0.487762121418285
19299.9999999996,8.77043622974987,1.00000000177934,0.479894940981169
19399.9999999982,8.99223126557301,1.00000000204524,0.47505321017497
19499.9999999967,9.30896011044445,1.00000000206584,0.481930213989292
19599.9999999953,9.67113030557102,1.00000000241257,0.484450242208076
19699.9999999938,10.1089664026335,1.00000000235432,0.49677716727218
19799.9999999924,10.5470792084089,1.0000000025136,0.503506899811462
19899.9999999909,11.0284918811377,1.000000002605,0.510419282665164
19999.9999999895,11.4867334384151,1.00000000275121,0.528820636109493
20099.999999988,11.9507803354015,1.00000000287691,0.53062867076863
20199.9999999865,12.3977475072798,1.00000000248451,0.548293301659493
20299.9999999851,12.8294417692729,1.00000000263574,0.546532453657053
20399.9999999836,13.259256870649,1.00000000249866,0.563391634568124
20499.9999999822,13.6648313774651,1.0000000027118,0.56945482719228
20599.9999999807,14.0662798592939,1.00000000286014,0.580030627922395
20699.9999999793,14.4482862513414,1.000000002642,0.581561674664957
20799.9999999778,14.8172866869905,1.00000000280251,0.597867168471864
20899.9999999764,15.1765012440944,1.00000000255627,0.606545932657901
20999.9999999749,15.5233678992881,1.00000000242626,0.622904438896352
21099.9999999734,15.8550974468532,1.00000000289869,0.639787493443843
21199.999999972,16.1529562545883,1.00000000273265,0.634699044766708
21299.9999999705,16.4443239280976,1.00000000279409,0.654600844107311
21399.9999999691,16.704759842185,1.00000000281712,0.659198349814779
21499.9999999676,16.9536986548895,1.00000000274903,0.647507515672425
21599.9999999662,17.1788553071458,1.0000000029522,0.671504366376618
21699.9999999647,17.3791829255614,1.00000000303138,0.671868844103701
21799.9999999633,17.5722956091973,1.0000000026615,0.677131272994672
21899.9999999618,17.7477158948879,1.00000000301744,0.676694543442114
21999.9999999603,17.9232688845855,1.00000000257122,0.676259292588434
22099.9999999589,18.0800985962996,1.0000000028807,0.67733216284596
22199.9999999574,18.224712932534,1.00000000275579,0.674371429136144
22299.999999956,18.3528910029941,1.00000000272308,0.670370151513245
22399.9999999545,18.4710306008079,1.00000000314187,0.667731541053762
22499.9999999531,18.5844966929811,1.00000000271533,0.687568657027363
22599.9999999516,18.691063653497,1.00000000311703,0.685962194742444
22699.9999999502,18.8050789174588,1.00000000285261,0.691574762912499
22799.9999999487,18.9148266380613,1.00000000272599,0.679819526701704
22899.9999999473,19.0193932924396,1.00000000344795,0.671443971565871
22999.9999999458,19.1036934009914,1.00000000303831,0.664662306528635
23099.9999999443,19.1764761550215,1.00000000289822,0.679572167615124
23199.9999999429,19.2526201490979,1.00000000271899,0.665290140620063
23299.9999999414,19.3388002498424,1.00000000274258,0.683441511352316
23399.99999994,19.4313692635658,1.00000000319331,0.685844885233186
23499.9999999385,19.5161711973036,1.00000000289335,0.685952150471247
23599.9999999371,19.5947626214249,1.00000000343783,0.669647529919746
23699.9999999356,19.6577621435543,1.00000000345282,0.661784991785812
23799.9999999342,19.7151358556169,1.00000000272369,0.656585516099302
23899.9999999327,19.772661172111,1.00000000269339,0.670756828316903
23999.9999999312,19.8363334132518,1.00000000272213,0.652915904595231
24099.9999999298,19.9044064148534,1.00000000303746,0.664371050205249
24199.9999999283,19.9611650997664,1.00000000323487,0.680252341078232
24299.9999999269,20.0102056022062,1.00000000273736,0.673551677257181
24399.9999999254,20.0607676816402,1.0000000029269,0.660743753767668
24499.999999924,20.122695290945,1.00000000287258,0.646279897751492
24599.9999999225,20.1950435886392,1.00000000312328,0.671170486986606
24699.9999999211,20.2579884797406,1.0000000033382,0.681613022404092
24799.9999999196,20.3154828927563,1.00000000307467,0.666341192415361
24899.9999999181,20.3711994927642,1.00000000283804,0.669381314400544
24999.9999999167,20.4367018432087,1.00000000273859,0.64696441053241
25099.9999999152,20.5040029971763,1.00000000346517,0.672708144330092
25199.9999999138,20.5630132326222,1.00000000308486,0.688073784185102
25299.9999999123,20.6255138850255,1.00000000288143,0.668011247196422
25399.9999999109,20.6938841265443,1.00000000285042,0.667337873215306
25499.9999999094,20.7600538686215,1.00000000304464,0.688805370874451
25599.999999908,20.8232382301607,1.00000000338921,0.688755954381529
25699.9999999065,20.8796583894349,1.00000000313991,0.692589552226843
25799.9999999051,20.9402475373076,1.00000000277698,0.678149226901372
25899.9999999036,21.0154247668071,1.00000000298777,0.687059414021159
25999.9999999021,21.0802917649067,1.00000000317916,0.688626794917794
26099.9999999007,21.1313880607588,1.00000000315405,0.677389105488641
26199.9999998992,21.1858632680686,1.00000000265775,0.652274200552098
26299.9999998978,21.2521323856778,1.00000000302868,0.658874489549474
26399.9999998963,21.3233232359814,1.00000000334934,0.65840687030484
26499.9999998949,21.3938944992968,1.00000000326401,0.672047547073102
26599.9999998934,21.456585484418,1.00000000360625,0.677142187087387
26699.999999892,21.5157175189033,1.0000000034617,0.666312482101254
26799.9999998905,21.5680913294804,1.0000000033285,0.671737826723107
26899.999999889,21.6210694388366,1.00000000310072,0.656281875669291
26999.9999998876,21.673817124459,1.00000000372321,0.654943332424336
27099.9999998861,21.7249247586276,1.00000000309013,0.654514845963904
27199.9999998847,21.7701773538294,1.00000000319571,0.66685540319932
27299.9999998832,21.8161381611163,1.0000000031792,0.667035280017384
27399.9999998818,21.8682169593475,1.00000000345198,0.661444293317372
27499.9999998803,21.9247746026722,1.00000000326483,0.654182573715125
27599.9999998789,21.9815826617789,1.00000000329774,0.662277516193337
27699.9999998774,22.0366351374167,1.00000000309946,0.672992709486476
27799.9999998759,22.0962856267803,1.00000000307752,0.661592791774473
27899.9999998745,22.1630408392059,1.00000000346824,0.64273202233645
27999.999999873,22.2444135585098,1.00000000300324,0.644280050219231
28099.9999998716,22.3308707519071,1.00000000312683,0.652693291815403
28199.9999998701,22.4191859848137,1.00000000326793,0.664114788217992
28299.9999998687,22.5103213364504,1.00000000341295,0.671737435098575
28399.9999998672,22.6122631140832,1.00000000317517,0.67400665092869
28499.9999998658,22.7180526825798,1.00000000347036,0.687153625212882
28599.9999998643,22.8273508334596,1.00000000320734,0.682344496173352
28699.9999998629,22.9394964406291,1.00000000316482,0.671780005463978
28799.9999998614,23.0509300979332,1.00000000349006,0.676113059279868
28899.9999998599,23.1586187830284,1.00000000324343,0.679742765893573
28999.9999998585,23.258246875118,1.00000000322956,0.676499904815194
29099.999999857,23.3503406107049,1.0000000034419,0.679651498021069
