Time,AGPnorm,Energy,Entropy
0,0,1,-1.22931492083897e-17
99.9999999999986,2.98066085570149e-05,0.999999999998475,0.00123307349780975
199.999999999993,0.00266895668659346,0.99999999999913,0.00201017367597731
300,0.00660595713896563,0.99999999999973,0.00346806319494074
400.000000000022,0.00927935819403004,0.999999999998185,0.00593245423706512
500.000000000045,0.0111273358974929,0.999999999999837,0.00799857013829867
600.000000000068,0.0157714989379061,0.999999999998835,0.0110536038091148
700.000000000091,0.0197475083131413,0.999999999998742,0.0142207056300918
800.000000000113,0.0254293367255462,1.00000000000003,0.0174265438976923
900.000000000136,0.0315654895535765,0.999999999998165,0.0214095341050255
1000.00000000016,0.0361636998876596,0.999999999999479,0.0252305278331483
1100.0000000001,0.0432227700275322,0.99999999999932,0.0294740877849445
1200,0.051246664005524,0.999999999998473,0.0341101360374694
1299.99999999991,0.05901783254659,1.00000000000006,0.0386849193054911
1399.99999999982,0.0670378891488783,0.999999999998284,0.0438189184403212
1499.99999999973,0.0745673425886942,0.99999999999909,0.0490225778552886
1599.99999999964,0.0838767020709835,0.999999999999842,0.054447173257716
1699.99999999955,0.0940655833470407,0.999999999998317,0.0604104748816334
1799.99999999946,0.103091333413734,0.9999999999998,0.0663615940725144
1899.99999999937,0.112508592412041,0.999999999998583,0.072695484999024
1999.99999999928,0.122735184901471,0.999999999998786,0.0793771440546449
2099.99999999919,0.133563499801685,1.00000000000022,0.086279393031234
2199.99999999909,0.144429254693125,0.999999999998242,0.0937847726559433
2299.999999999,0.154020498582834,0.99999999999943,0.10143623412657
2399.99999999891,0.164386019436286,0.999999999999104,0.109505551267012
2499.99999999882,0.17624458988356,0.999999999998584,0.118301183597304
2599.99999999873,0.187581349140825,1.00000000000029,0.127488469361142
2699.99999999864,0.198226946400906,0.999999999998365,0.137513004026182
2799.99999999855,0.208186616234746,0.999999999999552,0.148173148221299
2899.99999999846,0.219265881464577,1.00000000000104,0.159774039535627
2999.99999999837,0.230956583305345,1.00000000000224,0.172908873488917
3099.99999999828,0.24197816338419,1.00000000000944,0.187053822541156
3199.99999999819,0.252448561143541,1.00000000001808,0.202449269849753
3299.99999999809,0.26145427866161,1.00000000003641,0.218771757396218
3399.999999998,0.276895890790574,1.00000000006163,0.235556204351361
3499.99999999791,0.28910314732238,1.00000000009405,0.252897427068174
3599.99999999782,0.306632531566926,1.00000000013127,0.269790134922601
3699.99999999773,0.338039276659308,1.000000000171,0.286441983269827
3799.99999999764,0.371186530919878,1.0000000002189,0.302989170267884
3899.99999999755,0.440538576472591,1.00000000026128,0.318905494918411
3999.99999999746,0.533225026318407,1.00000000030874,0.3345879100342
4099.99999999738,0.662443948894438,1.00000000036036,0.349520823296433
4199.99999999775,0.86589048662016,1.0000000004129,0.363748974774265
4299.99999999811,1.11979824214565,1.00000000044836,0.37805886532011
4399.99999999848,1.47244086268168,1.00000000051738,0.391349509696597
4499.99999999884,1.93375509494692,1.00000000055861,0.404082692500182
4599.9999999992,2.49719531477916,1.00000000059889,0.41646916394003
4699.99999999957,3.21958977957479,1.00000000062936,0.427901267459286
4799.99999999993,4.08316671962404,1.00000000066514,0.439301972911634
4900.00000000029,5.1121132044597,1.0000000006873,0.449880929723958
5000.00000000066,6.34224833761593,1.00000000072995,0.459523177323672
5100.00000000102,7.74566755268298,1.00000000075307,0.469331030446405
5200.00000000139,9.36393083405034,1.00000000079023,0.478169305551273
5300.00000000175,11.2030126314168,1.000000000818,0.486458160698315
5400.00000000211,13.245121297476,1.00000000086726,0.494428466099547
5500.00000000248,15.5317584726894,1.00000000087691,0.501491716175075
5600.00000000284,18.0363586404643,1.00000000087966,0.508725205383269
5700.00000000321,20.7603608146725,1.00000000091896,0.515196016270936
5800.00000000357,23.7324144755713,1.00000000090175,0.52110235723204
5900.00000000393,26.9083736881883,1.00000000091982,0.527017221284421
6000.0000000043,30.3100312279394,1.00000000094705,0.532085713011674
6100.00000000466,33.9326433037409,1.00000000090179,0.537123308932852
6200.00000000502,37.7376258340588,1.00000000090862,0.541821749357675
6300.00000000539,41.7606996481376,1.00000000094174,0.545650190429763
6400.00000000575,45.9585389059693,1.00000000095375,0.549750154141361
6500.00000000612,50.3210363920414,1.0000000009324,0.553560881844906
6600.00000000648,54.8673105522957,1.0000000009133,0.556822209926583
6700.00000000684,59.5389458150077,1.00000000094344,0.560060047328681
6800.00000000721,64.3602070028586,1.00000000090252,0.562668348511639
6900.00000000757,69.3074961879917,1.00000000093864,0.56532784494807
7000.00000000793,74.3423667280728,1.00000000090067,0.56810316862308
7100.0000000083,79.4970678627051,1.00000000090437,0.569871042259698
7200.00000000866,84.7157903876323,1.00000000090458,0.572037546369858
7300.00000000903,90.0018623437347,1.00000000090381,0.573898682786839
7400.00000000939,95.3551117277235,1.00000000088992,0.575527818098418
7500.00000000975,100.722280304522,1.00000000088525,0.577127351758636
7600.00000001012,106.136304720217,1.00000000087899,0.577922247054333
7700.00000001048,111.557661475898,1.00000000088019,0.579277945130774
7800.00000001084,116.968952746132,1.00000000088703,0.580602431000703
7900.00000001121,122.388110164921,1.00000000083452,0.581139609836929
8000.00000001157,127.76192025866,1.00000000083212,0.582197712782581
8100.00000001194,133.113870060681,1.0000000008325,0.582769486805976
8200.0000000123,138.423671885748,1.00000000081852,0.583394529960135
8300.00000001266,143.662808483751,1.00000000082632,0.584015404449394
8400.00000001303,148.856940716528,1.00000000081366,0.583701843693158
8500.00000001339,153.961401009361,1.00000000079472,0.584713090105331
8600.00000001376,158.988851472498,1.0000000007977,0.584402877309135
8700.00000001412,163.935063805238,1.00000000079193,0.584916350947212
8800.00000001448,168.767730514873,1.00000000075075,0.584763639849207
8900.00000001485,173.512582180757,1.00000000077498,0.585033926079436
9000.00000001521,178.139460003618,1.00000000074332,0.584400777836813
9100.00000001557,182.648819689021,1.00000000074673,0.584963419642601
9200.00000001594,187.050957204077,1.00000000073083,0.584137019353719
9300.0000000163,191.310466529309,1.00000000073082,0.584180207150498
9400.00000001667,195.455557737011,1.00000000073877,0.584203009511552
9500.00000001703,199.462755224041,1.00000000068408,0.583184093498843
9600.00000001739,203.330057430288,1.00000000069941,0.584176708119148
9700.00000001776,207.071234196218,1.0000000006624,0.582511225023874
9800.00000001812,210.657942261359,1.00000000069221,0.582982320587122
9900.00000001848,214.112054010186,1.00000000067948,0.582217870813263
10000.0000000188,217.422123153578,1.00000000066945,0.581813030558565
10100.0000000192,220.581985389744,1.00000000065688,0.581862124838799
10200.0000000196,223.606447861127,1.00000000064029,0.581236817488538
10300.0000000199,226.477519218247,1.00000000063951,0.581291263177071
10400.0000000203,229.207810784345,1.00000000062775,0.580196451447855
10500.0000000207,231.796322780405,1.00000000061066,0.580654649079813
10600.000000021,234.234945870291,1.00000000061738,0.579323422169094
10700.0000000214,236.536792459764,1.00000000059397,0.57894060551633
10800.0000000218,238.691830633565,1.00000000061526,0.579720809388497
10900.0000000221,240.708247248282,1.00000000057224,0.577642197817804
11000.0000000225,242.587693082915,1.00000000059058,0.578183221099183
11100.0000000229,244.325318841534,1.00000000057439,0.578026433516166
11200.0000000232,245.93349084743,1.00000000057082,0.576307024797699
11300.0000000236,247.403136329592,1.00000000057689,0.578241128437194
11400.0000000239,248.745362173878,1.00000000055695,0.576694807232248
11500.0000000243,249.960357761341,1.00000000055072,0.574717362340783
11600.0000000247,251.043157731877,1.00000000054505,0.578229603921481
11700.000000025,252.012229907597,1.00000000053402,0.576212616258865
11800.0000000254,252.85700515431,1.00000000050684,0.573326878987076
11900.0000000258,253.581698318421,1.00000000052676,0.5754495533219
12000.0000000261,254.199121069653,1.00000000052497,0.576857976327533
12100.0000000265,254.703153374604,1.0000000005133,0.575391437450309
12200.0000000269,255.104399388361,1.00000000049442,0.5719707457558
12300.0000000272,255.396927186533,1.0000000004894,0.572247475103501
12400.0000000276,255.590050919167,1.00000000052151,0.577851766735699
12500.0000000279,255.700696466104,1.00000000048987,0.575543616694835
12600.0000000283,255.716353195029,1.00000000047163,0.566787431671564
12700.0000000287,255.63788553398,1.00000000045582,0.568008812290953
12800.000000029,255.47758745648,1.0000000005237,0.578315528344155
12900.0000000294,255.249803695719,1.00000000051579,0.57580450078575
13000.0000000298,254.954419994518,1.00000000045555,0.565094793458644
13100.0000000301,254.573692280038,1.00000000044079,0.560475872986415
13200.0000000305,254.122774231591,1.00000000048024,0.572231863219479
13300.0000000309,253.622497966406,1.00000000054554,0.578688808636191
13400.0000000312,253.075620322255,1.0000000005134,0.568421504160206
13500.0000000316,252.470841022417,1.00000000043751,0.555588177352003
13600.0000000319,251.79452712122,1.00000000043532,0.555893917475077
13700.0000000323,251.071981012463,1.00000000053508,0.576734604432151
13800.0000000327,250.327101924555,1.00000000057209,0.57755783650289
13900.000000033,249.551770127686,1.00000000052094,0.561986276361143
14000.0000000334,248.728529046288,1.00000000041155,0.544143463027716
14100.0000000338,247.845614352414,1.00000000043837,0.549606758672829
14200.0000000341,246.935313683173,1.00000000060138,0.579171468553366
14300.0000000345,246.019537600484,1.00000000058858,0.577307969654518
14400.0000000349,245.09021512471,1.00000000052568,0.558061999157534
14500.0000000352,244.125408437379,1.00000000041189,0.536835420639323
14600.0000000356,243.110744916649,1.00000000039636,0.535364640720957
14700.0000000359,242.073160612739,1.0000000005918,0.572773575911529
14800.0000000363,241.039539219134,1.00000000061768,0.580492766371808
14900.0000000367,240.009469192109,1.00000000060489,0.563644138304367
15000.000000037,238.965062906117,1.00000000042409,0.536511860306721
15100.0000000374,237.88232978146,1.00000000040092,0.522567648660433
15200.0000000378,236.769811912132,1.00000000048617,0.54219244961647
15300.0000000381,235.655986224532,1.00000000065821,0.57856742537167
15400.0000000385,234.55568269144,1.00000000066084,0.578042436597161
15500.0000000389,233.464888322395,1.00000000055854,0.549537945795683
15600.0000000392,232.360386267787,1.00000000043555,0.526560053939765
15700.0000000396,231.228603516064,1.00000000038669,0.515260817212744
15800.0000000399,230.076510006198,1.0000000004841,0.535766602209519
15900.0000000403,228.925188015238,1.00000000063943,0.574421426483428
16000.0000000407,227.794004678774,1.00000000067759,0.579643807363776
16100.000000041,226.676716109396,1.00000000055805,0.549051961612232
16200.0000000414,225.555807800496,1.00000000045953,0.52349873917854
16300.0000000418,224.420027487076,1.0000000004061,0.513387119584402
16400.0000000418,223.26605947335,1.000000000453,0.519936945758146
16500.0000000404,222.110171639172,1.00000000056909,0.550125325848164
16600.0000000389,220.967277172598,1.00000000068095,0.577032406537337
16700.0000000375,219.842790100307,1.00000000066703,0.567232181180389
16800.000000036,218.730098116594,1.00000000054079,0.532947363733624
16900.0000000346,217.613720563611,1.00000000045685,0.515000561891631
17000.0000000331,216.490219584438,1.00000000042432,0.51460470477419
17100.0000000317,215.359052516557,1.0000000004649,0.519885789349595
17200.0000000302,214.228102988252,1.00000000055427,0.540337431983683
17300.0000000287,213.109375417633,1.00000000062816,0.565630493383207
17400.0000000273,212.006682567193,1.00000000066411,0.562493156377057
17500.0000000258,210.916350340571,1.00000000057741,0.536396029053554
17600.0000000244,209.831241009196,1.00000000048907,0.515554946741795
17700.0000000229,208.744949310332,1.00000000046246,0.514492867004853
17800.0000000215,207.658256554389,1.00000000047383,0.519534269189367
17900.00000002,206.571346015549,1.00000000050442,0.524769896027219
18000.0000000186,205.490719705233,1.00000000057201,0.537879225365884
18100.0000000171,204.421248772054,1.0000000006056,0.551680614992958
18200.0000000156,203.36380551591,1.00000000062786,0.551289823564355
18300.0000000142,202.317644778792,1.00000000059343,0.53281895170582
18400.0000000127,201.278313211088,1.00000000050949,0.517280519422092
18500.0000000113,200.243557638264,1.00000000047968,0.515982199592382
18600.0000000098,199.21276415333,1.00000000047837,0.523646044572154
18700.0000000084,198.185599126605,1.00000000049337,0.524612715522723
18800.0000000069,197.16490645106,1.00000000052187,0.524815955046995
18900.0000000055,196.151399840692,1.00000000055867,0.530249620036813
19000.000000004,195.14732831641,1.00000000058785,0.541875400950041
19100.0000000026,194.153722460222,1.00000000059401,0.541304213424949
19200.0000000011,193.169185706779,1.00000000056245,0.530936782749325
19299.9999999996,192.193085254177,1.00000000053874,0.522241617121676
19399.9999999982,191.224242362899,1.00000000048628,0.52219482715355
19499.9999999967,190.262554070016,1.00000000049333,0.527563811437491
19599.9999999953,189.307809614207,1.00000000048525,0.526180431155316
19699.9999999938,188.359143407452,1.00000000050894,0.521314972275189
19799.9999999924,187.418125711881,1.00000000051607,0.519517736383104
19899.9999999909,186.485207219332,1.00000000052776,0.523804371937105
19999.9999999895,185.560722725822,1.00000000057779,0.536565292832647
20099.999999988,184.645339496798,1.00000000055698,0.539411008240164
20199.9999999865,183.738369769328,1.00000000057113,0.535461945600761
20299.9999999851,182.840053364623,1.00000000052371,0.52953503992275
20399.9999999836,181.950297521148,1.00000000052235,0.531011625605765
20499.9999999822,181.069196597864,1.00000000052064,0.534136055278074
20599.9999999807,180.196622731896,1.00000000047397,0.529074216105
20699.9999999793,179.331777830279,1.00000000046978,0.516663792215773
20799.9999999778,178.475329301832,1.00000000046898,0.512596276635125
20899.9999999764,177.627354363023,1.0000000005214,0.516429335991195
20999.9999999749,176.787723070296,1.00000000052562,0.526156584303978
21099.9999999734,175.956369270325,1.00000000056278,0.535546962114592
21199.999999972,175.132839792557,1.00000000056143,0.542034976773644
21299.9999999705,174.317241641521,1.00000000053353,0.538438589062386
21399.9999999691,173.509769886537,1.0000000005369,0.535422461640634
21499.9999999676,172.710203284875,1.00000000055958,0.541606524280397
21599.9999999662,171.919250449426,1.00000000052298,0.539809840589823
21699.9999999647,171.137339098432,1.00000000048358,0.531145231726466
21799.9999999633,170.365673952263,1.00000000043873,0.515736705531754
21899.9999999618,169.604333519361,1.00000000041919,0.505334607623959
21999.9999999603,168.852818002896,1.00000000046865,0.507481272789362
22099.9999999589,168.110282824195,1.00000000052763,0.516383643346163
22199.9999999574,167.375514265902,1.00000000057021,0.525429514059121
22299.999999956,166.647433315785,1.00000000055032,0.532593756816946
22399.9999999545,165.926100514554,1.00000000055865,0.541706964027004
22499.9999999531,165.211433039177,1.0000000005313,0.542129781889864
22599.9999999516,164.50353177456,1.00000000055434,0.540100471744275
22699.9999999502,163.801884543396,1.00000000055367,0.544753559070962
22799.9999999487,163.106734314125,1.0000000005773,0.547798895260024
22899.9999999473,162.419106671456,1.00000000053803,0.537481144866868
22999.9999999458,161.74188983594,1.00000000044322,0.520036252656866
23099.9999999443,161.077546576443,1.00000000040571,0.504642094819415
23199.9999999429,160.426105552169,1.0000000004095,0.494467498271658
23299.9999999414,159.786035260376,1.00000000049502,0.501308580651381
23399.99999994,159.154140317183,1.00000000055145,0.514058573280905
23499.9999999385,158.528390560471,1.00000000056993,0.522579472627333
23599.9999999371,157.907304481423,1.00000000056427,0.52414453478469
23699.9999999356,157.291335305227,1.00000000054679,0.528509858518315
23799.9999999342,156.680498573128,1.00000000052857,0.541190078067824
23899.9999999327,156.074290234411,1.00000000053548,0.542853773749597
23999.9999999312,155.472506036778,1.0000000005598,0.543479810973354
24099.9999999298,154.873981831756,1.00000000059966,0.551424853943649
24199.9999999283,154.279379512544,1.00000000058744,0.548142912630599
24299.9999999269,153.69179769141,1.00000000050858,0.532739509187914
24399.9999999254,153.114705365503,1.00000000044364,0.516680394311395
24499.999999924,152.551366271039,1.00000000041907,0.502652464211781
24599.9999999225,152.002930270602,1.00000000040775,0.494627615754397
24699.9999999211,151.467408518025,1.00000000046076,0.493533993467582
24799.9999999196,150.941549082417,1.00000000051678,0.502025311791715
24899.9999999181,150.421254294541,1.00000000056368,0.513072305960676
24999.9999999167,149.904901441647,1.00000000057495,0.518037126931771
25099.9999999152,149.39155707315,1.00000000054809,0.517432500808116
25199.9999999138,148.881403568217,1.00000000054239,0.521287352361726
25299.9999999123,148.374033887244,1.0000000005483,0.53526172453913
25399.9999999109,147.868314613526,1.00000000056406,0.544698164350331
25499.9999999094,147.364288343976,1.00000000057079,0.544564788746539
25599.999999908,146.862001924347,1.00000000059363,0.543310173577702
25699.9999999065,146.362181049272,1.00000000057276,0.543702189355395
25799.9999999051,145.866352438499,1.00000000055653,0.539158489223917
25899.9999999036,145.377284711882,1.00000000051201,0.526565543512492
25999.9999999021,144.898757950416,1.00000000046148,0.513059405108547
26099.9999999007,144.43362909066,1.00000000043987,0.505213533238948
26199.9999998992,143.982302798199,1.00000000043291,0.50201523020636
26299.9999998978,143.544175422495,1.00000000045125,0.497636814612547
26399.9999998963,143.11643455499,1.00000000047984,0.497706652225825
26499.9999998949,142.697064215041,1.00000000051326,0.502623337036172
26599.9999998934,142.282630784315,1.0000000005645,0.510106700398125
26699.999999892,141.870812017697,1.00000000056556,0.516232953033892
26799.9999998905,141.460307856578,1.00000000056604,0.521436449998601
26899.999999889,141.049615173023,1.000000000571,0.525364585445333
26999.9999998876,140.638450775925,1.00000000056549,0.532044521529219
27099.9999998861,140.226838422739,1.0000000005473,0.539068790148655
27199.9999998847,139.814909398478,1.00000000054966,0.54340378642358
27299.9999998832,139.404003309329,1.00000000056119,0.541678058480047
27399.9999998818,138.994816249473,1.00000000053412,0.537400988400661
27499.9999998803,138.589029526851,1.00000000052944,0.533404051202256
27599.9999998789,138.187837085207,1.00000000055106,0.533523569195749
27699.9999998774,137.792056320341,1.0000000005303,0.529477987924282
27799.9999998759,137.404148352069,1.00000000050293,0.522094193687681
27899.9999998745,137.025960971911,1.00000000047963,0.515874265476131
27999.999999873,136.658807144656,1.00000000045665,0.510618373349143
28099.9999998716,136.304374979578,1.00000000043806,0.506329606022881
28199.9999998701,135.961564519641,1.00000000046642,0.503047377808278
28299.9999998687,135.630006315424,1.00000000047465,0.499651204885033
28399.9999998672,135.306746873795,1.00000000050811,0.505859969004375
28499.9999998658,134.989282140039,1.00000000052584,0.512491417309853
28599.9999998643,134.674735842929,1.00000000055826,0.520405727092802
28699.9999998629,134.359882667052,1.0000000005663,0.529158579026017
28799.9999998614,134.043267055193,1.00000000057793,0.53512750565495
28899.9999998599,133.724218624788,1.00000000055096,0.533156277883053
