Time,AGPnorm,Energy,Entropy
0,0,1,-7.59212081404146e-17
99.9999999999986,0.000802186785202237,0.999999999999871,0.00278078907655965
199.999999999993,0.00539173911869547,1.00000000000006,0.00820679426454277
300,0.0109199102305452,1.00000000000041,0.0152979084569742
400.000000000022,0.0170333390437127,1.00000000000031,0.0240951424285568
500.000000000045,0.0238706615697985,0.999999999999635,0.0347696170394376
600.000000000068,0.0335146930879427,0.999999999999861,0.0470043178152953
700.000000000091,0.0430335433359409,1.00000000000024,0.0605252243013789
800.000000000113,0.0538508185726324,1.00000000000081,0.0754392662783394
900.000000000136,0.0643544701572585,0.999999999999772,0.0921941235798397
1000.00000000016,0.0770477872656571,0.999999999999636,0.110839176330112
1100.0000000001,0.0890396895504991,1.00000000000014,0.131986790430688
1200,0.101156399714058,1.00000000000213,0.155923007171769
1299.99999999991,0.113362821942842,1.00000000000661,0.184317062207841
1399.99999999982,0.124363516759824,1.00000000002699,0.217657410940979
1499.99999999973,0.136893829707868,1.0000000000765,0.255846254261337
1599.99999999964,0.162862524266546,1.00000000017131,0.295468876273479
1699.99999999955,0.216833356548046,1.00000000030622,0.334120748483206
1799.99999999946,0.317241867565134,1.00000000042358,0.369333516528964
1899.99999999937,0.52715139851172,1.00000000058985,0.400722629987604
1999.99999999928,0.932671282043336,1.00000000071518,0.428145578197097
2099.99999999919,1.59377316123765,1.00000000083247,0.452370199942666
2199.99999999909,2.56283345812008,1.00000000091813,0.473292155388479
2299.999999999,3.90729618815246,1.00000000097659,0.491250454854155
2399.99999999891,5.67950816129979,1.00000000099534,0.50634471962027
2499.99999999882,7.8900647840007,1.00000000109857,0.51940055023281
2599.99999999873,10.5383103209753,1.0000000010956,0.530296453343515
2699.99999999864,13.6232590393508,1.00000000117019,0.539247799113386
2799.99999999855,17.110613235429,1.0000000011419,0.546464462802236
2899.99999999846,20.9415607019291,1.00000000112923,0.552445235747004
2999.99999999837,25.0675166002912,1.00000000115293,0.5571897843214
3099.99999999828,29.4546713533197,1.00000000117319,0.560474114229502
3199.99999999819,34.0373640572886,1.00000000120451,0.562965478401214
3299.99999999809,38.7312469168134,1.00000000109463,0.565197926894416
3399.999999998,43.4770815593673,1.00000000111611,0.566330152258332
3499.99999999791,48.2398514550476,1.00000000107292,0.566400891089641
3599.99999999782,52.9739934639636,1.00000000104372,0.566513974406459
3699.99999999773,57.6122500916026,1.0000000010235,0.565576974951799
3799.99999999764,62.1033919743945,1.00000000099672,0.565228735549119
3899.99999999755,66.4190307848143,1.00000000096408,0.565079269232821
3999.99999999746,70.5432178407291,1.0000000009682,0.562967157900812
4099.99999999738,74.4449981379604,1.00000000094512,0.560334518911496
4199.99999999775,78.0871855908194,1.00000000089534,0.56059494199996
4299.99999999811,81.4558325948839,1.00000000091299,0.558244512803772
4399.99999999848,84.5559248899887,1.00000000081371,0.555683449240187
4499.99999999884,87.3819973115801,1.00000000085613,0.554771536269567
4599.9999999992,89.9228576023422,1.00000000080203,0.552332770101689
4699.99999999957,92.1715870324681,1.00000000079173,0.550384792746458
4799.99999999993,94.1372257043417,1.00000000073675,0.550744400655765
4900.00000000029,95.8367982933942,1.00000000073251,0.548169883562281
5000.00000000066,97.2693707813416,1.00000000068667,0.541322974082063
5100.00000000102,98.4424407079264,1.00000000068191,0.549510259710639
5200.00000000139,99.3799314129894,1.0000000006965,0.546061761387846
5300.00000000175,100.077797109278,1.00000000063114,0.53285134603968
5400.00000000211,100.550243216555,1.00000000068363,0.547856936258297
5500.00000000248,100.853705082734,1.00000000069889,0.554442901586755
5600.00000000284,100.97175543739,1.00000000059342,0.525594282193528
5700.00000000321,100.873930239059,1.00000000057384,0.529074696245947
5800.00000000357,100.646230759444,1.00000000074942,0.563167956460107
5900.00000000393,100.342770715531,1.00000000069651,0.546078392632479
6000.0000000043,99.8907082484648,1.00000000046144,0.500101124885561
6100.00000000466,99.2738292416613,1.00000000057355,0.526752603124398
6200.00000000502,98.6078563718916,1.00000000085285,0.570785665543737
6300.00000000539,97.9394724578787,1.00000000073825,0.547113089073282
6400.00000000575,97.1821788182116,1.0000000004297,0.481150987647784
6500.00000000612,96.2922396980047,1.00000000047397,0.491981908768477
6600.00000000648,95.3644342635817,1.00000000077873,0.562061803723232
6700.00000000684,94.4821829561169,1.0000000008918,0.570441502474706
6800.00000000721,93.60820643732,1.00000000060394,0.50854810509328
6900.00000000757,92.6548899282598,1.00000000036354,0.44180081537919
7000.00000000793,91.6222609952529,1.00000000053278,0.484379597206416
7100.0000000083,90.5949588429667,1.00000000090542,0.561280630686266
7200.00000000866,89.6297723052955,1.00000000093149,0.569136872533915
7300.00000000903,88.7019024333867,1.00000000070348,0.518553278514146
7400.00000000939,87.7430871361205,1.00000000041247,0.432639310192333
7500.00000000975,86.7272788368481,1.0000000003877,0.426306503583484
7600.00000001012,85.6942798904033,1.00000000068051,0.505270968283526
7700.00000001048,84.6959262111341,1.00000000090924,0.556765004566682
7800.00000001084,83.751876434948,1.00000000090411,0.556278501316914
7900.00000001121,82.8404910087334,1.00000000070871,0.512421142362401
8000.00000001157,81.922265705498,1.00000000046451,0.436780881607622
8100.00000001194,80.9814599309813,1.00000000040376,0.410107444852482
8200.0000000123,80.0325090863227,1.00000000055713,0.451670142562162
8300.00000001266,79.0975035103029,1.00000000078894,0.515638070215158
8400.00000001303,78.1921203980294,1.00000000090007,0.545590563397723
8500.00000001339,77.3214920223503,1.00000000082925,0.543288297816059
8600.00000001376,76.4756234568684,1.00000000067757,0.507254054491415
8700.00000001412,75.6385065344081,1.00000000054528,0.458483527970844
8800.00000001448,74.8059819380087,1.00000000045654,0.425999971252141
8900.00000001485,73.9828505631737,1.00000000050232,0.43595683891352
9000.00000001521,73.1724030680899,1.00000000061122,0.468651586555989
9100.00000001557,72.377241566304,1.00000000073424,0.50463653671505
9200.00000001594,71.5987138823708,1.00000000085226,0.524184631607032
9300.0000000163,70.837467506298,1.00000000084122,0.533464614856406
9400.00000001667,70.0935901371299,1.00000000074524,0.531597375740833
9500.00000001703,69.3655738012556,1.00000000064774,0.492907927728857
9600.00000001739,68.6540738753139,1.00000000047365,0.451225050598986
9700.00000001776,67.96295973605,1.00000000050398,0.442692984577815
9800.00000001812,67.2935281706795,1.00000000060895,0.455787974319112
9900.00000001848,66.6424896711322,1.0000000006295,0.479731804751809
10000.0000000188,66.0067774724712,1.00000000060385,0.487400332802253
10100.0000000192,65.3868199804254,1.00000000063861,0.497991390132196
10200.0000000196,64.7791648629966,1.00000000068401,0.507375725439968
10300.0000000199,64.177512892578,1.0000000008645,0.52832894666978
10400.0000000203,63.5791985879029,1.0000000009393,0.540796013556259
10500.0000000207,62.9897745952719,1.00000000077974,0.523710710657954
10600.000000021,62.419208122646,1.00000000050028,0.47663498162808
10700.0000000214,61.8763829369751,1.00000000042904,0.446339048421625
10800.0000000218,61.3620339615128,1.00000000055545,0.447943531832441
10900.0000000221,60.8664201774932,1.00000000066332,0.463009426092236
11000.0000000225,60.3814379319754,1.00000000071711,0.486215540709439
11100.0000000229,59.9056106661595,1.0000000006922,0.500718642286811
11200.0000000232,59.4433011751945,1.00000000061247,0.490392003501544
11300.0000000236,58.9984419860098,1.00000000055182,0.489061049917877
11400.0000000239,58.5672354666616,1.00000000059507,0.500146080272747
11500.0000000243,58.1394113779618,1.00000000075529,0.517240296325434
11600.0000000247,57.7046482217006,1.00000000088039,0.533755745320467
11700.000000025,57.2635158569011,1.00000000089052,0.540574154330602
11800.0000000254,56.8250840119016,1.0000000007122,0.52648238253455
11900.0000000258,56.4019408329272,1.00000000055409,0.494769022261199
12000.0000000261,56.0058902768848,1.00000000047867,0.464585515987158
12100.0000000265,55.6416324137842,1.00000000050499,0.455568416757561
12200.0000000269,55.3039151955523,1.00000000057774,0.459828828292066
12300.0000000272,54.9804835863276,1.00000000067491,0.47715317607875
12400.0000000276,54.6615057346228,1.00000000072766,0.488021721175705
12500.0000000279,54.3461644979242,1.00000000069741,0.495683017317475
12600.0000000283,54.0366926603338,1.00000000065681,0.505959674570727
12700.0000000287,53.735486298544,1.00000000065803,0.510706975319307
12800.000000029,53.4425232362636,1.00000000061522,0.515164485789533
12900.0000000294,53.1567222490677,1.00000000060865,0.52271700932688
13000.0000000298,52.8750307685678,1.00000000064759,0.526705961203163
13100.0000000301,52.5943229711921,1.00000000069829,0.522225758865855
13200.0000000305,52.3100099713518,1.00000000074722,0.525097548078531
13300.0000000309,52.0190405547922,1.00000000082749,0.536468835803072
13400.0000000312,51.7210051231976,1.00000000079792,0.546034561397571
13500.0000000316,51.4249179533113,1.00000000071003,0.534708561298478
13600.0000000319,51.1450448847329,1.00000000056138,0.511232615712165
13700.0000000323,50.8920439351413,1.00000000050221,0.483408689588433
13800.0000000327,50.6672496136402,1.00000000055449,0.472789070289411
13900.000000033,50.4651150841928,1.0000000006261,0.482376701136372
14000.0000000334,50.2771793901841,1.00000000066322,0.483699955384812
14100.0000000338,50.0985073367507,1.00000000065076,0.484093479830714
14200.0000000341,49.9250177083083,1.00000000067292,0.496114561396378
14300.0000000345,49.7587063747118,1.00000000061794,0.499326961030268
14400.0000000349,49.6046847009349,1.00000000057042,0.495647274136605
14500.0000000352,49.4621134003911,1.00000000062193,0.505822226009067
14600.0000000356,49.3189928506534,1.00000000072659,0.522348685637608
14700.0000000359,49.1646994062951,1.00000000081336,0.538198930359266
14800.0000000363,48.9953425609826,1.00000000078323,0.545256285322702
14900.0000000367,48.8159458563823,1.0000000006863,0.549612521800865
15000.000000037,48.6341031532718,1.00000000063348,0.546840743492822
15100.0000000374,48.4570514322542,1.00000000058872,0.532737212760605
15200.0000000378,48.2885473036918,1.00000000060539,0.524443008919045
15300.0000000381,48.1244322037448,1.00000000066029,0.520687761066327
15400.0000000385,47.9574461642964,1.00000000074178,0.524878796350227
15500.0000000389,47.7821746203126,1.00000000077573,0.539218012711924
15600.0000000392,47.5972450268832,1.00000000082753,0.54928387593659
15700.0000000396,47.4074968379628,1.0000000007103,0.549148116611153
15800.0000000399,47.2248038661809,1.00000000065211,0.537959724971853
15900.0000000403,47.0606748375,1.0000000005797,0.518718435787264
16000.0000000407,46.9215139253664,1.00000000051074,0.50136494792008
16100.000000041,46.8077026816627,1.00000000056128,0.489363736169949
16200.0000000414,46.7155714169118,1.00000000057125,0.487327590571893
16300.0000000418,46.6361017075387,1.0000000006137,0.489906914913666
16400.0000000418,46.5612462214375,1.00000000068674,0.495660637376238
16500.0000000404,46.4894422266766,1.00000000066525,0.494701794660696
16600.0000000389,46.4233993406955,1.000000000623,0.494181872028218
16700.0000000375,46.3632233180801,1.00000000063892,0.504090734769419
16800.000000036,46.3072018614113,1.00000000069537,0.518884297574014
16900.0000000346,46.2538311166377,1.00000000067061,0.531925138498365
17000.0000000331,46.2051992571566,1.00000000065684,0.536324823686053
17100.0000000317,46.1637571626423,1.0000000006169,0.539897367454755
17200.0000000302,46.1261534921502,1.00000000063156,0.542143393688173
17300.0000000287,46.0862843103453,1.0000000006939,0.544708119979512
17400.0000000273,46.0368769088831,1.00000000071884,0.547404894339456
17500.0000000258,45.9711763191597,1.0000000007483,0.552244834829463
17600.0000000244,45.8870229759923,1.0000000007767,0.54967288505426
17700.0000000229,45.7870033111712,1.00000000074293,0.552501994666759
17800.0000000215,45.6765176150547,1.00000000072078,0.563514171184917
17900.00000002,45.5600115671234,1.00000000066518,0.570780384629686
18000.0000000186,45.4432468921702,1.00000000062435,0.566413499561214
18100.0000000171,45.3309625834187,1.00000000058823,0.559011250263027
18200.0000000156,45.2245731579242,1.00000000060519,0.556225935407951
18300.0000000142,45.1241938219827,1.00000000064213,0.550714608032626
18400.0000000127,45.0261371198305,1.00000000068601,0.546375354598268
18500.0000000113,44.92692090236,1.00000000080281,0.553000707262407
18600.0000000098,44.823280866657,1.00000000076988,0.5594707001332
18700.0000000084,44.711783938135,1.00000000080832,0.564914267826822
18800.0000000069,44.5942325701252,1.00000000079775,0.569149324616179
18900.0000000055,44.4777468907876,1.00000000068261,0.563925976118361
19000.000000004,44.3717203879676,1.00000000061478,0.549903175530412
19100.0000000026,44.2836129306053,1.00000000055558,0.537271920244874
19200.0000000011,44.2170013864304,1.00000000053652,0.524207932617293
19299.9999999996,44.1725319348252,1.00000000056368,0.514838319115873
19399.9999999982,44.1460461030458,1.00000000062894,0.505982970162329
19499.9999999967,44.1289794038636,1.00000000071108,0.510255767673466
19599.9999999953,44.1177306705855,1.00000000067015,0.51469352090602
19699.9999999938,44.113797690092,1.00000000065681,0.51143109731617
19799.9999999924,44.1151799878356,1.000000000659,0.505474662788616
19899.9999999909,44.1193226615779,1.00000000067258,0.507124208869374
19999.9999999895,44.1266812431658,1.00000000064226,0.508939683035734
20099.999999988,44.1413154770757,1.00000000064756,0.505523262164797
20199.9999999865,44.1647388307422,1.00000000061002,0.506194248759039
20299.9999999851,44.1934705296482,1.00000000067394,0.522332518367999
20399.9999999836,44.2195316533741,1.0000000007155,0.543846051010526
20499.9999999822,44.2367568113216,1.00000000075353,0.554018137830612
20599.9999999807,44.243926801483,1.0000000007367,0.560864148922661
20699.9999999793,44.2447277678231,1.00000000070384,0.567661496192132
20799.9999999778,44.2441302407745,1.00000000065317,0.568368615508116
20899.9999999764,44.2440622440026,1.00000000064865,0.565514361089035
20999.9999999749,44.2422068886611,1.00000000069774,0.568098469058466
21099.9999999734,44.2368269944328,1.00000000066226,0.579548619060127
21199.999999972,44.2279818831601,1.00000000065786,0.58666743917999
21299.9999999705,44.2162206946435,1.00000000066368,0.586443198227228
21399.9999999691,44.1984092120709,1.00000000072245,0.585258879080969
21499.9999999676,44.1716792488837,1.00000000070157,0.581211110122217
21599.9999999662,44.1359397085801,1.00000000065119,0.577932577843917
21699.9999999647,44.0914390295414,1.00000000067928,0.570420101584158
21799.9999999633,44.0384840058236,1.00000000073971,0.559375122653889
21899.9999999618,43.9770876965919,1.00000000074037,0.556152364246081
21999.9999999603,43.9069557320754,1.00000000076044,0.568194141288863
22099.9999999589,43.8268136828811,1.0000000007928,0.581102958091461
22199.9999999574,43.7390614228753,1.0000000007343,0.584707995011938
22299.999999956,43.6474111551466,1.00000000069098,0.581942276465102
22399.9999999545,43.5561912408032,1.00000000065827,0.580596584689051
22499.9999999531,43.4679422619135,1.00000000062859,0.581764889377478
22599.9999999516,43.3839900791513,1.00000000062264,0.584552592710242
22699.9999999502,43.3046584478366,1.00000000062364,0.587432067050112
22799.9999999487,43.2288729376556,1.00000000060757,0.581519939997337
22899.9999999473,43.1555161633815,1.00000000065792,0.580284685805918
22999.9999999458,43.0838753430752,1.00000000071499,0.583147765679836
23099.9999999443,43.0121998031486,1.00000000075702,0.580739501306223
23199.9999999429,42.938826662958,1.00000000078818,0.577868305992042
23299.9999999414,42.8622807067047,1.00000000078535,0.572307217093019
23399.99999994,42.781954829252,1.00000000082186,0.570121979704858
23499.9999999385,42.698301137321,1.00000000073133,0.568471516793685
23599.9999999371,42.6151909558729,1.00000000070564,0.563943040067945
23699.9999999356,42.5380295760639,1.00000000063303,0.560283984420221
23799.9999999342,42.4724821887056,1.00000000059806,0.557890421537541
23899.9999999327,42.4227408837643,1.00000000058719,0.548683858324524
23999.9999999312,42.3905343370237,1.00000000057656,0.54259861365434
24099.9999999298,42.3756769885378,1.00000000059644,0.537079963417563
24199.9999999283,42.375401109345,1.00000000060417,0.530019669494636
24299.9999999269,42.3861593223989,1.0000000006531,0.526525135595347
24399.9999999254,42.4051006080285,1.00000000064432,0.526317564609212
24499.999999924,42.4305896767631,1.00000000067789,0.523587704888352
24599.9999999225,42.4620394558372,1.00000000065598,0.52202610045598
24699.9999999211,42.4970189407258,1.0000000006648,0.520829061018773
24799.9999999196,42.5345636960144,1.00000000067641,0.521984091481572
24899.9999999181,42.5779404262772,1.00000000065397,0.52036498247494
24999.9999999167,42.6288865427067,1.00000000065557,0.515674263441236
25099.9999999152,42.6864845367737,1.00000000062246,0.513245468030117
25199.9999999138,42.747364441228,1.00000000069165,0.51644834797474
25299.9999999123,42.8068548808439,1.00000000072009,0.525698857140095
25399.9999999109,42.8618118207147,1.0000000007447,0.539549978502926
25499.9999999094,42.9121180236828,1.00000000072007,0.547391235681555
25599.999999908,42.9584566223922,1.00000000071764,0.560522945501711
25699.9999999065,43.0012765753865,1.00000000070294,0.563977622552251
25799.9999999051,43.0406721825063,1.00000000070475,0.570152910695045
25899.9999999036,43.0766643252571,1.00000000067275,0.574851055692335
25999.9999999021,43.1080951658153,1.00000000065075,0.575846741412961
26099.9999999007,43.1355723980049,1.00000000068835,0.58136838712356
26199.9999998992,43.1598888616821,1.0000000007004,0.582863833278048
26299.9999998978,43.1810282611648,1.00000000068731,0.584814091784398
26399.9999998963,43.1976580677648,1.00000000071031,0.584131750172292
26499.9999998949,43.2089620904615,1.00000000072279,0.5827681870714
26599.9999998934,43.2154501037704,1.00000000073494,0.584173309560093
26699.999999892,43.2172089025214,1.00000000072024,0.581509876070046
26799.9999998905,43.2156451287235,1.00000000071122,0.582185025328775
26899.999999889,43.2129207547871,1.00000000067866,0.585690791701397
26999.9999998876,43.2097562057325,1.00000000070193,0.578870221285059
27099.9999998861,43.205436128731,1.00000000066527,0.579528094958545
27199.9999998847,43.1979210674268,1.00000000069746,0.582311255813353
27299.9999998832,43.1860007377794,1.00000000069966,0.585225051587783
27399.9999998818,43.1704420392887,1.00000000070062,0.583167109246739
27499.9999998803,43.152084493629,1.00000000066165,0.574987150540437
27599.9999998789,43.1310516649035,1.00000000070255,0.573013420354553
27699.9999998774,43.106212772447,1.00000000071117,0.573406631517157
27799.9999998759,43.0779442146129,1.00000000071802,0.571910646062585
27899.9999998745,43.0455133277676,1.0000000007122,0.579466868237448
27999.999999873,43.0079046339417,1.0000000007388,0.580662769024105
28099.9999998716,42.9664090374986,1.00000000068892,0.584865209808466
28199.9999998701,42.9214739874181,1.00000000074491,0.592245105519359
28299.9999998687,42.8749800692674,1.00000000068336,0.590471746526254
28399.9999998672,42.8292479721687,1.00000000066007,0.587088389371369
28499.9999998658,42.78403380356,1.00000000067049,0.589360741479941
28599.9999998643,42.7377694221826,1.000000000661,0.588120576675573
28699.9999998629,42.6909694913574,1.0000000006517,0.583223992585088
28799.9999998614,42.6438247821758,1.00000000068932,0.575778392175519
28899.9999998599,42.595130301662,1.00000000073353,0.575421509005341
28999.9999998585,42.5429082681619,1.00000000070892,0.577666169338221
