Time,AGPnorm,Energy,Entropy
0,0,1,1.33476104325619e-18
99.9999999999986,0.015811122013813,0.999999999998808,0.0384916547585451
199.999999999993,0.0380935864792182,1.0000000000011,0.114753470865071
300,0.0678821685506444,1.00000000018417,0.251655688488504
400.000000000022,0.157645591012544,1.0000000027349,0.435127589469514
500.000000000045,0.710193141902751,1.00000000481736,0.544248616528744
600.000000000068,2.02563506077327,1.00000000552634,0.593120587162451
700.000000000091,3.93898177632957,1.00000000546853,0.604926934429161
800.000000000113,5.893071466267,1.0000000047969,0.605977267636563
900.000000000136,7.61249091175357,1.00000000471765,0.592380625959052
1000.00000000016,8.82838807210581,1.00000000410976,0.58603208234409
1100.0000000001,9.54967975541922,1.00000000364278,0.580730147391686
1200,9.82260367482617,1.00000000352929,0.576872314654755
1299.99999999991,9.76762610729456,1.00000000337686,0.577496021297721
1399.99999999982,9.5067992419922,1.00000000405465,0.578549054367913
1499.99999999973,9.14641341941666,1.00000000301701,0.503952371278515
1599.99999999964,8.7765469679338,1.00000000306987,0.503192650777287
1699.99999999955,8.36675234313599,1.00000000464751,0.568180059955939
1799.99999999946,7.98709984783231,1.00000000234105,0.463148673459971
1899.99999999937,7.60167999158696,1.00000000436711,0.548838090457845
1999.99999999928,7.25643194674091,1.0000000025641,0.462222124710216
2099.99999999919,6.93119533629979,1.00000000325694,0.525683880353746
2199.99999999909,6.62345424014483,1.00000000418843,0.5564283799022
2299.999999999,6.36300220840788,1.00000000248557,0.466964259965957
2399.99999999891,6.12528308700427,1.00000000391377,0.536246837882324
2499.99999999882,5.90639628038729,1.00000000355898,0.539822562888192
2599.99999999873,5.69065215918603,1.00000000396702,0.539079559767124
2699.99999999864,5.53634165443803,1.00000000276957,0.477257952762141
2799.99999999855,5.40157393028627,1.00000000398423,0.537774859374925
2899.99999999846,5.26934398391567,1.00000000346762,0.550389214928903
2999.99999999837,5.13510850145517,1.00000000382671,0.580732530021472
3099.99999999828,5.00059560416042,1.00000000425061,0.55679705880091
3199.99999999819,4.90435858895724,1.00000000268619,0.506604187995365
3299.99999999809,4.86727029079697,1.00000000394918,0.538408560672387
3399.999999998,4.81990339022764,1.00000000379002,0.553072026984455
3499.99999999791,4.77132275630691,1.00000000384067,0.578949352544376
3599.99999999782,4.72158268476615,1.0000000039813,0.583793791157272
3699.99999999773,4.65127148027146,1.00000000393486,0.606423117507581
3799.99999999764,4.57775751078386,1.00000000416081,0.597834048959765
3899.99999999755,4.50556142609758,1.00000000406828,0.565265916644152
3999.99999999746,4.47340627669743,1.00000000289598,0.521027858255422
4099.99999999738,4.50895605736638,1.00000000383425,0.538981820019759
4199.99999999775,4.53905709396563,1.00000000413231,0.570394278624795
4299.99999999811,4.56039694471057,1.00000000382815,0.576878896207642
4399.99999999848,4.57720108133983,1.00000000410041,0.609815501828892
4499.99999999884,4.58219519706409,1.00000000426981,0.61379453554677
4599.9999999992,4.58484721493107,1.00000000403693,0.635307171453663
4699.99999999957,4.574966844053,1.00000000444778,0.641251109725631
4799.99999999993,4.55419166095014,1.00000000436548,0.636294691539749
4900.00000000029,4.51871673370999,1.00000000425391,0.651458444626305
5000.00000000066,4.4774876908641,1.00000000413941,0.657273379860154
5100.00000000102,4.43393916644976,1.00000000469653,0.649159404093968
5200.00000000139,4.39393660470187,1.00000000420633,0.614950518117335
5300.00000000175,4.37739153279755,1.00000000370903,0.567846759689179
5400.00000000211,4.43073495687201,1.00000000331631,0.562272379757396
5500.00000000248,4.51813668016869,1.00000000425871,0.585186156849573
5600.00000000284,4.59861232209131,1.00000000411617,0.608924948502579
5700.00000000321,4.670033535474,1.00000000469074,0.625498189903164
5800.00000000357,4.73578535211063,1.0000000044118,0.633669935912803
5900.00000000393,4.79071431123171,1.00000000436924,0.641286596244597
6000.0000000043,4.83449581981273,1.00000000479501,0.66977971517795
6100.00000000466,4.85704060596294,1.0000000043928,0.671203577374761
6200.00000000502,4.877056324102,1.00000000511183,0.677850534977205
6300.00000000539,4.89216283538556,1.00000000423761,0.658958698702753
6400.00000000575,4.91108715823957,1.00000000395687,0.665896881228365
6500.00000000612,4.92648431465987,1.00000000449562,0.685617798033434
6600.00000000648,4.93154219901071,1.00000000455133,0.659667703672469
6700.00000000684,4.94014823823918,1.00000000423117,0.655849115319679
6800.00000000721,4.94701413755245,1.00000000471305,0.681796562071304
6900.00000000757,4.94578573498466,1.00000000509318,0.694013972844332
7000.00000000793,4.93593022538301,1.00000000431034,0.667464705343127
7100.0000000083,4.92694330060405,1.00000000490686,0.673511669442932
7200.00000000866,4.91347602937094,1.00000000505407,0.674691991796935
7300.00000000903,4.89118725854167,1.00000000498999,0.683012090498007
7400.00000000939,4.8573873849356,1.00000000480626,0.664074902168568
7500.00000000975,4.82148519875506,1.0000000046477,0.669595776020252
7600.00000001012,4.78552123648216,1.00000000497307,0.681208674410533
7700.00000001048,4.75151664875349,1.00000000518101,0.696932520891751
7800.00000001084,4.72130600994088,1.00000000506761,0.679504211845516
7900.00000001121,4.70244701374371,1.00000000461563,0.631479947354442
8000.00000001157,4.72063760261758,1.00000000427518,0.593798077551187
8100.00000001194,4.80192964354377,1.00000000406058,0.592084405268563
8200.0000000123,4.92869610148594,1.00000000481839,0.603835859697749
8300.00000001266,5.06346984827165,1.00000000487451,0.615135820283846
8400.00000001303,5.19511354069928,1.00000000473326,0.621114839080062
8500.00000001339,5.31874487894594,1.00000000473664,0.615768682656927
8600.00000001376,5.43395930538915,1.00000000538995,0.621652881123263
8700.00000001412,5.55007453861695,1.00000000482499,0.637163034008858
8800.00000001448,5.64761050445091,1.00000000521961,0.66397092537696
8900.00000001485,5.73810152504786,1.00000000483591,0.682742616793855
9000.00000001521,5.81990908549776,1.0000000053639,0.687290589859866
9100.00000001557,5.90014433515033,1.00000000518399,0.691178176474142
9200.00000001594,5.95718998948193,1.00000000548327,0.6786705914848
9300.0000000163,6.00239285105086,1.00000000519374,0.69327996250517
9400.00000001667,6.04741622320559,1.00000000455763,0.700806730775386
9500.00000001703,6.09924832980728,1.00000000510641,0.703017263327595
9600.00000001739,6.14510487335105,1.00000000511031,0.692747441489136
9700.00000001776,6.17927901667218,1.000000005596,0.710818374092034
9800.00000001812,6.22015686729696,1.00000000491382,0.700881141603804
9900.00000001848,6.25630965235211,1.0000000055859,0.709317074630657
10000.0000000188,6.28609204957274,1.00000000510439,0.706399623997188
10100.0000000192,6.31471889700428,1.00000000529848,0.711970798008914
10200.0000000196,6.34340189799903,1.00000000559922,0.692762355039544
10300.0000000199,6.37529500298907,1.00000000554623,0.698563923279031
10400.0000000203,6.40916533682974,1.00000000541065,0.686603658644718
10500.0000000207,6.44426280942277,1.00000000598116,0.681031835647211
10600.000000021,6.49051835174989,1.00000000470301,0.702481010580718
10700.0000000214,6.54379589600834,1.00000000554596,0.705224533725861
10800.0000000218,6.60015279693551,1.00000000553902,0.694433573272533
10900.0000000221,6.65430372119885,1.00000000600431,0.704990064229697
11000.0000000225,6.7060520431354,1.0000000057171,0.690990695412756
11100.0000000229,6.76016673685906,1.00000000603866,0.699125333825133
11200.0000000232,6.82152938042884,1.00000000587047,0.703958263552117
11300.0000000236,6.89482260654253,1.00000000624266,0.70493902598068
11400.0000000239,6.96341985530733,1.00000000644491,0.710893041165256
11500.0000000243,7.02769744969834,1.00000000642706,0.711683359887823
11600.0000000247,7.09675017202076,1.00000000596549,0.715900970676622
11700.000000025,7.16461159178457,1.00000000618439,0.720773437839653
11800.0000000254,7.23290677843402,1.00000000561733,0.712127833989282
11900.0000000258,7.30881984974579,1.0000000061317,0.713382147770006
12000.0000000261,7.38649789240086,1.00000000588382,0.73647593535964
12100.0000000265,7.45068716463524,1.00000000616827,0.72867908729185
12200.0000000269,7.51533022937851,1.00000000605218,0.719636430594985
12300.0000000272,7.58040799080884,1.00000000640483,0.715079408979764
12400.0000000276,7.65087947687713,1.00000000583252,0.723201972871392
12500.0000000279,7.72919341232945,1.00000000596022,0.72252387457614
12600.0000000283,7.81097368439259,1.00000000541457,0.717461536023217
12700.0000000287,7.89822105064527,1.00000000664583,0.721917746706571
12800.000000029,7.97304693138889,1.00000000713312,0.699545052381048
12900.0000000294,8.05520976279005,1.00000000654726,0.710431425169901
13000.0000000298,8.13181440444212,1.0000000059378,0.708100720166899
13100.0000000301,8.22054833243899,1.00000000686756,0.718753680087578
13200.0000000305,8.29958380069536,1.00000000695438,0.722752363356852
13300.0000000309,8.37148753524369,1.00000000621223,0.721554056869583
13400.0000000312,8.44466716835253,1.00000000593384,0.718490657303032
13500.0000000316,8.53247332380393,1.00000000615869,0.713584876790632
13600.0000000319,8.62168840205336,1.00000000657543,0.718573598052246
13700.0000000323,8.70525825953405,1.00000000690769,0.722882172986321
13800.0000000327,8.77629551512228,1.00000000697938,0.719538884115328
13900.000000033,8.84302673637252,1.00000000679861,0.701069302546345
14000.0000000334,8.91017754842419,1.0000000067243,0.718555937844147
14100.0000000338,8.97500707765666,1.00000000698344,0.721873040347389
14200.0000000341,9.03245786771686,1.00000000567326,0.713100107270478
14300.0000000345,9.08988480826453,1.0000000065204,0.708423275743446
14400.0000000349,9.14450829067141,1.0000000073829,0.715435703957349
14500.0000000352,9.1985055389067,1.00000000783816,0.718536106838265
14600.0000000356,9.24774783525885,1.00000000671086,0.704240821208525
14700.0000000359,9.28629671642041,1.00000000747595,0.718591903752263
14800.0000000363,9.31976436862682,1.00000000722924,0.71655689649662
14900.0000000367,9.34002804889781,1.00000000636822,0.720232243214836
15000.000000037,9.36628922392031,1.00000000713975,0.725077569024735
15100.0000000374,9.39688292734466,1.00000000695103,0.732372037598129
15200.0000000378,9.43048689589195,1.00000000681531,0.721457342151883
15300.0000000381,9.46998511902303,1.00000000746051,0.719697800795229
15400.0000000385,9.50961586979908,1.00000000737155,0.729175011234316
15500.0000000389,9.56180071698618,1.00000000733197,0.721685955871891
15600.0000000392,9.62157598838496,1.00000000704622,0.714523795388892
15700.0000000396,9.69990913206776,1.00000000727382,0.704414215151476
15800.0000000399,9.78783033138402,1.00000000712337,0.70178161750888
15900.0000000403,9.91246764502892,1.00000000702803,0.692140585180781
16000.0000000407,10.0771328823021,1.00000000652473,0.673557054076045
16100.000000041,10.3049980326614,1.00000000677457,0.666085445503578
16200.0000000414,10.5994440928379,1.00000000672434,0.664387570663439
16300.0000000418,10.9670323415377,1.00000000715058,0.676765070157796
16400.0000000418,11.3630818049867,1.00000000734356,0.681724276529264
16500.0000000404,11.7974082257332,1.00000000761814,0.687602276386835
16600.0000000389,12.2201209592566,1.00000000747833,0.688442052876513
16700.0000000375,12.6562807609247,1.00000000724352,0.686127352997812
16800.000000036,13.075216112333,1.00000000791837,0.68999893069295
16900.0000000346,13.50157984895,1.00000000689956,0.689963820034891
17000.0000000331,13.9200589432607,1.00000000790981,0.689305278471465
17100.0000000317,14.3393070937895,1.0000000072497,0.680092692650877
17200.0000000302,14.7701142621715,1.0000000077661,0.689739725832246
17300.0000000287,15.2077475945549,1.00000000689765,0.692786310008828
17400.0000000273,15.6711530087555,1.00000000723219,0.69255737968591
17500.0000000258,16.1451807504112,1.00000000736563,0.696853792741393
17600.0000000244,16.6414684977928,1.00000000773518,0.705881111211005
17700.0000000229,17.1397805471865,1.00000000762107,0.717847366650293
17800.0000000215,17.6263437085064,1.00000000766316,0.719260700772483
17900.00000002,18.1104945310629,1.00000000748099,0.725999681170703
18000.0000000186,18.5586228259501,1.00000000758621,0.734346786005163
18100.0000000171,19.0131374665496,1.00000000793735,0.734459202101132
18200.0000000156,19.4552454335446,1.00000000776971,0.747393554876334
18300.0000000142,19.8917740003673,1.00000000881529,0.742281790481242
18400.0000000127,20.3203492027994,1.00000000761107,0.744187774431348
18500.0000000113,20.7302557650346,1.00000000800037,0.746360510493986
18600.0000000098,21.1320245903263,1.00000000761922,0.728412172901392
18700.0000000084,21.5248645776882,1.000000008131,0.744442842538874
18800.0000000069,21.9153259627425,1.00000000828187,0.733767546796928
18900.0000000055,22.2923503504621,1.0000000074997,0.727163806620164
19000.000000004,22.6740753477207,1.00000000812024,0.74143321753978
19100.0000000026,23.0444076357029,1.00000000801586,0.744978310929158
19200.0000000011,23.4205401402058,1.00000000776265,0.743394000135405
19299.9999999996,23.8111262684756,1.00000000720865,0.746001961466756
19399.9999999982,24.2029897585846,1.00000000804179,0.747469504982374
19499.9999999967,24.5917859697818,1.00000000866935,0.749425394638299
19599.9999999953,24.9787999983051,1.00000000754635,0.740028432162108
19699.9999999938,25.3851697391283,1.00000000817736,0.747277512265958
19799.9999999924,25.7992101497184,1.00000000759653,0.754281466237908
19899.9999999909,26.2131548166255,1.0000000084474,0.749086993486146
19999.9999999895,26.6318637706659,1.00000000799688,0.742268167574484
20099.999999988,27.0476518857836,1.00000000821681,0.734885053238751
20199.9999999865,27.4830952228452,1.00000000830674,0.733068105518429
20299.9999999851,27.9269506422306,1.00000000714453,0.745442115187369
20399.9999999836,28.3996985459942,1.00000000909281,0.747554070962141
20499.9999999822,28.8875189573387,1.0000000085564,0.75161520157792
20599.9999999807,29.3605032772464,1.00000000829789,0.763391207029536
20699.9999999793,29.8128588569161,1.00000000798714,0.754657667309115
20799.9999999778,30.2523963189612,1.00000000885401,0.733591483720628
20899.9999999764,30.6926745873411,1.00000000765357,0.734201917897424
20999.9999999749,31.1608566670555,1.00000000834788,0.753491620231597
21099.9999999734,31.6222241247401,1.00000000820227,0.75159709411346
21199.999999972,32.0783210902592,1.00000000786178,0.76224041548515
21299.9999999705,32.5302123781612,1.00000000813203,0.747831440595871
21399.9999999691,32.9950521241828,1.00000000820544,0.751086000834068
21499.9999999676,33.4706814798412,1.00000000769393,0.756008773518387
21599.9999999662,33.9426057745151,1.00000000785126,0.759074638815833
21699.9999999647,34.4261777741124,1.00000000853088,0.747301975547994
21799.9999999633,34.9320989841807,1.00000000830632,0.745085567861244
21899.9999999618,35.4390658592321,1.00000000866167,0.7536350149424
21999.9999999603,35.9414178367054,1.00000000829564,0.754351272397554
22099.9999999589,36.4434691549585,1.00000000858783,0.754152127838597
22199.9999999574,36.9406906166624,1.00000000851938,0.749947040289879
22299.999999956,37.4398143863591,1.00000000845588,0.740985783578167
22399.9999999545,37.956232612835,1.00000000902322,0.757028894488775
22499.9999999531,38.4831256384097,1.0000000093796,0.759085914464736
22599.9999999516,39.0162663929047,1.00000000881821,0.749018907477071
22699.9999999502,39.5610601197404,1.00000000798943,0.753557880369295
22799.9999999487,40.1113951066789,1.00000000860233,0.759959308258189
22899.9999999473,40.6503264364499,1.00000000938523,0.756649104742519
22999.9999999458,41.1853779722193,1.00000000892027,0.746789670690861
23099.9999999443,41.7221606648337,1.00000000919217,0.742937353752172
23199.9999999429,42.2686731166599,1.00000000830539,0.747234024361705
23299.9999999414,42.8385893129517,1.00000000786851,0.750267928044267
23399.99999994,43.4250076821637,1.00000000892365,0.744543322834945
23499.9999999385,44.0239241273985,1.0000000094878,0.758701566488692
23599.9999999371,44.615274643869,1.00000000912682,0.761003074252046
23699.9999999356,45.2056418375927,1.00000000965648,0.756641614518859
23799.9999999342,45.8020845643577,1.00000000829107,0.754141827637025
23899.9999999327,46.4262571895068,1.00000000853257,0.757680200864483
23999.9999999312,47.0635385326183,1.00000000824416,0.760024219287129
24099.9999999298,47.7040845902874,1.00000001002603,0.756489414425881
24199.9999999283,48.3418977003705,1.00000000881293,0.76241547859596
24299.9999999269,48.9807934831291,1.00000000875794,0.761802624430194
24399.9999999254,49.6242692835594,1.0000000087776,0.758055542355956
24499.999999924,50.2736593051746,1.00000000888579,0.744701826355298
24599.9999999225,50.9464684869808,1.00000000867159,0.750732962285371
24699.9999999211,51.6142824407162,1.00000000938433,0.75047442226206
24799.9999999196,52.2774275183866,1.0000000094957,0.752774075177185
24899.9999999181,52.9490497953648,1.00000000969659,0.746437018615134
24999.9999999167,53.6235280020196,1.00000000949446,0.755813297368986
25099.9999999152,54.2904009927443,1.00000000920419,0.750259052031666
25199.9999999138,54.9705895049637,1.00000000920751,0.75109140372075
25299.9999999123,55.6468776159037,1.00000001010203,0.765056829788792
25399.9999999109,56.3262856321282,1.00000000916236,0.764307569229792
25499.9999999094,57.0074567695119,1.0000000091738,0.763702652236326
25599.999999908,57.6987327857905,1.00000001018491,0.754625824351313
25699.9999999065,58.4105263569436,1.0000000091172,0.751873053975688
25799.9999999051,59.1304775503776,1.00000000921298,0.757501840478614
25899.9999999036,59.8363953289838,1.00000000902792,0.764062811609382
25999.9999999021,60.5398257686158,1.00000001001407,0.760099000450395
26099.9999999007,61.2507415819966,1.00000000975314,0.752326378378904
26199.9999998992,61.9668190932112,1.00000001003581,0.760391024831921
26299.9999998978,62.6926343760509,1.00000000962466,0.76381935904125
26399.9999998963,63.4331777705336,1.00000000953158,0.754875039430737
26499.9999998949,64.1881516480002,1.00000000923199,0.76007459276295
26599.9999998934,64.9547164582833,1.00000000966096,0.758615809583509
26699.999999892,65.7383496500099,1.00000000966308,0.760214773872063
26799.9999998905,66.5163650791547,1.00000000954429,0.76389734075586
26899.999999889,67.2861081537309,1.00000001045097,0.761044208712089
26999.9999998876,68.0482665542998,1.0000000097088,0.763459634609447
27099.9999998861,68.8126823258517,1.00000000993059,0.758579984749674
27199.9999998847,69.5914249764506,1.00000000978578,0.756474449015633
27299.9999998832,70.3845885988904,1.00000001019091,0.755881140123626
27399.9999998818,71.1756986634509,1.00000001015673,0.762733166039493
27499.9999998803,71.9738573316196,1.00000000995069,0.762046195870469
27599.9999998789,72.771107260216,1.00000001045935,0.764717359642251
27699.9999998774,73.5668466889003,1.00000000969724,0.763674163208036
27799.9999998759,74.3619977703197,1.00000001011149,0.76879045095429
27899.9999998745,75.1526554048287,1.00000001145014,0.766043950528858
27999.999999873,75.9478549275459,1.00000000936285,0.764328244095218
28099.9999998716,76.75384053382,1.00000000938563,0.760098749182881
28199.9999998701,77.5661082664291,1.00000001057183,0.761651695942476
28299.9999998687,78.3810795747531,1.00000001004029,0.762199616438924
28399.9999998672,79.2173379393075,1.0000000103781,0.758510589301793
28499.9999998658,80.0639256536729,1.00000001027439,0.762593359662032
28599.9999998643,80.9170641671799,1.00000001089489,0.762571117619285
28699.9999998629,81.7659830777183,1.00000001038958,0.767086614644422
28799.9999998614,82.6091318885301,1.00000000977664,0.760996176255871
28899.9999998599,83.4477267707173,1.00000001091728,0.762981650420356
28999.9999998585,84.2839276726681,1.00000001021001,0.763632073604974
