Time,AGPnorm,Energy,Entropy
0,0,1,-7.19626882464147e-17
99.9999999999986,0.00197003103656228,1.00000000000385,0.00559485992856884
199.999999999993,0.0122008476994003,1.00000000000336,0.0164943364503812
300,0.0247097465400209,0.999999999999854,0.0301154394247589
400.000000000022,0.0372111182822499,0.999999999999195,0.0469619271647539
500.000000000045,0.0516662113036656,1.00000000000185,0.0677706947181033
600.000000000068,0.0702861512975699,1.00000000000362,0.0928538536466092
700.000000000091,0.087371071956702,1.00000000000167,0.121704392948573
800.000000000113,0.105864028642165,1.00000000000156,0.156188775125248
900.000000000136,0.122760781571038,1.00000000002648,0.200681629958972
1000.00000000016,0.137048767989441,1.00000000017304,0.257366755790888
1100.0000000001,0.165704672862855,1.00000000048561,0.317869234086515
1200,0.26153625095889,1.00000000091573,0.372563258128451
1299.99999999991,0.457042895409473,1.00000000132477,0.419461693567666
1399.99999999982,0.83537249661733,1.00000000176025,0.459302209547448
1499.99999999973,1.54645308574924,1.00000000208521,0.492085734388693
1599.99999999964,2.68237793732615,1.0000000021614,0.518689273985016
1699.99999999955,4.23492774555533,1.00000000226943,0.539792799635941
1799.99999999946,6.17933598737786,1.00000000247337,0.556117810038884
1899.99999999937,8.49766095789009,1.00000000252954,0.568779800947067
1999.99999999928,11.1457788264481,1.00000000241426,0.578583983183682
2099.99999999919,14.0400749740926,1.00000000248334,0.585192655176431
2199.99999999909,17.0834622544816,1.00000000236733,0.589424549657061
2299.999999999,20.183585524966,1.00000000230871,0.592398398266516
2399.99999999891,23.2642936606085,1.00000000223784,0.592934534986932
2499.99999999882,26.2657913581423,1.00000000229387,0.593626075760055
2599.99999999873,29.1354334532172,1.00000000214146,0.592541093575371
2699.99999999864,31.8180644064778,1.00000000207075,0.590672369636496
2799.99999999855,34.2692990736723,1.00000000189433,0.589416623847616
2899.99999999846,36.4688698940513,1.00000000196154,0.587985693638471
2999.99999999837,38.40490471622,1.00000000176955,0.58566721028536
3099.99999999828,40.0756452550776,1.0000000017115,0.581731727924678
3199.99999999819,41.4747952482074,1.00000000165956,0.579720995532147
3299.99999999809,42.6021517782898,1.00000000166411,0.580285991243073
3399.999999998,43.471863811969,1.00000000149316,0.575292554050607
3499.99999999791,44.1058488017738,1.00000000155076,0.5769627711733
3599.99999999782,44.5120418913654,1.00000000143544,0.574475746427967
3699.99999999773,44.723828698741,1.00000000137424,0.571047162560348
3799.99999999764,44.7469467273595,1.00000000141742,0.571662207302073
3899.99999999755,44.6272412133878,1.00000000142177,0.569812326770575
3999.99999999746,44.3640640230294,1.0000000012703,0.560608104507535
4099.99999999738,44.0218966965852,1.00000000139737,0.568636339784626
4199.99999999775,43.5724546147005,1.00000000113482,0.54129773972404
4299.99999999811,43.0730594738839,1.00000000171366,0.578888755399446
4399.99999999848,42.5238549526457,1.00000000111977,0.528999662549119
4499.99999999884,41.9184213294801,1.0000000017169,0.575643476959325
4599.9999999992,41.3250980539854,1.0000000014394,0.546428966169813
4699.99999999957,40.6851366519845,1.00000000119137,0.513221625233024
4799.99999999993,40.037322197799,1.00000000185678,0.5804210189299
4900.00000000029,39.4111803379795,1.00000000136329,0.517664779978937
5000.00000000066,38.7569468165479,1.00000000122281,0.505943503395692
5100.00000000102,38.1059756252101,1.00000000195854,0.5644955432361
5200.00000000139,37.4843104389941,1.00000000146339,0.524267882764438
5300.00000000175,36.8593696142419,1.00000000119306,0.494543934414243
5400.00000000211,36.2291254451317,1.00000000153374,0.526722323083496
5500.00000000248,35.6225310578073,1.00000000182231,0.550122803777579
5600.00000000284,35.0352149586915,1.00000000135919,0.499001798630262
5700.00000000321,34.4542053735506,1.00000000119619,0.503303414096076
5800.00000000357,33.8799154234666,1.00000000157347,0.520516022991307
5900.00000000393,33.3232017806307,1.0000000017347,0.538428564762764
6000.0000000043,32.7848060952756,1.00000000151058,0.513121745182346
6100.00000000466,32.2622111063645,1.0000000012274,0.501000486418111
6200.00000000502,31.7535677183748,1.00000000150343,0.532780003393492
6300.00000000539,31.2590780610969,1.00000000149896,0.515998785456624
6400.00000000575,30.7801627348818,1.0000000017805,0.532840796427439
6500.00000000612,30.3158267000718,1.00000000152949,0.514003332847056
6600.00000000648,29.8715806939919,1.00000000119934,0.501896898338
6700.00000000684,29.4436058338987,1.00000000159189,0.534923399969584
6800.00000000721,29.0287099580404,1.00000000134546,0.524905090938956
6900.00000000757,28.632367911094,1.00000000141763,0.506306236378159
7000.00000000793,28.2481407260046,1.00000000158069,0.526563714788484
7100.0000000083,27.8741563303752,1.00000000145531,0.510460605053928
7200.00000000866,27.5207912256356,1.00000000123525,0.506681824720884
7300.00000000903,27.1818996648776,1.00000000160468,0.529170309969845
7400.00000000939,26.8494389648108,1.00000000162191,0.535052487141538
7500.00000000975,26.5342519713751,1.00000000121803,0.507919748238572
7600.00000001012,26.2359422200417,1.00000000153222,0.510878764670044
7700.00000001048,25.9455698476362,1.00000000167756,0.530293922761451
7800.00000001084,25.6626200916949,1.00000000148817,0.51405383259791
7900.00000001121,25.3958082831564,1.00000000133103,0.512185658441775
8000.00000001157,25.1424879714244,1.0000000014121,0.530704718425252
8100.00000001194,24.8957227496253,1.00000000167055,0.529226958655755
8200.0000000123,24.6534627634236,1.0000000014935,0.528893931671341
8300.00000001266,24.4234411317182,1.00000000135945,0.52764333091305
8400.00000001303,24.2067558345759,1.00000000140751,0.509009048106577
8500.00000001339,24.0004494175993,1.0000000015353,0.532028114548519
8600.00000001376,23.8007228109137,1.00000000165643,0.53486459705614
8700.00000001412,23.6089083820811,1.00000000142311,0.525918712989772
8800.00000001448,23.4304330101942,1.00000000146269,0.526735527807279
8900.00000001485,23.2589706897684,1.0000000015138,0.53912222400238
9000.00000001521,23.0961216309523,1.0000000014325,0.533940045953878
9100.00000001557,22.9416149861084,1.00000000151413,0.529676428617638
9200.00000001594,22.7876684035321,1.00000000177292,0.538932893404819
9300.0000000163,22.6331770587916,1.00000000147421,0.550161477798396
9400.00000001667,22.4858675418647,1.00000000138352,0.533836600143426
9500.00000001703,22.3524679637968,1.00000000143217,0.530003151262407
9600.00000001739,22.2269811140248,1.00000000157462,0.550246908883114
9700.00000001776,22.1033686324123,1.00000000156406,0.542848705173046
9800.00000001812,21.9870250084218,1.00000000143763,0.540032735646859
9900.00000001848,21.8810371536755,1.00000000131153,0.538798490641999
10000.0000000188,21.7815907071397,1.00000000157281,0.541085488960526
10100.0000000192,21.6801169273523,1.00000000152696,0.551014824702717
10200.0000000196,21.5861244717066,1.00000000134131,0.53136953784499
10300.0000000199,21.5046265519446,1.00000000139891,0.538774890320145
10400.0000000203,21.4223596852069,1.00000000166848,0.546231974122664
10500.0000000207,21.3330425166734,1.00000000166176,0.550694188770201
10600.000000021,21.2383773186318,1.00000000166207,0.564629476819063
10700.0000000214,21.1484092804047,1.00000000142008,0.560496641729434
10800.0000000218,21.0627568766509,1.00000000148589,0.561613363478325
10900.0000000221,20.982385096546,1.00000000151107,0.562982572529244
11000.0000000225,20.9074690036034,1.00000000157367,0.552898485146413
11100.0000000229,20.8395005104407,1.00000000150848,0.549099214771307
11200.0000000232,20.7788219637616,1.0000000014485,0.547716106748561
11300.0000000236,20.7273593698328,1.00000000148611,0.554060967618125
11400.0000000239,20.6772727800001,1.00000000154298,0.56435740611196
11500.0000000243,20.6315689357577,1.00000000148941,0.556991437894063
11600.0000000247,20.5859201465447,1.00000000166783,0.557325566607579
11700.000000025,20.5423569698876,1.00000000148684,0.561066622812458
11800.0000000254,20.5038453450702,1.00000000155962,0.555547232922544
11900.0000000258,20.4693815824287,1.0000000016148,0.56527275506088
12000.0000000261,20.4343776756181,1.00000000154323,0.572027654209894
12100.0000000265,20.4002864797406,1.00000000147218,0.561964498495206
12200.0000000269,20.3640955265164,1.00000000162492,0.575650674054764
12300.0000000272,20.320442544318,1.00000000167889,0.586753576891848
12400.0000000276,20.2670995600437,1.00000000173138,0.603756718609963
12500.0000000279,20.2079004442858,1.00000000159922,0.604838009712382
12600.0000000283,20.1505766096858,1.00000000152484,0.592913226232026
12700.0000000287,20.10149932754,1.00000000143773,0.58442041836238
12800.000000029,20.0598997681205,1.00000000150805,0.57761958967242
12900.0000000294,20.0259204308919,1.0000000015012,0.567070518563354
13000.0000000298,19.9988029185706,1.00000000157039,0.567228189899316
13100.0000000301,19.9774162417373,1.00000000156205,0.573084363070486
13200.0000000305,19.961400075167,1.00000000163719,0.580819758190237
13300.0000000309,19.9486398421256,1.0000000015321,0.580101697905604
13400.0000000312,19.9324789436449,1.0000000016335,0.580835434464107
13500.0000000316,19.9206000666144,1.00000000148844,0.577456735603408
13600.0000000319,19.91601049885,1.00000000158396,0.570767625577423
13700.0000000323,19.9122155650337,1.00000000170195,0.569631036098142
13800.0000000327,19.9049083317754,1.00000000161954,0.577450324300982
13900.000000033,19.8979504866733,1.00000000152407,0.581444627504154
14000.0000000334,19.8955446130509,1.00000000152424,0.586060174668901
14100.0000000338,19.8942012788488,1.00000000163875,0.592449730925335
14200.0000000341,19.8878617724468,1.00000000162306,0.605645969738923
14300.0000000345,19.8786878415768,1.00000000167079,0.60983993927651
14400.0000000349,19.8673663382795,1.00000000162658,0.61384594424918
14500.0000000352,19.8544389326894,1.00000000153255,0.608593046037073
14600.0000000356,19.8365033345387,1.00000000170972,0.609601593524164
14700.0000000359,19.8111645683929,1.00000000173697,0.610503509841478
14800.0000000363,19.7767252186706,1.00000000185841,0.606595360477374
14900.0000000367,19.7342575500491,1.00000000166148,0.609172551073736
15000.000000037,19.6876829302656,1.00000000159338,0.613794279416445
15100.0000000374,19.6438993942938,1.00000000151052,0.611064048587395
15200.0000000378,19.6072463498488,1.00000000156562,0.602401531406261
15300.0000000381,19.5775147804706,1.00000000158823,0.595191043566981
15400.0000000385,19.5546566581768,1.00000000168027,0.590632065378907
15500.0000000389,19.5395541728519,1.00000000160165,0.586938990547644
15600.0000000392,19.5301527786751,1.0000000015348,0.583650352912818
15700.0000000396,19.5280111165578,1.00000000159559,0.58882147602044
15800.0000000399,19.5307942844018,1.00000000164078,0.59486744265166
15900.0000000403,19.5359531793202,1.00000000166703,0.597670347287695
16000.0000000407,19.5426516968914,1.00000000159264,0.595789673092273
16100.000000041,19.5513068476608,1.00000000169041,0.593536808033982
16200.0000000414,19.5609426679669,1.00000000159328,0.584513507354604
16300.0000000418,19.574452733446,1.00000000168616,0.586616520533953
16400.0000000418,19.5880907062379,1.00000000160349,0.590028483473202
16500.0000000404,19.601018528155,1.00000000165478,0.598449406776237
16600.0000000389,19.6135835251351,1.00000000164182,0.597522189597334
16700.0000000375,19.6242880634149,1.0000000016639,0.591961840624562
16800.000000036,19.6336267065432,1.00000000172184,0.590571451471427
16900.0000000346,19.6442197811861,1.00000000167639,0.584380951860999
17000.0000000331,19.655060927652,1.00000000169796,0.590928667481025
17100.0000000317,19.6658997450961,1.0000000016775,0.605104773137795
17200.0000000302,19.6779623263678,1.00000000156147,0.610305682438184
17300.0000000287,19.6878376010815,1.00000000164754,0.612286646595766
17400.0000000273,19.6955663039235,1.00000000168806,0.619994452855287
17500.0000000258,19.6970661276892,1.0000000017517,0.622853671465704
17600.0000000244,19.6948134389308,1.00000000172813,0.629039983020233
17700.0000000229,19.6901458986086,1.00000000172256,0.630784369373165
17800.0000000215,19.6814249547911,1.00000000179049,0.635462324768172
17900.00000002,19.6706744135566,1.00000000166387,0.632653179014154
18000.0000000186,19.65683188527,1.00000000163795,0.632458654099362
18100.0000000171,19.6413182022063,1.00000000165022,0.629385400954074
18200.0000000156,19.6255035647341,1.00000000167202,0.629722634879135
18300.0000000142,19.6053521117457,1.00000000176121,0.630069860287798
18400.0000000127,19.5786109851984,1.00000000182599,0.627817357425312
18500.0000000113,19.5434256058902,1.00000000177779,0.627873173546199
18600.0000000098,19.5039265541783,1.00000000183501,0.624514256580876
18700.0000000084,19.4613537598107,1.00000000178849,0.623628645794137
18800.0000000069,19.4205670148576,1.00000000158079,0.61649361687471
18900.0000000055,19.3837716563237,1.00000000163756,0.614678561223328
19000.000000004,19.3526866263292,1.00000000171371,0.619216901887431
19100.0000000026,19.3276631714765,1.00000000169903,0.615658085064385
19200.0000000011,19.3083087275314,1.00000000171681,0.613751526731643
19299.9999999996,19.2961311290863,1.00000000179088,0.614184895912025
19399.9999999982,19.2907909638279,1.000000001695,0.606762362256384
19499.9999999967,19.2903402253581,1.00000000176377,0.597324565694363
19599.9999999953,19.2958264456041,1.00000000175255,0.588657792911536
19699.9999999938,19.3062080373563,1.0000000016775,0.592464594091789
19799.9999999924,19.3207542455713,1.00000000186328,0.605506655911115
19899.9999999909,19.3366701357416,1.00000000183234,0.606150751535731
19999.9999999895,19.3552088310183,1.00000000182026,0.606041913591896
20099.999999988,19.3745570740403,1.00000000176513,0.603154270989766
20199.9999999865,19.3957600283308,1.00000000173714,0.604269358103899
20299.9999999851,19.420056259257,1.00000000172499,0.599546434086912
20399.9999999836,19.4465612744256,1.00000000175437,0.59478874243176
20499.9999999822,19.4745149452628,1.00000000174104,0.597727261390039
20599.9999999807,19.5036438498612,1.00000000179178,0.603176425233319
20699.9999999793,19.5317721969617,1.0000000017401,0.601740023842232
20799.9999999778,19.5564493539732,1.00000000180314,0.604195754101042
20899.9999999764,19.5802846304834,1.00000000179089,0.605123444951176
20999.9999999749,19.6059477155845,1.00000000182024,0.603314774194507
21099.9999999734,19.629517908214,1.00000000181661,0.609745626282907
21199.999999972,19.6515935318929,1.00000000187147,0.609603973394939
21299.9999999705,19.672607727709,1.00000000179446,0.615067709215203
21399.9999999691,19.6940629499826,1.00000000181934,0.620564267345439
21499.9999999676,19.7150755473643,1.0000000017789,0.637125362344172
21599.9999999662,19.7345646334525,1.00000000185933,0.645493387154185
21699.9999999647,19.7514432574012,1.00000000187269,0.648230688836099
21799.9999999633,19.76555232206,1.00000000184741,0.646377783107733
21899.9999999618,19.7758061278079,1.00000000187113,0.648378301601858
21999.9999999603,19.7860429635161,1.00000000180652,0.642864871933924
22099.9999999589,19.7984702267047,1.00000000183466,0.647640059830812
22199.9999999574,19.8110731692028,1.00000000178996,0.645924377489368
22299.999999956,19.824157357544,1.00000000179247,0.646719449253848
22399.9999999545,19.8355206643825,1.00000000193366,0.648846835566407
22499.9999999531,19.8428990329833,1.00000000184583,0.649722323814411
22599.9999999516,19.8498993049074,1.00000000179804,0.652447202625634
22699.9999999502,19.8552508375288,1.00000000187366,0.654059090463288
22799.9999999487,19.8585826919813,1.00000000194876,0.656997211398321
22899.9999999473,19.8604769013184,1.00000000182455,0.654341336179441
22999.9999999458,19.8621495956445,1.00000000187611,0.653198074083468
23099.9999999443,19.8654075192349,1.00000000185308,0.64085425507838
23199.9999999429,19.8656360404731,1.0000000020346,0.647366149100964
23299.9999999414,19.8617897468754,1.00000000195795,0.651171434705395
23399.99999994,19.8570731004308,1.00000000186382,0.651802654298997
23499.9999999385,19.8507736834617,1.00000000194229,0.650601204733447
23599.9999999371,19.840000674352,1.00000000206655,0.659408103485395
23699.9999999356,19.8271066817301,1.00000000183058,0.661109450007916
23799.9999999342,19.8129109145629,1.00000000189241,0.65475819877696
23899.9999999327,19.799544829596,1.00000000192022,0.660430917456633
23999.9999999312,19.7846110964605,1.00000000190039,0.665506315324211
24099.9999999298,19.7667497721479,1.00000000192552,0.665681044019773
24199.9999999283,19.7482510781515,1.00000000186269,0.654246397633139
24299.9999999269,19.7292288238886,1.00000000179122,0.656634636190226
24399.9999999254,19.7091391390023,1.00000000187444,0.65935030258671
24499.999999924,19.688425313285,1.00000000197438,0.655330814262914
24599.9999999225,19.6651696120361,1.00000000197318,0.660412903016586
24699.9999999211,19.6383849637505,1.0000000019591,0.659933188536104
24799.9999999196,19.6077673049529,1.00000000208468,0.667053524967224
24899.9999999181,19.5743141333064,1.0000000020085,0.665081160599437
24999.9999999167,19.5400942244814,1.0000000019397,0.664688370731879
25099.9999999152,19.5058275714876,1.00000000185575,0.663771359207324
25199.9999999138,19.4735489547366,1.00000000179716,0.655136566511981
25299.9999999123,19.4452514223614,1.00000000181813,0.653625088756137
25399.9999999109,19.4213989411779,1.00000000182905,0.648125613825691
25499.9999999094,19.4035604396698,1.00000000184152,0.65005869853441
25599.999999908,19.3915631949784,1.00000000179165,0.654343376006829
25699.9999999065,19.384817796482,1.00000000185199,0.655707064365482
25799.9999999051,19.3825524433631,1.00000000197967,0.652578318833456
25899.9999999036,19.3864756326432,1.00000000193479,0.649353323635759
25999.9999999021,19.3951944003724,1.00000000192164,0.643724052631534
26099.9999999007,19.4088923790122,1.00000000185686,0.631033397334039
26199.9999998992,19.428494524857,1.00000000194836,0.629691132056104
26299.9999998978,19.4513628806687,1.00000000199047,0.624845441817862
26399.9999998963,19.4778764697688,1.00000000188742,0.626973042419103
26499.9999998949,19.5082211177515,1.00000000198772,0.621908952617619
26599.9999998934,19.5401180992915,1.00000000205227,0.627345160915261
26699.999999892,19.5730566590269,1.00000000200563,0.629061120032802
26799.9999998905,19.6091898724951,1.00000000193926,0.620315089656745
26899.999999889,19.6460826068804,1.00000000197221,0.616686058371239
26999.9999998876,19.6843331216081,1.00000000186527,0.616990169173908
27099.9999998861,19.7275285154943,1.00000000196464,0.617305259709876
27199.9999998847,19.7729050872471,1.00000000200265,0.618839609601693
27299.9999998832,19.8200909295851,1.00000000194411,0.616871033035308
27399.9999998818,19.8672532726962,1.00000000208686,0.625793527842855
27499.9999998803,19.9142669022888,1.00000000195783,0.620443251677563
27599.9999998789,19.962380821511,1.00000000212036,0.627863655040385
27699.9999998774,20.0083733450546,1.00000000199048,0.627076687852906
27799.9999998759,20.0547515635512,1.00000000209752,0.626397419764944
27899.9999998745,20.1014624280399,1.00000000215016,0.628526907450669
27999.999999873,20.1475649446648,1.00000000203728,0.62077453761026
28099.9999998716,20.1948760783692,1.00000000212403,0.623005106422129
28199.9999998701,20.241767971159,1.00000000203226,0.622101678184295
28299.9999998687,20.287203887339,1.00000000209964,0.623089413467317
28399.9999998672,20.3297773705984,1.00000000220439,0.637010247940495
28499.9999998658,20.3702104010386,1.00000000203534,0.637306036647153
28599.9999998643,20.4110277410723,1.00000000211236,0.6427703047002
28699.9999998629,20.4533928249717,1.00000000205036,0.642279710908337
28799.9999998614,20.4957452831259,1.0000000020164,0.643873862775615
28899.9999998599,20.5388929438058,1.00000000208642,0.645468236421125
28999.9999998585,20.5787814811132,1.00000000248453,0.658765365479654
