Time,AGPnorm,Energy,Entropy
0,0,1,-1.28137060152596e-17
99.9999999999986,2.02758461982027e-05,0.999999999998621,0.000866409450757032
199.999999999993,0.0016990041978376,1.00000000000184,0.00135667938705924
300,0.00417674738803015,0.999999999998338,0.0023775911356608
400.000000000022,0.00576235641935095,1.00000000000051,0.00411375813009093
500.000000000045,0.00706678972599004,1.00000000000062,0.00541066045573357
600.000000000068,0.0102098912344917,0.99999999999827,0.00762814976999906
700.000000000091,0.0124860582806116,1.00000000000173,0.00975534478103764
800.000000000113,0.0161248396384122,0.999999999998861,0.0119432665877937
900.000000000136,0.0202812011213313,0.999999999999866,0.0148020759447151
1000.00000000016,0.0234142238952955,1.00000000000107,0.0172672497962298
1100.0000000001,0.0279467891637421,0.999999999998168,0.020329513884457
1200,0.032673552398554,1.00000000000143,0.0235023869085294
1299.99999999991,0.0380940746758967,0.999999999999471,0.0265385523793326
1399.99999999982,0.0439638035680873,0.999999999999271,0.0302229984744046
1499.99999999973,0.0488406031423528,1.0000000000013,0.0336115313443344
1599.99999999964,0.0547942608329695,0.99999999999833,0.0373771509004942
1699.99999999955,0.061332540777759,1.00000000000102,0.0414314308596051
1799.99999999946,0.0680913096426961,1.00000000000005,0.0452651027304423
1899.99999999937,0.075159559646775,0.999999999998789,0.0496860837195941
1999.99999999928,0.0816804068745726,1.00000000000132,0.0539542287045727
2099.99999999919,0.0890116542921631,0.999999999998716,0.0584342514445264
2199.99999999909,0.0968868867624321,1.00000000000055,0.0633646018401366
2299.999999999,0.104377226788839,1.00000000000051,0.0680588806612199
2399.99999999891,0.112083330621654,0.999999999998503,0.0732719599119944
2499.99999999882,0.119912512690684,1.00000000000119,0.078517894824909
2599.99999999873,0.128419023224328,0.999999999999198,0.0838769264183435
2699.99999999864,0.137138357272049,1.00000000000003,0.0898225995950522
2799.99999999855,0.145032946860975,1.00000000000079,0.0955728519924249
2899.99999999846,0.15305402383563,0.9999999999985,0.101810349270991
2999.99999999837,0.161701379367981,1.00000000000102,0.108327776330509
3099.99999999828,0.170850434507649,0.999999999999668,0.114956493021945
3199.99999999819,0.179778374473784,0.999999999999524,0.122315498442385
3299.99999999809,0.187914776672742,1.00000000000086,0.129658494496329
3399.999999998,0.196210179921118,0.999999999998906,0.137555592413687
3499.99999999791,0.205211575934394,1.00000000000112,0.146152388796387
3599.99999999782,0.214304649821277,1.00000000000079,0.155025199311552
3699.99999999773,0.222996374214294,1.00000000000054,0.164974437593184
3799.99999999764,0.230800979007507,1.00000000000391,0.175353531507464
3899.99999999755,0.239920429596846,1.00000000000552,0.186517052930561
3999.99999999746,0.248732661370734,1.00000000001163,0.198790815021866
4099.99999999738,0.257365993798019,1.0000000000197,0.211227482751601
4199.99999999775,0.268407133962739,1.00000000002811,0.224493741739764
4299.99999999811,0.275750550640342,1.00000000004406,0.237855466036071
4399.99999999848,0.292029994962034,1.00000000005917,0.251212764560265
4499.99999999884,0.310077666053865,1.00000000007865,0.264954480123785
4599.9999999992,0.330799402511112,1.00000000010077,0.277998270632962
4699.99999999957,0.3737839068293,1.00000000011989,0.290999184282176
4799.99999999993,0.418025585483758,1.00000000014882,0.303823000181412
4900.00000000029,0.496019614458627,1.0000000001717,0.316094206773326
5000.00000000066,0.605437780757053,1.00000000020321,0.328527976488095
5100.00000000102,0.738403800537262,1.00000000022273,0.340238918110531
5200.00000000139,0.944907882584056,1.00000000024241,0.351597292386269
5300.00000000175,1.19098821571087,1.00000000026887,0.362956387141153
5400.00000000211,1.51755385632316,1.0000000002962,0.373497071229968
5500.00000000248,1.94381284054991,1.00000000031885,0.384047276067371
5600.00000000284,2.44068317838152,1.00000000033066,0.394131852920858
5700.00000000321,3.08138000753792,1.00000000038363,0.40348549617571
5800.00000000357,3.83179108845279,1.00000000038861,0.413155159975821
5900.00000000393,4.71766365041624,1.00000000040849,0.42197305452745
6000.0000000043,5.78502109449933,1.0000000004357,0.430467490855902
6100.00000000466,6.98245312977629,1.00000000044939,0.438862278108924
6200.00000000502,8.38447607457072,1.00000000045588,0.446580197952567
6300.00000000539,9.97090472736432,1.00000000048881,0.454329150922173
6400.00000000575,11.7367144458261,1.00000000047366,0.461515626877243
6500.00000000612,13.7451385007682,1.0000000005339,0.468143550297657
6600.00000000648,15.9346609204383,1.0000000005248,0.475038014444276
6700.00000000684,18.359948532171,1.00000000053568,0.481122957410117
6800.00000000721,21.021629440172,1.00000000053252,0.487180229991517
6900.00000000757,23.8841446348584,1.00000000054947,0.492747478820579
7000.00000000793,27.0111363593092,1.00000000055449,0.498064409829892
7100.0000000083,30.3469935409519,1.00000000056185,0.503406965089374
7200.00000000866,33.9162589211201,1.00000000058214,0.508058418881585
7300.00000000903,37.7371134520529,1.00000000056188,0.512571742427719
7400.00000000939,41.7557309838407,1.00000000057915,0.516905236638509
7500.00000000975,46.0223173848653,1.00000000058597,0.520893037505872
7600.00000001012,50.4973458510379,1.00000000058241,0.524914484944001
7700.00000001048,55.1763527778873,1.00000000056611,0.528504422573343
7800.00000001084,60.0867846486023,1.00000000057494,0.53177191851779
7900.00000001121,65.1707139187846,1.00000000059251,0.535118639516985
8000.00000001157,70.4586338178027,1.00000000059468,0.537921041591399
8100.00000001194,75.9291166793997,1.00000000061091,0.540696971597084
8200.0000000123,81.5575145946862,1.0000000005802,0.543445363642324
8300.00000001266,87.3709732652862,1.00000000061194,0.545726370029903
8400.00000001303,93.318302146337,1.00000000057933,0.548285209049228
8500.00000001339,99.4119846990827,1.00000000059171,0.550224798855155
8600.00000001376,105.643545595313,1.00000000060356,0.5521627373241
8700.00000001412,111.97995311331,1.00000000057933,0.554063257156406
8800.00000001448,118.441041633184,1.00000000059863,0.55564851755333
8900.00000001485,124.988507650077,1.00000000060128,0.557385919163549
9000.00000001521,131.620767238089,1.00000000056905,0.558755649368909
9100.00000001557,138.336443253779,1.00000000059947,0.56004157412818
9200.00000001594,145.102632501387,1.00000000057474,0.561338590103195
9300.0000000163,151.930435169454,1.00000000055656,0.562421167261733
9400.00000001667,158.793649988411,1.00000000058679,0.563603367793343
9500.00000001703,165.684106303639,1.00000000054999,0.56435377334291
9600.00000001739,172.601763258491,1.00000000054804,0.565163562752772
9700.00000001776,179.519807191438,1.00000000056968,0.56593596289315
9800.00000001812,186.441158999057,1.00000000055821,0.566346858838399
9900.00000001848,193.349510121538,1.00000000053551,0.567318054459525
10000.0000000188,200.233478796696,1.00000000053056,0.567552715177869
10100.0000000192,207.09441521135,1.00000000053642,0.568164528795652
10200.0000000196,213.91045092225,1.00000000053098,0.568661626435479
10300.0000000199,220.681134879383,1.00000000052401,0.568672492669433
10400.0000000203,227.395219786638,1.00000000053159,0.569146983600058
10500.0000000207,234.043078447902,1.00000000053369,0.569262753578285
10600.000000021,240.626397594704,1.00000000050466,0.569446838921239
10700.0000000214,247.126641729947,1.00000000051151,0.569846312453321
10800.0000000218,253.543824967538,1.00000000050603,0.569939952443273
10900.0000000221,259.87054566592,1.00000000051171,0.569574889404843
11000.0000000225,266.096905296383,1.00000000050205,0.570212026567316
11100.0000000229,272.226858500185,1.00000000050238,0.569832463613196
11200.0000000232,278.244500669693,1.00000000049629,0.569433467932962
11300.0000000236,284.149855439949,1.0000000004885,0.570175173487339
11400.0000000239,289.939806816657,1.00000000047623,0.569337024164927
11500.0000000243,295.603948624077,1.00000000048093,0.569128989645321
11600.0000000247,301.14740372104,1.00000000047865,0.569735534374457
11700.000000025,306.559229798922,1.00000000046919,0.568485750729257
11800.0000000254,311.837087418216,1.00000000048289,0.568845420859192
11900.0000000258,316.983000569283,1.00000000046871,0.568755263868251
12000.0000000261,321.989273178422,1.0000000004488,0.567730478463558
12100.0000000265,326.855539934688,1.00000000044543,0.568388763877612
12200.0000000269,331.580268165054,1.00000000045034,0.567688374655418
12300.0000000272,336.16032059156,1.00000000044392,0.567010137801977
12400.0000000276,340.596550870912,1.00000000043938,0.567232749111314
12500.0000000279,344.886680902044,1.00000000044185,0.56651542743335
12600.0000000283,349.02929295386,1.00000000043153,0.5661735419432
12700.0000000287,353.022599515421,1.0000000004288,0.566422893981373
12800.000000029,356.869329919789,1.00000000041251,0.565413692941956
12900.0000000294,360.567480380585,1.00000000040807,0.565249803692021
13000.0000000298,364.117436004535,1.00000000041537,0.564830829476798
13100.0000000301,367.520118313062,1.00000000040556,0.564299995092683
13200.0000000305,370.77306561269,1.00000000041563,0.564223243252361
13300.0000000309,373.880833207256,1.00000000040658,0.563984947762518
13400.0000000312,376.843464760003,1.00000000039055,0.563016439402905
13500.0000000316,379.659544422463,1.00000000037227,0.562716631793994
13600.0000000319,382.332155861715,1.000000000382,0.563024319111979
13700.0000000323,384.861540205993,1.00000000037506,0.562864621810846
13800.0000000327,387.249926627074,1.00000000036948,0.561710186075244
13900.000000033,389.498846360631,1.00000000036463,0.561049477335173
14000.0000000334,391.60817765233,1.00000000036057,0.561077894138805
14100.0000000338,393.582242038372,1.00000000036317,0.561540428650017
14200.0000000341,395.420765361576,1.00000000036374,0.561722847497947
14300.0000000345,397.128987354073,1.00000000036061,0.560877989798389
14400.0000000349,398.707624948613,1.00000000035406,0.558893664871495
14500.0000000352,400.155219245355,1.00000000035015,0.557975789772065
14600.0000000356,401.475733679978,1.00000000034863,0.55996852923191
14700.0000000359,402.673111866656,1.00000000034952,0.562784926030749
14800.0000000363,403.755526425236,1.0000000003502,0.560992945303712
14900.0000000367,404.720319286495,1.00000000034009,0.556867905326471
15000.000000037,405.563362215749,1.00000000031697,0.554495908701903
15100.0000000374,406.288411683018,1.00000000031703,0.557097729019776
15200.0000000378,406.903639888826,1.00000000034277,0.563380438948919
15300.0000000381,407.420356830476,1.00000000033512,0.563005793188684
15400.0000000385,407.841848245367,1.0000000003498,0.560200071069232
15500.0000000389,408.158710304444,1.0000000003023,0.550852906187479
15600.0000000392,408.369220206801,1.00000000031259,0.55117597786832
15700.0000000396,408.475191628645,1.00000000030726,0.555686688910521
15800.0000000399,408.496176228753,1.00000000036169,0.565762277825368
15900.0000000403,408.444564098088,1.00000000034569,0.565367470602151
16000.0000000407,408.322678053691,1.00000000033831,0.55817567244233
16100.000000041,408.115070555419,1.00000000027751,0.544821194082801
16200.0000000414,407.810361859437,1.0000000002866,0.542850031826283
16300.0000000418,407.416019931615,1.00000000029449,0.552483108136542
16400.0000000418,406.956211879757,1.00000000035568,0.566728975117655
16500.0000000404,406.450399434069,1.00000000035978,0.569288591881122
16600.0000000389,405.902078386873,1.00000000034328,0.559450329081145
16700.0000000375,405.292660877333,1.00000000029117,0.542416278291748
16800.000000036,404.601116178824,1.00000000026164,0.532280047342247
16900.0000000346,403.826856648837,1.00000000026815,0.539118549499649
17000.0000000331,402.992637419217,1.00000000032618,0.559190114039572
17100.0000000317,402.129685175801,1.0000000003868,0.572246052469337
17200.0000000302,401.251091515853,1.00000000038653,0.569188514718254
17300.0000000287,400.345868263932,1.00000000033836,0.549992184248967
17400.0000000273,399.388181716046,1.00000000026315,0.528844115244089
17500.0000000258,398.358849526449,1.0000000002234,0.519088047239565
17600.0000000244,397.262723880959,1.00000000026757,0.531549134681983
17700.0000000229,396.126802531139,1.00000000034195,0.559302059275216
17800.0000000215,394.98369309633,1.00000000041824,0.575080404409451
17900.00000002,393.847328919013,1.00000000039774,0.570546312022755
18000.0000000186,392.703095992036,1.0000000003625,0.548136702473043
18100.0000000171,391.525684819149,1.00000000026931,0.521237009346874
18200.0000000156,390.290613137774,1.00000000021751,0.503971499376136
18300.0000000142,388.99645107535,1.00000000023937,0.511900983127551
18400.0000000127,387.665562782634,1.00000000032382,0.543556575718764
18500.0000000113,386.329894385327,1.00000000040421,0.57157831832041
18600.0000000098,385.012596239929,1.00000000045096,0.577747980756999
18700.0000000084,383.711949671558,1.0000000004069,0.562244788113834
18800.0000000069,382.406875702813,1.00000000032588,0.53261864777499
18900.0000000055,381.071041241998,1.00000000023563,0.501989389706205
19000.000000004,379.686051812856,1.00000000020272,0.489467194633009
19100.0000000026,378.257113321983,1.00000000024156,0.503948946335836
19200.0000000011,376.805239164791,1.00000000033348,0.540769604868371
19299.9999999996,375.359596859795,1.00000000042304,0.571423464164768
19399.9999999982,373.93977861703,1.00000000046762,0.579265605067722
19499.9999999967,372.545188753159,1.0000000004362,0.565345172558446
19599.9999999953,371.159502554639,1.00000000034881,0.535718485318773
19699.9999999938,369.758856862126,1.00000000025296,0.501746147834761
19799.9999999924,368.325767777422,1.00000000020949,0.481147919755611
19899.9999999909,366.856647582604,1.00000000021313,0.483193540284502
19999.9999999895,365.361930728078,1.00000000027514,0.511512100783628
20099.999999988,363.865223199765,1.00000000038587,0.550627454635431
20199.9999999865,362.387554218043,1.00000000045191,0.57500505252549
20299.9999999851,360.937852245639,1.00000000044983,0.575605675856763
20399.9999999836,359.513475311806,1.00000000043297,0.558607127647097
20499.9999999822,358.099377013369,1.00000000035493,0.529550384363539
20599.9999999807,356.678765823058,1.00000000027123,0.496192860857754
20699.9999999793,355.23737186062,1.00000000021713,0.475328423799071
20799.9999999778,353.771147913077,1.0000000002131,0.475556201266779
20899.9999999764,352.288232096313,1.00000000026311,0.496978468543921
20999.9999999749,350.80167921486,1.00000000036594,0.531356071900717
21099.9999999734,349.328130796532,1.00000000043994,0.560188311420789
21199.999999972,347.87781888823,1.00000000047211,0.571610297189157
21299.9999999705,346.452599744145,1.0000000004743,0.565970713796457
21399.9999999691,345.047829239478,1.00000000042427,0.54564835419345
21499.9999999676,343.651440746245,1.00000000034926,0.51741166692782
21599.9999999662,342.252033090347,1.00000000027587,0.489170580914152
21699.9999999647,340.8417734168,1.0000000002441,0.474398357026035
21799.9999999633,339.418646972894,1.00000000023472,0.47689020297784
21899.9999999618,337.988296595977,1.00000000026175,0.491429506087126
21999.9999999603,336.556813018751,1.00000000032978,0.514673486977504
22099.9999999589,335.134087736088,1.00000000039125,0.54133572626632
22199.9999999574,333.72810758566,1.00000000043802,0.557896545110862
22299.999999956,332.342021819515,1.00000000046315,0.561131735174102
22399.9999999545,330.974921151129,1.00000000043144,0.549375568068041
22499.9999999531,329.62198720596,1.00000000037527,0.530254481003405
22599.9999999516,328.275863872842,1.00000000032991,0.508593981644292
22699.9999999502,326.931348566207,1.00000000029099,0.491278869081809
22799.9999999487,325.584320336351,1.00000000025591,0.480842827577657
22899.9999999473,324.235457366735,1.00000000026136,0.480404347847196
22999.9999999458,322.885158155925,1.00000000027507,0.489125245764481
23099.9999999443,321.537266049427,1.00000000030352,0.503212650317729
23199.9999999429,320.196262069661,1.00000000034118,0.51964988639607
23299.9999999414,318.865889934035,1.0000000004009,0.536749198832774
23399.99999994,317.549134296404,1.0000000004108,0.544546014932533
23499.9999999385,316.247034433726,1.00000000041976,0.544006955147791
23599.9999999371,314.957864831116,1.0000000004028,0.535496860332622
23699.9999999356,313.679684978895,1.00000000038259,0.523571976486624
23799.9999999342,312.409569404507,1.00000000033358,0.510987987070669
23899.9999999327,311.145209287769,1.00000000031087,0.50007725135328
23999.9999999312,309.885477069201,1.00000000028491,0.493417344815442
24099.9999999298,308.629791592926,1.00000000027144,0.488637502976149
24199.9999999283,307.379089725088,1.00000000029022,0.490569465188439
24299.9999999269,306.133063211615,1.0000000002956,0.495052616402364
24399.9999999254,304.893713383362,1.00000000031378,0.502874276389541
24499.999999924,303.662230995911,1.00000000034076,0.51208357164369
24599.9999999225,302.439842252734,1.00000000037318,0.521162336863623
24699.9999999211,301.227717381622,1.00000000039384,0.527515387882552
24799.9999999196,300.02615546629,1.00000000039235,0.530040807872628
24899.9999999181,298.83430725608,1.00000000038258,0.529759723588082
24999.9999999167,297.652173676189,1.00000000036486,0.5242738541859
25099.9999999152,296.478474407044,1.00000000034153,0.517111257473645
25199.9999999138,295.313026822107,1.00000000033562,0.513441523932287
25299.9999999123,294.155457896703,1.00000000031804,0.510181286976453
25399.9999999109,293.006017931314,1.00000000031059,0.506799517726214
25499.9999999094,291.864882363193,1.0000000003017,0.502593908700988
25599.999999908,290.731695383359,1.00000000029813,0.498193889329475
25699.9999999065,289.607052674385,1.00000000029171,0.495054348069652
25799.9999999051,288.490294980524,1.00000000029204,0.494586708606138
25899.9999999036,287.382127272339,1.0000000003067,0.496899469188744
25999.9999999021,286.282914811048,1.00000000032712,0.503899824775247
26099.9999999007,285.192431713743,1.00000000035649,0.511942555555355
26199.9999998992,284.110343901782,1.00000000039379,0.51929676773762
26299.9999998978,283.036472552686,1.00000000038029,0.523913046826481
26399.9999998963,281.970178691072,1.00000000036665,0.526297074662999
26499.9999998949,280.912019570623,1.00000000034537,0.525082455375977
26599.9999998934,279.861963757693,1.00000000034234,0.519271919858152
26699.999999892,278.82030801623,1.00000000031708,0.516184036173185
26799.9999998905,277.787033875149,1.00000000034775,0.520300150149712
26899.999999889,276.762106352937,1.00000000033131,0.523771127131604
26999.9999998876,275.746052800425,1.00000000033756,0.520953524712437
27099.9999998861,274.73895862208,1.00000000031967,0.512939852178227
27199.9999998847,273.741947806571,1.00000000029997,0.503162978445731
27299.9999998832,272.755093040186,1.00000000026473,0.492346274622648
27399.9999998818,271.779251942214,1.00000000026916,0.483003036518954
27499.9999998803,270.81491995406,1.0000000002739,0.481935154340733
27599.9999998789,269.861287664434,1.00000000029917,0.488606080232615
27699.9999998774,268.917052413576,1.00000000032179,0.499104595116215
27799.9999998759,267.980823425978,1.0000000003781,0.509619498338607
27899.9999998745,267.050288939156,1.00000000039851,0.520346622907667
27999.999999873,266.124543853302,1.00000000040589,0.522323555563458
28099.9999998716,265.204279609992,1.00000000035488,0.522590470060237
28199.9999998701,264.2905631907,1.00000000033868,0.522661502881478
28299.9999998687,263.384894402569,1.00000000030176,0.518826135051305
28399.9999998672,262.48724564404,1.00000000031833,0.515848490528307
28499.9999998658,261.597096285971,1.00000000035339,0.522499910089746
28599.9999998643,260.713278390733,1.00000000037666,0.533385679597167
28699.9999998629,259.835289271374,1.00000000037183,0.535643109611277
28799.9999998614,258.963780123189,1.00000000036926,0.526954661341451
28899.9999998599,258.100398382358,1.00000000033888,0.514120333870007
