Time,AGPnorm,Energy,Entropy
0,0,1,-7.41593235633164e-17
99.9999999999986,0.00155916596242059,1.00000000000271,0.00476490409119818
199.999999999993,0.0100862974262684,1.00000000000515,0.0143295229285515
300,0.0210414939439637,1.00000000000344,0.0265681204353335
400.000000000022,0.0315702023939543,1.00000000000059,0.0416180697565359
500.000000000045,0.0451617760569121,1.00000000000095,0.0598260169626177
600.000000000068,0.0610806483963473,1.00000000000386,0.0814414658759366
700.000000000091,0.0774716188964282,1.00000000000486,0.106525476827807
800.000000000113,0.0929468510458166,1.00000000000235,0.135469265492479
900.000000000136,0.110672074182555,1.00000000000527,0.170784607154181
1000.00000000016,0.125860599776234,1.00000000004553,0.216156258412084
1100.0000000001,0.144375494832443,1.00000000019357,0.270557501075065
1200,0.186902365134322,1.0000000004886,0.32637881000401
1299.99999999991,0.276463567482994,1.00000000079274,0.376208092226857
1399.99999999982,0.470184358133541,1.00000000119829,0.419575876167583
1499.99999999973,0.883327086912892,1.00000000152266,0.455997932344563
1599.99999999964,1.62951215728805,1.00000000175522,0.487122322926669
1699.99999999955,2.76696585152294,1.00000000187071,0.512152021800426
1799.99999999946,4.31819166727379,1.0000000020209,0.532277286161891
1899.99999999937,6.2814374349376,1.00000000211118,0.548025625629263
1999.99999999928,8.63451590969779,1.00000000220467,0.561522017093291
2099.99999999919,11.3539074904337,1.00000000216623,0.571210893001282
2199.99999999909,14.3695848840577,1.00000000222238,0.577963043317767
2299.999999999,17.5757984476002,1.0000000021063,0.582616916652879
2399.99999999891,20.8749753536237,1.00000000201702,0.586766023268071
2499.99999999882,24.2111680184914,1.00000000194882,0.588963699400017
2599.99999999873,27.5415493255312,1.00000000193842,0.588969172493434
2699.99999999864,30.7832957360867,1.00000000185763,0.588102076453258
2799.99999999855,33.8594771372623,1.00000000179844,0.587676159435924
2899.99999999846,36.728613979199,1.00000000178754,0.587058795249147
2999.99999999837,39.3805757699517,1.0000000017014,0.583981525877568
3099.99999999828,41.8011476416113,1.00000000155755,0.580440136724031
3199.99999999819,43.9562422459725,1.00000000149954,0.578934613610055
3299.99999999809,45.8259140019296,1.00000000158868,0.578576070982293
3399.999999998,47.4139489862041,1.00000000152307,0.5760655681853
3499.99999999791,48.7405206603264,1.00000000140571,0.572040745465712
3599.99999999782,49.810113984137,1.00000000134522,0.574653639115593
3699.99999999773,50.6215977423472,1.00000000132737,0.567460970347955
3799.99999999764,51.1974851408114,1.0000000013093,0.572020305884301
3899.99999999755,51.5426758165864,1.00000000121036,0.566403655421277
3999.99999999746,51.7090481963392,1.0000000012547,0.570343430619574
4099.99999999738,51.6936805762865,1.00000000108506,0.555837977606919
4199.99999999775,51.5365564181672,1.00000000128905,0.576680475718551
4299.99999999811,51.2551018451961,1.00000000107573,0.543746230576681
4399.99999999848,50.8509236890532,1.0000000014113,0.576995812520344
4499.99999999884,50.403253303228,1.00000000116305,0.55130819953795
4599.9999999992,49.8482487736292,1.00000000104553,0.531799547217961
4699.99999999957,49.2670075219658,1.00000000147073,0.579390737564546
4799.99999999993,48.6591064627677,1.0000000009471,0.518534245547028
4900.00000000029,47.9776525617571,1.00000000122683,0.53733462229853
5000.00000000066,47.3145856688387,1.00000000162272,0.575557245314141
5100.00000000102,46.6495761174407,1.0000000009525,0.505282242103927
5200.00000000139,45.9355022546802,1.00000000112508,0.511484687577364
5300.00000000175,45.2349258849143,1.000000001667,0.578964476764946
5400.00000000211,44.5624998547675,1.00000000120187,0.512404358140657
5500.00000000248,43.8693698863306,1.00000000095885,0.482706159342299
5600.00000000284,43.1677840753907,1.00000000146138,0.530069066439432
5700.00000000321,42.4967353930928,1.0000000016537,0.561283865533027
5800.00000000357,41.8451692723198,1.00000000110426,0.488905576273837
5900.00000000393,41.1890648380493,1.00000000101572,0.484312412075102
6000.0000000043,40.5358702127479,1.0000000012933,0.514655740082878
6100.00000000466,39.9043598504919,1.00000000170185,0.549110126568765
6200.00000000502,39.2953906042487,1.00000000137237,0.514213077725166
6300.00000000539,38.6978977602332,1.0000000010622,0.480505177619855
6400.00000000575,38.1099461525832,1.00000000122434,0.507747283696858
6500.00000000612,37.5344722458596,1.0000000012522,0.51395450807874
6600.00000000648,36.975703731004,1.00000000148054,0.534059113081345
6700.00000000684,36.4335037010812,1.00000000141503,0.520985870721827
6800.00000000721,35.9084717029532,1.00000000100862,0.484037641045209
6900.00000000757,35.401056264642,1.00000000120067,0.509523559914324
7000.00000000793,34.9078090361265,1.00000000130869,0.529014240517046
7100.0000000083,34.4307059857596,1.00000000117375,0.506015869065509
7200.00000000866,33.968100165645,1.00000000146948,0.530097924185385
7300.00000000903,33.5162792031202,1.00000000144725,0.523185859637549
7400.00000000939,33.0818959596137,1.00000000109293,0.49403478677956
7500.00000000975,32.6693644638002,1.00000000111843,0.502415285438874
7600.00000001012,32.26948244747,1.00000000148597,0.527416518501524
7700.00000001048,31.880327623366,1.00000000118383,0.524304669753096
7800.00000001084,31.5108682153528,1.00000000103948,0.489316815316889
7900.00000001121,31.1547631671116,1.00000000145424,0.521526241617428
8000.00000001157,30.8025866130367,1.00000000151407,0.529446639760493
8100.00000001194,30.4608144271829,1.00000000118515,0.508871474935068
8200.0000000123,30.1407108708126,1.00000000110489,0.497150597833763
8300.00000001266,29.8377576431004,1.00000000132015,0.515727199971895
8400.00000001303,29.5382458706969,1.00000000141656,0.525561136235363
8500.00000001339,29.2446105500662,1.00000000127663,0.52491829620165
8600.00000001376,28.9699728283739,1.00000000110648,0.504749272953898
8700.00000001412,28.7098494266506,1.00000000127564,0.508779037058785
8800.00000001448,28.4548468341495,1.00000000145208,0.537264764563289
8900.00000001485,28.2009656055608,1.00000000145454,0.533837457327362
9000.00000001521,27.9558646369097,1.00000000117719,0.51224706466087
9100.00000001557,27.7306034680378,1.00000000122093,0.510685661518997
9200.00000001594,27.5176778793915,1.00000000134831,0.526514099140671
9300.0000000163,27.3123105526002,1.00000000141209,0.529633520254643
9400.00000001667,27.111079045837,1.00000000132073,0.521336690434041
9500.00000001703,26.9145192877048,1.0000000013449,0.525755801465671
9600.00000001739,26.7244530450392,1.0000000013048,0.538223282512955
9700.00000001776,26.5431727705371,1.00000000128212,0.528873602212381
9800.00000001812,26.3700907444879,1.00000000123834,0.52904322704956
9900.00000001848,26.2027694551977,1.00000000136286,0.543646973995279
10000.0000000188,26.0380843449825,1.00000000140651,0.538674733608991
10100.0000000192,25.8791868738429,1.00000000121601,0.531228833242515
10200.0000000196,25.7350303596874,1.00000000114177,0.521057507725288
10300.0000000199,25.6053479528581,1.00000000123619,0.523820916380145
10400.0000000203,25.4755927857274,1.00000000146072,0.542615002438888
10500.0000000207,25.3469829678053,1.00000000131109,0.531941433363103
10600.000000021,25.232963956345,1.00000000114314,0.520097948190695
10700.0000000214,25.1279200560765,1.00000000119474,0.527960863545176
10800.0000000218,25.0203118933457,1.00000000139874,0.538397821545423
10900.0000000221,24.9048067770806,1.00000000149343,0.557830605250477
11000.0000000225,24.7863600157364,1.00000000126075,0.560799846727143
11100.0000000229,24.6727659489736,1.00000000119203,0.54700586494767
11200.0000000232,24.5653733889508,1.000000001288,0.547382054442425
11300.0000000236,24.4631756354269,1.00000000145588,0.552398383403912
11400.0000000239,24.3640660582993,1.00000000143372,0.547429095689929
11500.0000000243,24.2690371423204,1.00000000137832,0.539142537476216
11600.0000000247,24.1836280746335,1.00000000120164,0.537812253450771
11700.000000025,24.1106999622146,1.00000000120757,0.537279337132371
11800.0000000254,24.0446033636348,1.00000000122484,0.540470618764302
11900.0000000258,23.9799065527749,1.00000000138243,0.54551418596279
12000.0000000261,23.9124612257911,1.00000000131958,0.5474484279569
12100.0000000265,23.8498686588322,1.00000000126462,0.53857242727486
12200.0000000269,23.7979797848573,1.00000000118343,0.53143780015075
12300.0000000272,23.754103498464,1.00000000126203,0.546575774680623
12400.0000000276,23.7097583859405,1.00000000132627,0.559802509139596
12500.0000000279,23.6614677143098,1.00000000133271,0.551599182785969
12600.0000000283,23.6062908557612,1.00000000139943,0.564872190992016
12700.0000000287,23.5434318933375,1.00000000140114,0.566875096568979
12800.000000029,23.4739838572324,1.00000000137107,0.578325830420396
12900.0000000294,23.4005582956143,1.00000000139859,0.581418480878723
13000.0000000298,23.3284960794831,1.00000000120663,0.573426799844335
13100.0000000301,23.2629452089623,1.00000000120441,0.559759593847568
13200.0000000305,23.204259819423,1.00000000137349,0.560127705584799
13300.0000000309,23.151400407545,1.00000000138881,0.550976641596031
13400.0000000312,23.1028280969423,1.0000000013071,0.545747015517858
13500.0000000316,23.0611237899872,1.00000000130451,0.55159466213287
13600.0000000319,23.0288620574648,1.00000000129672,0.554873363736217
13700.0000000323,23.0048374731146,1.00000000128764,0.554936417148571
13800.0000000327,22.9828639416707,1.00000000141765,0.559132896044889
13900.000000033,22.9576749025899,1.00000000132389,0.558270788032496
14000.0000000334,22.9362354345912,1.00000000134265,0.554675856085218
14100.0000000338,22.9208053693945,1.00000000130753,0.543076079522547
14200.0000000341,22.9086004770745,1.00000000128489,0.544158561103809
14300.0000000345,22.8980216135609,1.00000000135971,0.555885866442527
14400.0000000349,22.8904421158505,1.00000000132356,0.567859202613798
14500.0000000352,22.8848080415453,1.00000000134008,0.575578574656049
14600.0000000356,22.8764985704464,1.00000000144556,0.585326910488323
14700.0000000359,22.8632096964896,1.00000000142225,0.593434237977726
14800.0000000363,22.8456982874904,1.00000000133395,0.596469828384886
14900.0000000367,22.8257888240337,1.00000000126951,0.592284483901227
15000.000000037,22.8032724853448,1.00000000138186,0.592879222292213
15100.0000000374,22.7767699975753,1.00000000138209,0.590509651202399
15200.0000000378,22.7409943419066,1.00000000149098,0.596492243058122
15300.0000000381,22.6967901469586,1.00000000143656,0.597755819131748
15400.0000000385,22.6449447401052,1.0000000014345,0.600917179324036
15500.0000000389,22.5908732480841,1.00000000139345,0.605151592467893
15600.0000000392,22.5389110584561,1.00000000132165,0.600001966206481
15700.0000000396,22.492363604352,1.00000000128614,0.590127413451879
15800.0000000399,22.4531352845937,1.0000000013468,0.585967113756446
15900.0000000403,22.4193650056156,1.00000000146012,0.582085897494001
16000.0000000407,22.3912301691484,1.00000000137934,0.577456072144146
16100.000000041,22.36976437154,1.000000001283,0.572467223834053
16200.0000000414,22.3540574890355,1.00000000130561,0.569375107334767
16300.0000000418,22.3469802422749,1.00000000133312,0.576230624849388
16400.0000000418,22.3476558271891,1.00000000135877,0.578959296558395
16500.0000000404,22.3516074477099,1.00000000139278,0.577545553242861
16600.0000000389,22.3550896942198,1.00000000133601,0.575147013122441
16700.0000000375,22.3583737400563,1.00000000133257,0.572119776164894
16800.000000036,22.363167292483,1.00000000137788,0.561871430671533
16900.0000000346,22.3718173403177,1.00000000132658,0.565032057165721
17000.0000000331,22.3848126885081,1.00000000128647,0.57028634955081
17100.0000000317,22.40188602136,1.00000000133601,0.578033855415348
17200.0000000302,22.4203987862182,1.00000000137896,0.580050120072311
17300.0000000287,22.4363871058713,1.00000000143677,0.583728472377227
17400.0000000273,22.45144213768,1.0000000014992,0.577505927474314
17500.0000000258,22.4645427841099,1.00000000143705,0.576189654853647
17600.0000000244,22.4784127986764,1.00000000139159,0.592307610450917
17700.0000000229,22.4916475176404,1.0000000014765,0.604552152309643
17800.0000000215,22.5030392336818,1.00000000144887,0.606813880048081
17900.00000002,22.5108996019037,1.00000000149193,0.614868847920641
18000.0000000186,22.514515734647,1.00000000145074,0.613795796702758
18100.0000000171,22.5121997094886,1.0000000015372,0.613406693418999
18200.0000000156,22.5050877726506,1.00000000138342,0.613830166536786
18300.0000000142,22.497619478586,1.00000000139428,0.624085226539845
18400.0000000127,22.4876361268136,1.00000000141213,0.630070694158486
18500.0000000113,22.4733471074879,1.00000000146364,0.632516607490599
18600.0000000098,22.4560118934923,1.00000000145452,0.62903167858073
18700.0000000084,22.4352058036942,1.00000000140574,0.624620204269656
18800.0000000069,22.411180883595,1.00000000142319,0.624676598198869
18900.0000000055,22.3822384777294,1.00000000145622,0.624963871065079
19000.000000004,22.3466722032306,1.00000000158743,0.620766652666975
19100.0000000026,22.3051145530363,1.00000000151096,0.626213716483477
19200.0000000011,22.2580595755193,1.00000000155184,0.621208471178702
19299.9999999996,22.2092407648982,1.00000000142935,0.624193837947553
19399.9999999982,22.1617721066386,1.00000000137172,0.623431201367605
19499.9999999967,22.1171816789913,1.00000000133008,0.617767086280689
19599.9999999953,22.0776604176805,1.0000000013984,0.616261680483192
19699.9999999938,22.0443126101733,1.00000000137107,0.611781475315868
19799.9999999924,22.0156238154804,1.00000000142199,0.607007681526732
19899.9999999909,21.9912179173934,1.0000000014298,0.609646870049139
19999.9999999895,21.9722253196674,1.00000000143349,0.603969036088361
20099.999999988,21.9585868402363,1.0000000013797,0.585372756849751
20199.9999999865,21.9518670085295,1.00000000141177,0.577617952630953
20299.9999999851,21.9522109139955,1.00000000149995,0.579926100343973
20399.9999999836,21.9589122326361,1.00000000139907,0.581044542066879
20499.9999999822,21.9719275342953,1.00000000148181,0.587826743508783
20599.9999999807,21.987369568012,1.00000000143648,0.598417409828761
20699.9999999793,22.0047007764627,1.00000000150187,0.594720925098244
20799.9999999778,22.0230743060537,1.000000001492,0.590697077208224
20899.9999999764,22.0418141352506,1.00000000146906,0.588439412850817
20999.9999999749,22.0610093562293,1.00000000145785,0.581038622042661
21099.9999999734,22.0831497228061,1.00000000145249,0.575971439158778
21199.999999972,22.1112641793906,1.00000000135081,0.575849026590628
21299.9999999705,22.142882061443,1.00000000151227,0.58078901230521
21399.9999999691,22.1739426241582,1.00000000162259,0.584759964611302
21499.9999999676,22.2035488485569,1.00000000153136,0.588975393774832
21599.9999999662,22.2351837149893,1.00000000145188,0.589184206817317
21699.9999999647,22.2675227314144,1.00000000151869,0.59117360311489
21799.9999999633,22.2981372636978,1.00000000157788,0.595561983750066
21899.9999999618,22.3235611813362,1.00000000157573,0.601410180671763
21999.9999999603,22.3453669762308,1.00000000149636,0.607101011329086
22099.9999999589,22.3656980306652,1.00000000145151,0.615310171775827
22199.9999999574,22.3851827785226,1.00000000151143,0.630453417083578
22299.999999956,22.4021059004854,1.0000000016203,0.631731998812092
22399.9999999545,22.4157631301655,1.00000000167742,0.63037608374127
22499.9999999531,22.425418557225,1.00000000158606,0.631230864662545
22599.9999999516,22.4342689179731,1.00000000152947,0.631850371004354
22699.9999999502,22.4447993440677,1.00000000153526,0.632959368063083
22799.9999999487,22.4571103141338,1.00000000155857,0.633463048285964
22899.9999999473,22.4708274542326,1.00000000140767,0.635511749858591
22999.9999999458,22.4835472465485,1.00000000157437,0.63483099607956
23099.9999999443,22.491893886319,1.00000000166893,0.633575426688889
23199.9999999429,22.4956891511864,1.00000000158401,0.637619510259433
23299.9999999414,22.4974751578276,1.00000000158378,0.641735738868912
23399.99999994,22.4963467472415,1.00000000155835,0.639357799935933
23499.9999999385,22.4922431223341,1.00000000155283,0.641265931404614
23599.9999999371,22.4865658081772,1.00000000153036,0.642083205924548
23699.9999999356,22.4812878379356,1.00000000148256,0.642337216084372
23799.9999999342,22.4770544982131,1.00000000149307,0.634466449686178
23899.9999999327,22.4730882661158,1.00000000154441,0.637287375985507
23999.9999999312,22.4676904239633,1.00000000162178,0.640169035529174
24099.9999999298,22.4592802305921,1.00000000160821,0.637107289698453
24199.9999999283,22.446473962401,1.00000000150186,0.634688014027455
24299.9999999269,22.4310868579783,1.00000000160142,0.636147088438469
24399.9999999254,22.4158151140807,1.00000000155606,0.642719642262625
24499.999999924,22.3971710778862,1.00000000153372,0.642740074874716
24599.9999999225,22.3772241670903,1.00000000147631,0.641708745971403
24699.9999999211,22.3563045571901,1.00000000151829,0.647545566430893
24799.9999999196,22.3331836197531,1.00000000160893,0.648535791762542
24899.9999999181,22.3084481068448,1.00000000142828,0.636804140850635
24999.9999999167,22.282335338189,1.00000000157245,0.639694934163403
25099.9999999152,22.2534935734161,1.00000000161852,0.641082865888285
25199.9999999138,22.2218660599791,1.00000000163639,0.638702876400205
25299.9999999123,22.1873773948131,1.00000000164575,0.639317464841222
25399.9999999109,22.150858184799,1.00000000165247,0.652053877288846
25499.9999999094,22.1118898519753,1.00000000161892,0.64596927899007
25599.999999908,22.0711591099526,1.00000000156899,0.645612287792623
25699.9999999065,22.0289142197216,1.00000000156116,0.643563383895298
25799.9999999051,21.9862175265044,1.00000000159467,0.64632987529361
25899.9999999036,21.9438816360631,1.00000000151334,0.644825685550643
25999.9999999021,21.9036769945997,1.00000000147098,0.632143519759883
26099.9999999007,21.8665452102785,1.00000000147875,0.628811715396813
26199.9999998992,21.8340810553469,1.00000000158702,0.621436109793488
26299.9999998978,21.8060788116749,1.00000000155334,0.615136996156282
26399.9999998963,21.782269553856,1.00000000157388,0.615061833085004
26499.9999998949,21.7613473876691,1.00000000167919,0.617149706570636
26599.9999998934,21.7438407483417,1.00000000166149,0.623145311943743
26699.999999892,21.7316722810036,1.00000000154452,0.6187862857844
26799.9999998905,21.7248735583132,1.00000000150461,0.616084266579907
26899.999999889,21.7230497982641,1.00000000155814,0.61227134650636
26999.9999998876,21.7286285616817,1.00000000155668,0.60653725328075
27099.9999998861,21.7404183188804,1.00000000155774,0.602001748557797
27199.9999998847,21.7562369453873,1.00000000160444,0.607800026819433
27299.9999998832,21.7779312068438,1.00000000147519,0.601606215785052
27399.9999998818,21.8017791588445,1.00000000169715,0.60715734713161
27499.9999998803,21.8274148886702,1.0000000015623,0.600153920815792
27599.9999998789,21.8564917348671,1.00000000157838,0.599292393662183
27699.9999998774,21.8856378384543,1.00000000157436,0.592057446638024
27799.9999998759,21.9152436481414,1.00000000159908,0.595582285017617
27899.9999998745,21.9475111660946,1.0000000015186,0.594182356123765
27999.999999873,21.9805708353879,1.00000000170568,0.600758530137536
28099.9999998716,22.0151569864678,1.00000000165072,0.598212237196624
28199.9999998701,22.0524538157653,1.00000000159939,0.5907368128233
28299.9999998687,22.0934526216157,1.00000000160865,0.594325013986097
28399.9999998672,22.138381256562,1.00000000158301,0.594986164620018
28499.9999998658,22.1829753183639,1.0000000015994,0.597171326846554
28599.9999998643,22.2295129962359,1.00000000159875,0.602591614053535
28699.9999998629,22.2781215254721,1.00000000169622,0.607450249698291
28799.9999998614,22.324300954536,1.00000000156493,0.608585094229894
28899.9999998599,22.3701656363931,1.00000000167153,0.61732767246701
28999.9999998585,22.4146015273819,1.00000000171273,0.609801661242233
