Time,AGPnorm,Energy,Entropy
0,0,1,-1.37346911351064e-17
99.9999999999986,1.51268596071484e-05,1.0000000000007,0.000692429042301682
199.999999999993,0.00132397578359616,0.99999999999941,0.0011074103498734
300,0.0033615037499241,1.00000000000073,0.00195633626019457
400.000000000022,0.0047247357372308,1.00000000000001,0.00333743527128881
500.000000000045,0.00566841243931268,0.999999999999734,0.00452669055123797
600.000000000068,0.00806269476595119,1.00000000000087,0.00631984751450947
700.000000000091,0.010152086321852,0.999999999999423,0.00809882175965025
800.000000000113,0.0131311481356094,1.00000000000058,0.010002728818511
900.000000000136,0.0162211484921006,1.00000000000024,0.0122978376030931
1000.00000000016,0.0187098594344129,0.999999999999477,0.0145113177181632
1100.0000000001,0.0226222916645624,1.000000000001,0.0170312646520386
1200,0.0269122286438,0.999999999999548,0.0196498737855383
1299.99999999991,0.0310746625433838,1.0000000000003,0.0223402704893963
1399.99999999982,0.0353025824561339,1.00000000000046,0.0253057267739309
1499.99999999973,0.0395503163226492,0.999999999999322,0.0282722643271765
1599.99999999964,0.044948064430004,1.00000000000108,0.0314302456293495
1699.99999999955,0.0506088691280039,0.999999999999726,0.0347386684548537
1799.99999999946,0.0557159605586448,0.999999999999924,0.038114213750455
1899.99999999937,0.0611664603825222,1.0000000000007,0.041670817433557
1999.99999999928,0.0672000740062628,0.999999999999324,0.0453075303734379
2099.99999999919,0.0737195591307228,1.00000000000102,0.0491156238782268
2199.99999999909,0.0800497909160778,0.999999999999904,0.0530701795474624
2299.999999999,0.0859413303155625,0.999999999999548,0.0571112506839651
2399.99999999891,0.0925818415991278,1.00000000000097,0.061297109377849
2499.99999999882,0.100075712831285,0.99999999999943,0.065639279250735
2599.99999999873,0.107254785614382,1.00000000000074,0.0701625095342032
2699.99999999864,0.113936484237,1.00000000000008,0.0748019510596896
2799.99999999855,0.120638385426305,0.999999999999329,0.0795805542084081
2899.99999999846,0.128236882068884,1.00000000000122,0.0845461882005427
2999.99999999837,0.136469960911401,0.999999999999555,0.0897294699059106
3099.99999999828,0.143855157632167,1.00000000000028,0.0951055761457359
3199.99999999819,0.150872899201702,1.00000000000031,0.100610311589957
3299.99999999809,0.158449374699216,0.999999999999327,0.10635171338456
3399.999999998,0.166627004563937,1.00000000000137,0.112388456246257
3499.99999999791,0.174791399853258,0.999999999999725,0.118699143647269
3599.99999999782,0.182081909818023,0.999999999999803,0.12527693874925
3699.99999999773,0.189474732597133,1.00000000000068,0.132109457787054
3799.99999999764,0.197731028531883,0.999999999999574,0.139389756053134
3899.99999999755,0.206060456654517,1.00000000000152,0.147150382927729
3999.99999999746,0.213681483612947,1.00000000000047,0.155346421756248
4099.99999999738,0.220806165783729,1.00000000000068,0.164044858781039
4199.99999999775,0.228775007517967,1.00000000000336,0.17333374174281
4299.99999999811,0.236900666650023,1.00000000000379,0.183362342152247
4399.99999999848,0.245426621123219,1.00000000000818,0.194011035171601
4499.99999999884,0.252854782526267,1.00000000001223,0.205108859542797
4599.9999999992,0.260117773236381,1.00000000001863,0.216611127336801
4699.99999999957,0.271639470833428,1.00000000002879,0.22850669105456
4799.99999999993,0.28108424332777,1.00000000003768,0.240646473637779
4900.00000000029,0.295840465527489,1.00000000005353,0.25280465812689
5000.00000000066,0.314950683617547,1.00000000006541,0.264762809979203
5100.00000000102,0.337559281590353,1.0000000000825,0.276625558433525
5200.00000000139,0.37917432750256,1.00000000010263,0.288379885475863
5300.00000000175,0.427957083123188,1.00000000011339,0.299916248192406
5400.00000000211,0.500242850055325,1.00000000013925,0.311115727626027
5500.00000000248,0.603805639263714,1.00000000014929,0.322010394530854
5600.00000000284,0.733439262535497,1.00000000017273,0.332762395730897
5700.00000000321,0.917474505251654,1.00000000019649,0.343251504844262
5800.00000000357,1.1481864703657,1.00000000021371,0.353318688414301
5900.00000000393,1.44238045940782,1.00000000022257,0.363186249994352
6000.0000000043,1.81974078106609,1.00000000025857,0.37257139367409
6100.00000000466,2.27372377952994,1.00000000025708,0.382023099689988
6200.00000000502,2.83510528522055,1.00000000027141,0.391089906179008
6300.00000000539,3.50712772336981,1.00000000028714,0.399537362499393
6400.00000000575,4.29898561202105,1.00000000031597,0.407892122941559
6500.00000000612,5.23443772999257,1.00000000032986,0.415958937773244
6600.00000000648,6.31327859164143,1.00000000035147,0.423734952963008
6700.00000000684,7.55541529283173,1.00000000035183,0.431272905008792
6800.00000000721,8.97198800540503,1.00000000039271,0.438170768714278
6900.00000000757,10.5662791926616,1.00000000038137,0.445352323611692
7000.00000000793,12.3536568862814,1.00000000040851,0.451997479597426
7100.0000000083,14.3443854095047,1.00000000039766,0.458305805310646
7200.00000000866,16.5422803528936,1.00000000042027,0.464377557002209
7300.00000000903,18.9560539044952,1.00000000041233,0.47022063241758
7400.00000000939,21.592596285345,1.00000000042383,0.475971381795527
7500.00000000975,24.4493052501519,1.00000000045924,0.481237614949054
7600.00000001012,27.5435252544786,1.00000000043891,0.486203588943334
7700.00000001048,30.8689582949026,1.00000000045594,0.491165544717635
7800.00000001084,34.4212439561258,1.00000000045839,0.495947256094325
7900.00000001121,38.21817645962,1.00000000045138,0.500237335078504
8000.00000001157,42.238935155099,1.00000000045942,0.504482775884222
8100.00000001194,46.4980828008388,1.00000000045359,0.508396240032782
8200.0000000123,50.9908170641642,1.00000000047117,0.51232418666308
8300.00000001266,55.6945260448476,1.00000000048701,0.515944844546309
8400.00000001303,60.6375245863945,1.00000000047194,0.5191828151441
8500.00000001339,65.7880535472315,1.00000000048274,0.522473088082539
8600.00000001376,71.1478950165192,1.00000000046543,0.525626912592393
8700.00000001412,76.7244186658523,1.00000000048586,0.528398042728778
8800.00000001448,82.4773008975917,1.00000000048186,0.531304763204104
8900.00000001485,88.4385471542321,1.00000000047627,0.533677332680488
9000.00000001521,94.5774423185155,1.00000000049391,0.536108938023138
9100.00000001557,100.877423055735,1.00000000048782,0.538455228874598
9200.00000001594,107.361178602259,1.00000000048177,0.540426298984076
9300.0000000163,113.976895878036,1.0000000004955,0.542549927845657
9400.00000001667,120.751050964135,1.00000000046928,0.544393697399061
9500.00000001703,127.664514943431,1.00000000047294,0.546170966255016
9600.00000001739,134.682558422528,1.00000000047932,0.547949146228247
9700.00000001776,141.838837910608,1.00000000046035,0.549340434445149
9800.00000001812,149.081168112383,1.00000000047338,0.550728218532825
9900.00000001848,156.421356349344,1.0000000004836,0.552058022364264
10000.0000000188,163.858691656053,1.00000000048542,0.553184586493653
10100.0000000192,171.34357110604,1.00000000047239,0.554570948610705
10200.0000000196,178.914301647215,1.00000000048302,0.555427369364882
10300.0000000199,186.527693880532,1.00000000046336,0.556387116033087
10400.0000000203,194.177315979789,1.00000000047549,0.557278331484192
10500.0000000207,201.879635672883,1.00000000046973,0.558090987012661
10600.000000021,209.578882122091,1.0000000004635,0.558686768080273
10700.0000000214,217.309828605618,1.00000000045643,0.559486120679539
10800.0000000218,225.043387101105,1.0000000004396,0.559967529370459
10900.0000000221,232.75811587611,1.0000000004564,0.560547087747838
11000.0000000225,240.480481798532,1.00000000044806,0.56125016341935
11100.0000000229,248.158452812117,1.00000000044374,0.561400027489007
11200.0000000232,255.8159777536,1.00000000043059,0.561972090128649
11300.0000000236,263.441253080963,1.00000000043152,0.562247878912311
11400.0000000239,271.001081287855,1.00000000044705,0.562322389687573
11500.0000000243,278.526647487809,1.00000000042765,0.562728457551943
11600.0000000247,285.975596859624,1.0000000004247,0.562822326155822
11700.000000025,293.358835100773,1.00000000042338,0.562617833944037
11800.0000000254,300.678316248936,1.0000000004229,0.563017376101606
11900.0000000258,307.897124869398,1.00000000042182,0.563024708079892
12000.0000000261,315.045127208437,1.00000000040857,0.562772123185175
12100.0000000265,322.090347868755,1.00000000041402,0.563035740996456
12200.0000000269,329.035442931919,1.00000000041154,0.56297872215365
12300.0000000272,335.890365733837,1.00000000039689,0.562879115815836
12400.0000000276,342.618672442966,1.00000000040033,0.562861381015435
12500.0000000279,349.247141979209,1.00000000039725,0.562314207592981
12600.0000000283,355.755162402492,1.00000000039525,0.562411273343901
12700.0000000287,362.135912648432,1.0000000003897,0.562446964394633
12800.000000029,368.406328826866,1.00000000038252,0.561767838032815
12900.0000000294,374.532931218434,1.00000000039793,0.562002790043225
13000.0000000298,380.537986284271,1.0000000003793,0.561447988485633
13100.0000000301,386.410437817397,1.00000000037225,0.561298680352288
13200.0000000305,392.137254802878,1.00000000037821,0.561423766400799
13300.0000000309,397.739763891923,1.00000000036395,0.560469891515689
13400.0000000312,403.187635727684,1.00000000036779,0.560500006909762
13500.0000000316,408.499527891528,1.00000000036786,0.560571031093814
13600.0000000319,413.672800106073,1.0000000003642,0.559600890228828
13700.0000000323,418.688286495303,1.00000000035258,0.559683645338925
13800.0000000327,423.569962620784,1.00000000035999,0.559491602347249
13900.000000033,428.296491822098,1.00000000034873,0.558715421504539
14000.0000000334,432.875975480645,1.00000000034426,0.558409579397733
14100.0000000338,437.313940295356,1.00000000034714,0.558295570162139
14200.0000000341,441.593076524379,1.0000000003407,0.558228564564006
14300.0000000345,445.731973352641,1.00000000034055,0.55745135882074
14400.0000000349,449.717373483054,1.00000000033348,0.557330075899596
14500.0000000352,453.553742120333,1.00000000032344,0.55685686203629
14600.0000000356,457.249856954028,1.00000000031737,0.556259380198518
14700.0000000359,460.787342251056,1.00000000031903,0.556520985333927
14800.0000000363,464.185743462268,1.00000000032014,0.556430646845216
14900.0000000367,467.436207195505,1.00000000031716,0.55560483385819
15000.000000037,470.538016704844,1.000000000318,0.555143662110555
15100.0000000374,473.503366276132,1.00000000029436,0.554361194079754
15200.0000000378,476.316395769169,1.00000000030666,0.554565138227035
15300.0000000381,478.992576955557,1.00000000031089,0.554698068232539
15400.0000000385,481.528991758025,1.00000000030489,0.554745535646935
15500.0000000389,483.923658030049,1.00000000030459,0.55479523735298
15600.0000000392,486.187748382687,1.00000000029101,0.551856371374832
15700.0000000396,488.308903201262,1.00000000030477,0.552328893905085
15800.0000000399,490.296929205534,1.00000000028168,0.551955680948418
15900.0000000403,492.157680227628,1.00000000029953,0.554926747196217
16000.0000000407,493.884484842153,1.00000000028229,0.55440195514235
16100.000000041,495.493804495467,1.0000000002952,0.553470556868001
16200.0000000414,496.970917281286,1.00000000027308,0.54979506619042
16300.0000000418,498.323899705598,1.00000000027445,0.548508089464787
16400.0000000418,499.553214746392,1.00000000027744,0.549125636244067
16500.0000000404,500.656771069217,1.00000000028329,0.553636299669282
16600.0000000389,501.653433090443,1.00000000028459,0.556430543825836
16700.0000000375,502.540439573884,1.00000000027654,0.555013589745883
16800.000000036,503.31997653411,1.00000000027429,0.549051990815562
16900.0000000346,503.986993060608,1.00000000025342,0.543109479522253
17000.0000000331,504.530852294741,1.00000000025289,0.543839953810904
17100.0000000317,504.966928494826,1.00000000026109,0.550024041521117
17200.0000000302,505.303924096796,1.00000000027452,0.557611833863524
17300.0000000287,505.556255573866,1.00000000028044,0.559033901629802
17400.0000000273,505.730511579036,1.00000000026564,0.553620937057149
17500.0000000258,505.810551550711,1.00000000025589,0.543605360012821
17600.0000000244,505.790290074405,1.00000000022457,0.536201934569186
17700.0000000229,505.662163038598,1.00000000023112,0.537828286346377
17800.0000000215,505.437662551721,1.0000000002477,0.548801461263524
17900.00000002,505.1433838541,1.00000000029156,0.559842265278597
18000.0000000186,504.790944152978,1.00000000029492,0.56326339058806
18100.0000000171,504.390287734309,1.00000000027723,0.555582133092637
18200.0000000156,503.924400600174,1.00000000025578,0.540294881338042
18300.0000000142,503.371752692566,1.00000000021247,0.527671161540218
18400.0000000127,502.72583664722,1.00000000020185,0.525350188542819
18500.0000000113,501.990815934905,1.00000000023566,0.538776750802099
18600.0000000098,501.198946522529,1.00000000027964,0.556593656587818
18700.0000000084,500.375135463144,1.00000000031242,0.566427068597265
18800.0000000069,499.528563198539,1.00000000031018,0.56324915418098
18900.0000000055,498.654922564679,1.00000000028124,0.547840498105079
19000.000000004,497.726061483034,1.00000000022876,0.526722419144326
19100.0000000026,496.721877114165,1.00000000018385,0.51109893482963
19200.0000000011,495.634591269146,1.0000000001848,0.513740396963074
19299.9999999996,494.480106367963,1.00000000023695,0.53479239960727
19399.9999999982,493.293239986995,1.00000000029497,0.55809818554537
19499.9999999967,492.098121398272,1.00000000032898,0.569702573965889
19599.9999999953,490.906686045555,1.00000000033064,0.566180278095229
19699.9999999938,489.71056139009,1.0000000003026,0.548258933609055
19799.9999999924,488.480866142559,1.00000000024306,0.520937462230643
19899.9999999909,487.194476933537,1.00000000017914,0.498196423319133
19999.9999999895,485.834860082294,1.00000000016759,0.493317999583539
20099.999999988,484.415688995189,1.00000000021724,0.51399824411128
20199.9999999865,482.96549101786,1.00000000027513,0.545424848410497
20299.9999999851,481.512694323039,1.00000000033952,0.567133485092313
20399.9999999836,480.07922143172,1.00000000037852,0.573073624988223
20499.9999999822,478.664665328221,1.00000000035361,0.562868650045745
20599.9999999807,477.25241620061,1.00000000030809,0.538278242459614
20699.9999999793,475.816868172123,1.00000000022017,0.506210302123833
20799.9999999778,474.330361944128,1.0000000001645,0.481221794417673
20899.9999999764,472.787713816763,1.0000000001599,0.478161799982852
20999.9999999749,471.196975137616,1.00000000019986,0.501813428302106
21099.9999999734,469.584738269386,1.00000000028403,0.538060186762795
21199.999999972,467.980619521747,1.00000000035247,0.565099559323752
21299.9999999705,466.400951670268,1.00000000038529,0.5756346726949
21399.9999999691,464.852702211792,1.00000000037123,0.569478686502185
21499.9999999676,463.324197537746,1.0000000003343,0.549724073200284
21599.9999999662,461.793575540541,1.00000000025865,0.518414475270676
21699.9999999647,460.239394216346,1.00000000019406,0.484090343347705
21799.9999999633,458.641804983153,1.00000000014698,0.464253449779663
21899.9999999618,457.002459187455,1.0000000001536,0.46933149930695
21999.9999999603,455.332727649819,1.00000000021231,0.49920494250764
22099.9999999589,453.654512090547,1.00000000029475,0.538032592761106
22199.9999999574,451.992039269443,1.00000000035916,0.564564052149139
22299.999999956,450.357566529604,1.00000000039572,0.574018849756222
22399.9999999545,448.755374638616,1.00000000038247,0.569655461585071
22499.9999999531,447.17932948654,1.0000000003582,0.552996747244803
22599.9999999516,445.611930675157,1.00000000029702,0.525279066668776
22699.9999999502,444.037218580402,1.00000000022698,0.49098024149333
22799.9999999487,442.437500557442,1.00000000017196,0.463096671644224
22899.9999999473,440.807976583569,1.00000000015177,0.454960423910653
22999.9999999458,439.152266191491,1.00000000017635,0.469753607229249
23099.9999999443,437.481673486332,1.00000000023909,0.502111788645518
23199.9999999429,435.814605993917,1.00000000031396,0.536802939253539
23299.9999999414,434.164338639454,1.0000000003612,0.560731407502423
23399.99999994,432.540379535108,1.00000000038802,0.569025964377033
23499.9999999385,430.946043587994,1.00000000037779,0.564138914656136
23599.9999999371,429.375102705096,1.00000000035455,0.54989527362204
23699.9999999356,427.819312456394,1.00000000031733,0.528205700180829
23799.9999999342,426.265437770639,1.00000000025405,0.499163605121024
23899.9999999327,424.702246335868,1.00000000019812,0.471534738184512
23999.9999999312,423.124401736403,1.00000000016696,0.455455782966462
24099.9999999298,421.528923643783,1.00000000016424,0.455464447345518
24199.9999999283,419.922707642282,1.0000000002021,0.472172604812309
24299.9999999269,418.312676768236,1.00000000024592,0.49937556816908
24399.9999999254,416.708900175837,1.00000000031002,0.529158507413222
24499.999999924,415.120862988864,1.00000000034861,0.548971761292817
24599.9999999225,413.553051796113,1.00000000037471,0.557582660489909
24699.9999999211,412.007809014059,1.00000000039598,0.555121152154022
24799.9999999196,410.48349588156,1.00000000035159,0.544089551495167
24899.9999999181,408.974017002501,1.00000000032591,0.52940792217561
24999.9999999167,407.47423015892,1.00000000028309,0.510176585806822
25099.9999999152,405.976072552772,1.00000000024409,0.488781714649962
25199.9999999138,404.475634193649,1.00000000020981,0.470900615232802
25299.9999999123,402.970348901476,1.00000000019766,0.460533584974685
25399.9999999109,401.460085013,1.00000000019607,0.459920384805699
25499.9999999094,399.948533529787,1.00000000021877,0.470473812593247
25599.999999908,398.437910247366,1.00000000023876,0.488435619563418
25699.9999999065,396.933902441481,1.0000000002761,0.509822589410078
25799.9999999051,395.440813425798,1.00000000030668,0.528352941813771
25899.9999999036,393.961206196231,1.00000000033259,0.539170964514169
25999.9999999021,392.497462178373,1.00000000036168,0.541927410471756
26099.9999999007,391.049495149244,1.00000000034313,0.536521890201627
26199.9999998992,389.615119029261,1.00000000032574,0.529234033148237
26299.9999998978,388.192920027016,1.00000000030473,0.51847313676128
26399.9999998963,386.778780252864,1.0000000002837,0.507619989273805
26499.9999998949,385.371118767835,1.00000000025441,0.498109512990719
26599.9999998934,383.967597797456,1.00000000022312,0.4855441316316
26699.999999892,382.567466851788,1.00000000021785,0.476079016797211
26799.9999998905,381.171103834415,1.00000000020704,0.470360953010687
26899.999999889,379.778134366311,1.00000000021418,0.469628461969349
26999.9999998876,378.390612946004,1.00000000022488,0.475734539739411
27099.9999998861,377.008904703738,1.0000000002437,0.486638116002417
27199.9999998847,375.634844317573,1.00000000026813,0.499339939913332
27299.9999998832,374.270084613576,1.00000000029981,0.51215395776836
27399.9999998818,372.915393393939,1.00000000031714,0.521046997377584
27499.9999998803,371.571412225241,1.00000000033241,0.524653575896472
27599.9999998789,370.238523638999,1.00000000032495,0.524370567724911
27699.9999998774,368.915780932632,1.00000000030662,0.52224108123017
27799.9999998759,367.603006508174,1.00000000028741,0.517926459143376
27899.9999998745,366.299070893528,1.00000000029071,0.512140264920554
27999.999999873,365.00338932199,1.00000000026182,0.507353766183181
28099.9999998716,363.715637532252,1.00000000027184,0.505055088333651
28199.9999998701,362.435479875709,1.00000000024466,0.501459044396737
28299.9999998687,361.163460253471,1.00000000024721,0.496318481412977
28399.9999998672,359.89922436091,1.00000000023881,0.489294442080242
28499.9999998658,358.643669360813,1.00000000022792,0.483250602265907
28599.9999998643,357.396272393919,1.00000000021738,0.479883798969828
28699.9999998629,356.157236297395,1.00000000022839,0.478613879089838
28799.9999998614,354.927187644091,1.00000000022975,0.481360602471326
28899.9999998599,353.705834109388,1.00000000024882,0.48727681351926
