Time,AGPnorm,Energy,Entropy
0,0,1,-7.308388752275e-17
99.9999999999986,0.00181569030852728,1.00000000000066,0.00549775807658026
199.999999999993,0.0119797438702688,0.999999999999551,0.0160286554065647
300,0.0244543401153827,0.999999999998858,0.0293254041283034
400.000000000022,0.0360206148922775,0.999999999999776,0.04613328900631
500.000000000045,0.0504199430952318,1.00000000000008,0.066860540181552
600.000000000068,0.0688126413447573,0.999999999999698,0.0911909076757313
700.000000000091,0.0866642147401915,0.999999999999456,0.119385810783264
800.000000000113,0.103528191970721,1.00000000000115,0.153127519037066
900.000000000136,0.121370327955476,1.00000000002093,0.196761452702147
1000.00000000016,0.135639051050764,1.00000000013677,0.252051879486443
1100.0000000001,0.16464806518642,1.00000000042972,0.311847628728703
1200,0.246765684231619,1.00000000088335,0.366786062735831
1299.99999999991,0.418112472454388,1.00000000128664,0.414585817189513
1399.99999999982,0.77629036038181,1.00000000160328,0.455309622497643
1499.99999999973,1.46399551961287,1.00000000200292,0.48787851514053
1599.99999999964,2.54920988818068,1.00000000216209,0.514810924119613
1699.99999999955,4.03424480057106,1.00000000231537,0.536797944096465
1799.99999999946,5.93657124865441,1.00000000231161,0.554116576708664
1899.99999999937,8.24450701006944,1.00000000243552,0.566411495085084
1999.99999999928,10.8769247427817,1.00000000245213,0.576605710990958
2099.99999999919,13.7487972523317,1.00000000240085,0.583853132899087
2199.99999999909,16.7925092032285,1.00000000242332,0.588566117797034
2299.999999999,19.9300491604901,1.00000000230028,0.59090802374587
2399.99999999891,23.0631670087864,1.0000000023287,0.592109378732133
2499.99999999882,26.1125394037615,1.00000000215201,0.593192631562993
2599.99999999873,29.0365584791501,1.00000000213948,0.592580701090411
2699.99999999864,31.791845645414,1.00000000203386,0.59067413098264
2799.99999999855,34.3304940923165,1.00000000188387,0.589137273301346
2899.99999999846,36.6149743472422,1.00000000187158,0.58798009817309
2999.99999999837,38.6321667523395,1.00000000184265,0.585601585145941
3099.99999999828,40.3852199749937,1.00000000164754,0.581944212071927
3199.99999999819,41.8702496854934,1.00000000162455,0.579582369233919
3299.99999999809,43.0830997481353,1.00000000161356,0.579229570788636
3399.999999998,44.0315543491614,1.00000000152028,0.575046059579837
3499.99999999791,44.7352783174006,1.00000000147889,0.577993105359664
3599.99999999782,45.2078078877942,1.00000000138864,0.572145594969904
3699.99999999773,45.4792254012461,1.00000000140254,0.573426178250982
3799.99999999764,45.5559960662658,1.00000000133839,0.566993894734616
3899.99999999755,45.4770967201775,1.00000000142373,0.575750067271356
3999.99999999746,45.25108912235,1.00000000118782,0.552545272520066
4099.99999999738,44.9317596039532,1.0000000015532,0.576567061495442
4199.99999999775,44.5109143950537,1.00000000103464,0.53675502607947
4299.99999999811,44.018671612156,1.00000000167924,0.582860893683769
4399.99999999848,43.4872296531319,1.00000000114785,0.535429134714789
4499.99999999884,42.8832389841636,1.00000000152467,0.560399428481832
4599.9999999992,42.2890476097559,1.00000000166628,0.562677086763845
4699.99999999957,41.6576471409185,1.00000000109961,0.51181581680308
4799.99999999993,41.0001398633471,1.00000000171867,0.571198658863229
4900.00000000029,40.3690438091233,1.00000000146099,0.535632677998016
5000.00000000066,39.7155278467196,1.00000000118511,0.502816642772659
5100.00000000102,39.0521240674386,1.00000000166703,0.550525195523557
5200.00000000139,38.4196147971362,1.00000000161516,0.542001735840394
5300.00000000175,37.7900821256149,1.00000000118314,0.495014436906104
5400.00000000211,37.1502020143975,1.00000000141611,0.51560212448558
5500.00000000248,36.5289324306194,1.00000000179936,0.551562163354354
5600.00000000284,35.9309650434073,1.00000000146766,0.50990382319892
5700.00000000321,35.340528585423,1.00000000115433,0.498519563652419
5800.00000000357,34.7547820873749,1.00000000147541,0.516236810370824
5900.00000000393,34.1845306829788,1.00000000163324,0.535185677974454
6000.0000000043,33.6336109207176,1.00000000158502,0.520615692753709
6100.00000000466,33.0984245126181,1.00000000120797,0.493636184783378
6200.00000000502,32.5773998456922,1.00000000146079,0.529368002807534
6300.00000000539,32.0698536345533,1.00000000139717,0.516525891094511
6400.00000000575,31.5781884945227,1.00000000160267,0.529212666947801
6500.00000000612,31.101110781953,1.00000000151791,0.51596232043999
6600.00000000648,30.6423729260235,1.0000000011821,0.498582349504919
6700.00000000684,30.201870703338,1.00000000141954,0.530462620074688
6800.00000000721,29.7735590471001,1.00000000150333,0.535497663074968
6900.00000000757,29.3632626672712,1.00000000130491,0.502267648043802
7000.00000000793,28.9681775210667,1.00000000156613,0.522391968042094
7100.0000000083,28.5819749443394,1.00000000149091,0.514317779118895
7200.00000000866,28.2141217357988,1.0000000012613,0.504971320846098
7300.00000000903,27.8641392373354,1.00000000138056,0.524395070145092
7400.00000000939,27.521309583164,1.00000000164896,0.538263333289329
7500.00000000975,27.1916018062226,1.00000000124911,0.519052273984214
7600.00000001012,26.8816274909291,1.00000000135207,0.500691751841348
7700.00000001048,26.5828770059371,1.00000000165819,0.528323447474596
7800.00000001084,26.2902967667248,1.00000000152877,0.518735004298735
7900.00000001121,26.0112231800101,1.00000000134666,0.510257298076884
8000.00000001157,25.7467734705947,1.00000000135119,0.526903419988964
8100.00000001194,25.4921224954543,1.0000000015025,0.530414398390957
8200.0000000123,25.2402344941369,1.00000000149916,0.529720169757407
8300.00000001266,24.9985522080911,1.00000000140831,0.530534420553737
8400.00000001303,24.772135882374,1.00000000129347,0.508747140334204
8500.00000001339,24.5576940889274,1.00000000153214,0.524815202934706
8600.00000001376,24.3511904313882,1.00000000161881,0.534756552676811
8700.00000001412,24.1502799848276,1.00000000148582,0.528655289196535
8800.00000001448,23.9614292692855,1.00000000135412,0.520860475830762
8900.00000001485,23.7826480953194,1.00000000141996,0.535440452994526
9000.00000001521,23.6106755212242,1.00000000146432,0.538907975615651
9100.00000001557,23.4473889120512,1.00000000148292,0.531172754413566
9200.00000001594,23.2872391287829,1.00000000149608,0.528488808530355
9300.0000000163,23.1270263654686,1.00000000154367,0.546459150875221
9400.00000001667,22.9717949683774,1.00000000146256,0.541147431975673
9500.00000001703,22.8299348276618,1.00000000132237,0.525737797777694
9600.00000001739,22.698652343096,1.00000000157034,0.545459151339557
9700.00000001776,22.5699584870918,1.00000000156393,0.545888502692871
9800.00000001812,22.446296925965,1.00000000151497,0.534754496195263
9900.00000001848,22.3319496974328,1.00000000144561,0.534705647181015
10000.0000000188,22.228074402836,1.00000000140318,0.538362739713557
10100.0000000192,22.1223388479074,1.00000000167065,0.551168799049077
10200.0000000196,22.018084624771,1.00000000141988,0.541739624092711
10300.0000000199,21.9276116742881,1.00000000128914,0.530169604214915
10400.0000000203,21.8426328516069,1.00000000158185,0.544209785711435
10500.0000000207,21.7523316735328,1.00000000160247,0.542454056857461
10600.000000021,21.655843370135,1.00000000155868,0.558734963920196
10700.0000000214,21.5611071887156,1.00000000145981,0.559936866830043
10800.0000000218,21.4710990720332,1.00000000148309,0.557043711459982
10900.0000000221,21.3859099782629,1.00000000150056,0.564083050248175
11000.0000000225,21.305813539582,1.00000000149584,0.555135396716437
11100.0000000229,21.2323021646762,1.00000000147134,0.549031484513217
11200.0000000232,21.1660804804279,1.00000000150379,0.53843456807963
11300.0000000236,21.1089097795826,1.00000000140326,0.544927353361153
11400.0000000239,21.055719306197,1.00000000161143,0.562147305237053
11500.0000000243,21.0050569696393,1.00000000153559,0.558075708867891
11600.0000000247,20.9548008611835,1.00000000153282,0.557084992965221
11700.000000025,20.9048886667217,1.00000000151661,0.558547708423552
11800.0000000254,20.8598193867453,1.00000000146466,0.553296084770129
11900.0000000258,20.8217306947426,1.00000000149901,0.553485650449279
12000.0000000261,20.7857987464816,1.0000000015645,0.563932766323143
12100.0000000265,20.7497723587133,1.00000000144291,0.563111413946308
12200.0000000269,20.7129793811277,1.00000000156821,0.568234762455923
12300.0000000272,20.6697821343865,1.00000000169172,0.578871303393581
12400.0000000276,20.6176079198272,1.00000000165679,0.591375655111322
12500.0000000279,20.558282486917,1.00000000161213,0.597827733171387
12600.0000000283,20.4977277759073,1.00000000143075,0.593605836136421
12700.0000000287,20.4437684932978,1.00000000139703,0.581501814680571
12800.000000029,20.3973748726661,1.00000000152057,0.577312470365242
12900.0000000294,20.3583296772149,1.00000000158319,0.568105599815984
13000.0000000298,20.3273191824015,1.00000000156116,0.557310895823358
13100.0000000301,20.3025018316052,1.00000000151033,0.559751675610247
13200.0000000305,20.2830818913563,1.00000000152737,0.566916340707512
13300.0000000309,20.2669065733274,1.00000000150609,0.572511498997631
13400.0000000312,20.2492050670785,1.00000000166536,0.581125237364003
13500.0000000316,20.2328497775768,1.00000000159878,0.578218059392118
13600.0000000319,20.2214653518458,1.00000000147498,0.568504786521989
13700.0000000323,20.2132828796652,1.00000000154302,0.56156064761225
13800.0000000327,20.2040513642548,1.00000000164949,0.564374688465068
13900.000000033,20.1930667543996,1.0000000015557,0.575135966220012
14000.0000000334,20.1870539780129,1.00000000147887,0.575670057504207
14100.0000000338,20.1850910037499,1.00000000147307,0.580879726041414
14200.0000000341,20.1825461413396,1.00000000161866,0.596488582785768
14300.0000000345,20.1764189685728,1.00000000166533,0.605019266061874
14400.0000000349,20.1639901206592,1.0000000015176,0.607003406904834
14500.0000000352,20.1470322638386,1.00000000154736,0.606747998392649
14600.0000000356,20.1282537692262,1.00000000162934,0.600908185445829
14700.0000000359,20.1037981455211,1.00000000158207,0.602813877590308
14800.0000000363,20.0713037551155,1.00000000168729,0.604601594892103
14900.0000000367,20.0318528467964,1.00000000165539,0.599911611128774
15000.000000037,19.9865647112736,1.00000000156747,0.605567960231708
15100.0000000374,19.9415502680326,1.00000000154027,0.610016147824929
15200.0000000378,19.9006991002724,1.00000000146831,0.599803207515583
15300.0000000381,19.8659495701131,1.00000000156524,0.594149490279483
15400.0000000385,19.8383317315848,1.00000000157963,0.590958779276746
15500.0000000389,19.8175490587432,1.00000000150761,0.578003117353363
15600.0000000392,19.8032133954231,1.00000000159482,0.576160639625667
15700.0000000396,19.7974225019938,1.00000000152926,0.573710194724429
15800.0000000399,19.797040767652,1.00000000163558,0.577981851853395
15900.0000000403,19.8003972461478,1.00000000166467,0.58683182058944
16000.0000000407,19.8039260676898,1.00000000167038,0.594214102213283
16100.000000041,19.8098427448139,1.00000000166272,0.588342955356941
16200.0000000414,19.8138486399332,1.00000000162843,0.586123345602434
16300.0000000418,19.8202454978156,1.00000000154697,0.579772683230582
16400.0000000418,19.8284568388937,1.00000000162356,0.581368404874609
16500.0000000404,19.837927526137,1.0000000016802,0.590566830998403
16600.0000000389,19.8468771815208,1.00000000161804,0.592611440132506
16700.0000000375,19.855857732048,1.00000000162175,0.588949944289453
16800.000000036,19.8657712521198,1.00000000168761,0.590831441691546
16900.0000000346,19.8751352890272,1.00000000161096,0.583103843717473
17000.0000000331,19.886290936435,1.00000000165629,0.58364407470775
17100.0000000317,19.898916350083,1.0000000015794,0.588558793408721
17200.0000000302,19.9126087366883,1.00000000162856,0.601022666360746
17300.0000000287,19.9253262016257,1.00000000169087,0.609096401938733
17400.0000000273,19.9350027728216,1.00000000167762,0.615103662363037
17500.0000000258,19.9388718122131,1.00000000168625,0.629238798144979
17600.0000000244,19.9381871547105,1.00000000172384,0.629717287047944
17700.0000000229,19.9334752101819,1.0000000016238,0.623735433167723
17800.0000000215,19.9255611064611,1.00000000177961,0.630919526416038
17900.00000002,19.9139469750488,1.00000000161993,0.629727085998551
18000.0000000186,19.9000080233687,1.00000000158774,0.629475748091424
18100.0000000171,19.88313588294,1.00000000165089,0.631510454811497
18200.0000000156,19.8660627877789,1.00000000158353,0.6308647288043
18300.0000000142,19.8463720162559,1.00000000169142,0.637687545643512
18400.0000000127,19.8212663615336,1.00000000172694,0.635608703710428
18500.0000000113,19.78742655032,1.00000000178922,0.63364176723605
18600.0000000098,19.7487511013216,1.00000000165843,0.628094217301625
18700.0000000084,19.7066665843874,1.00000000172976,0.626539367305051
18800.0000000069,19.6633653239346,1.00000000157519,0.620886337032218
18900.0000000055,19.6232066813314,1.00000000159189,0.618456309828972
19000.000000004,19.5869050303852,1.00000000161294,0.620122579789373
19100.0000000026,19.5561698754559,1.00000000162775,0.616742119281987
19200.0000000011,19.5316052675846,1.00000000169634,0.614410245646893
19299.9999999996,19.5133597931797,1.00000000165184,0.611703097878327
19399.9999999982,19.5004246154653,1.00000000161665,0.613351113046987
19499.9999999967,19.4934393772905,1.00000000169729,0.605290831259776
19599.9999999953,19.4922185205214,1.00000000160333,0.591244386425641
19699.9999999938,19.4976007713308,1.00000000162236,0.588092764684145
19799.9999999924,19.5080114555186,1.00000000172374,0.596901263878554
19899.9999999909,19.5205897755808,1.00000000171087,0.602381624539673
19999.9999999895,19.5336321609205,1.00000000176947,0.609310912586978
20099.999999988,19.5475431874688,1.00000000169404,0.607367750836896
20199.9999999865,19.5633075145946,1.00000000173014,0.606473106351563
20299.9999999851,19.5799697603143,1.00000000175024,0.607607368174012
20399.9999999836,19.5984904135701,1.00000000171926,0.601434433304783
20499.9999999822,19.6175528394707,1.00000000175219,0.59567419506137
20599.9999999807,19.6382953021476,1.00000000171339,0.596916266455116
20699.9999999793,19.6603848425353,1.00000000177298,0.599526467908349
20799.9999999778,19.68196289075,1.00000000179145,0.603030372540574
20899.9999999764,19.7010619898132,1.0000000017856,0.607050978082227
20999.9999999749,19.7203236345924,1.00000000169734,0.607238007185577
21099.9999999734,19.7393743765505,1.00000000171606,0.607717247093141
21199.999999972,19.7597796552886,1.00000000171024,0.609183683384565
21299.9999999705,19.7818126937823,1.00000000176662,0.612847440542274
21399.9999999691,19.8029590671905,1.00000000174064,0.618853251794102
21499.9999999676,19.8233725572074,1.0000000018227,0.634295180074766
21599.9999999662,19.8406254232696,1.00000000173391,0.64254394064539
21699.9999999647,19.8531879723343,1.00000000181843,0.6515231750904
21799.9999999633,19.8626800910842,1.00000000177514,0.646812268711566
21899.9999999618,19.8706565382828,1.00000000184905,0.649038370284224
21999.9999999603,19.8768432093873,1.00000000177633,0.6426059281156
22099.9999999589,19.8846872428335,1.00000000164815,0.640699853775453
22199.9999999574,19.8941392032952,1.00000000179144,0.65172456049464
22299.999999956,19.9034269160252,1.00000000179179,0.655528024602786
22399.9999999545,19.9128611620612,1.0000000018005,0.65475027953513
22499.9999999531,19.9172298158237,1.00000000182132,0.649383572186062
22599.9999999516,19.9193526266157,1.00000000175946,0.652905472060338
22699.9999999502,19.9202117226588,1.00000000187535,0.655918755723219
22799.9999999487,19.9195240896581,1.00000000183177,0.65497727645194
22899.9999999473,19.9180464937911,1.0000000018389,0.655466809117233
22999.9999999458,19.91529499073,1.00000000178561,0.649349150344861
23099.9999999443,19.910425953175,1.00000000177018,0.643287967924639
23199.9999999429,19.9034737397781,1.00000000184453,0.641541832110504
23299.9999999414,19.8942088582457,1.0000000018274,0.647859729704485
23399.99999994,19.8844324416551,1.00000000180805,0.644183845245319
23499.9999999385,19.8751389934046,1.00000000179879,0.653562062451853
23599.9999999371,19.8632287096208,1.00000000182595,0.660367582006079
23699.9999999356,19.8487515934516,1.00000000178197,0.658322733723653
23799.9999999342,19.8329051193187,1.00000000185,0.662426872765839
23899.9999999327,19.8155151545851,1.00000000182087,0.661914256889883
23999.9999999312,19.7978481327706,1.000000001767,0.663950256666146
24099.9999999298,19.7775481035507,1.00000000188304,0.662262500860243
24199.9999999283,19.7531311334949,1.00000000192929,0.654638778711967
24299.9999999269,19.7277731960079,1.00000000177502,0.655544514779279
24399.9999999254,19.7013981196313,1.00000000180199,0.660637916407765
24499.999999924,19.6743470109682,1.00000000175146,0.653230764154968
24599.9999999225,19.6460195174526,1.00000000190089,0.661174369912544
24699.9999999211,19.6151267385117,1.00000000197698,0.66612121359786
24799.9999999196,19.5808638551193,1.00000000202315,0.671117948811131
24899.9999999181,19.5434337536867,1.00000000194455,0.667758413463715
24999.9999999167,19.5049105849477,1.00000000186338,0.663043725473133
25099.9999999152,19.4665615492429,1.00000000176984,0.661964911550328
25199.9999999138,19.4302761809978,1.00000000178737,0.665813597210733
25299.9999999123,19.397006807228,1.00000000181296,0.661208557669584
25399.9999999109,19.366849420909,1.00000000179234,0.652497705675893
25499.9999999094,19.3402857541931,1.00000000178341,0.645984338653642
25599.999999908,19.3180364031162,1.00000000175428,0.642046750068902
25699.9999999065,19.3016819585078,1.00000000183509,0.647834085101588
25799.9999999051,19.2902513948935,1.00000000185775,0.651220582248937
25899.9999999036,19.2827404489752,1.00000000182083,0.646512231149462
25999.9999999021,19.2807454813314,1.00000000182988,0.646641828367257
26099.9999999007,19.2836605847,1.00000000181564,0.640685495613194
26199.9999998992,19.291937955702,1.00000000181869,0.6352794176883
26299.9999998978,19.3075723506948,1.0000000018035,0.62567383889617
26399.9999998963,19.3267932957597,1.00000000196958,0.625174351961735
26499.9999998949,19.3490910281864,1.0000000019257,0.626747613739524
26599.9999998934,19.3754459347705,1.00000000185325,0.626968788542511
26699.999999892,19.4007146335382,1.000000002008,0.631333524455079
26799.9999998905,19.4263872846704,1.00000000183505,0.617159322700636
26899.999999889,19.4558022187841,1.00000000189955,0.61928627973808
26999.9999998876,19.4835885562772,1.000000001969,0.618394643327916
27099.9999998861,19.5135816117345,1.000000001842,0.610228705474794
27199.9999998847,19.5476040984985,1.00000000183454,0.615667075571501
27299.9999998832,19.582650308768,1.00000000193212,0.61897821345788
27399.9999998818,19.6180009354813,1.00000000184068,0.613042809958308
27499.9999998803,19.6547698642658,1.00000000190908,0.615352218056186
27599.9999998789,19.6934274658282,1.00000000193234,0.616043694952602
27699.9999998774,19.7304905636687,1.00000000194232,0.623592088680969
27799.9999998759,19.7650008157962,1.00000000196177,0.620988790739647
27899.9999998745,19.801354574268,1.00000000188964,0.617747228715458
27999.999999873,19.8385677839305,1.00000000201792,0.618587240372443
28099.9999998716,19.8757517388319,1.00000000189519,0.616335283180659
28199.9999998701,19.9132217268756,1.0000000020552,0.625674217222908
28299.9999998687,19.9507371777099,1.00000000189952,0.622115614436105
28399.9999998672,19.99034505632,1.0000000019367,0.629022247311049
28499.9999998658,20.0296303445568,1.00000000205868,0.63651948053007
28599.9999998643,20.0681024237468,1.00000000194171,0.64127336399574
28699.9999998629,20.1071712719001,1.00000000206682,0.64455683948698
28799.9999998614,20.1425826215175,1.00000000213123,0.643882621565172
28899.9999998599,20.1782601119757,1.00000000201154,0.647483673725777
28999.9999998585,20.2151143101663,1.0000000020937,0.661903094350568
29099.999999857,20.2469233334074,1.00000000211411,0.663441086699128
