Time,AGPnorm,Energy,Entropy
0,0,1,-1.47958261644951e-17
99.9999999999986,5.30100411118774e-05,1.00000000000038,0.00204500081536267
199.999999999993,0.00472224011817724,1.00000000000027,0.00328564436882373
300,0.0117780808308456,1.00000000000021,0.00573043595040675
400.000000000022,0.01655117472918,1.00000000000047,0.00965549507326986
500.000000000045,0.019967168811938,0.999999999999935,0.013000731673752
600.000000000068,0.0279856717606932,1.00000000000045,0.017926907241796
700.000000000091,0.034839112302213,1.00000000000021,0.022897574567212
800.000000000113,0.0446555363581458,1.00000000000033,0.0281770843662065
900.000000000136,0.0551953986133733,1.00000000000043,0.0345051233119838
1000.00000000016,0.0633070902328824,0.999999999999742,0.0406168937039027
1100.0000000001,0.0749218752586988,1.00000000000065,0.0475650417575308
1200,0.0881461112695432,1.00000000000025,0.0549853701617651
1299.99999999991,0.100881054351587,1.00000000000023,0.0626547555573963
1399.99999999982,0.113589508887097,1.00000000000043,0.0711475391806613
1499.99999999973,0.125858516513843,0.999999999999628,0.0798056054399547
1599.99999999964,0.140152683984127,1.00000000000092,0.0892563636188334
1699.99999999955,0.155889544466268,1.0000000000003,0.0995654537966235
1799.99999999946,0.169673481729723,0.999999999999906,0.110333083761059
1899.99999999937,0.183265896066651,1.00000000000056,0.122149948922704
1999.99999999928,0.198177194600989,0.999999999999797,0.13496198601923
2099.99999999919,0.213525377952545,1.00000000000172,0.149297228385076
2199.99999999909,0.228653541507217,1.00000000000369,0.165740082070183
2299.999999999,0.241774954544297,1.00000000001379,0.183949998622497
2399.99999999891,0.256720507378796,1.00000000003699,0.204583268740513
2499.99999999882,0.269031710092086,1.00000000008464,0.226865933743031
2599.99999999873,0.288829443268639,1.00000000015185,0.249874037953484
2699.99999999864,0.308380136750894,1.00000000022514,0.273017476429432
2799.99999999855,0.330407101008949,1.00000000035315,0.295233610391157
2899.99999999846,0.388476283189524,1.00000000044865,0.317197127417675
2999.99999999837,0.454018440871419,1.00000000056041,0.338720206693516
3099.99999999828,0.577675156175711,1.00000000066754,0.359127210562597
3199.99999999819,0.767818645217682,1.0000000008022,0.378498417926602
3299.99999999809,1.0199984749617,1.00000000090097,0.39708378084346
3399.999999998,1.40367564291299,1.00000000101008,0.414600448833592
3499.99999999791,1.89511883903389,1.00000000111447,0.431170032539532
3599.99999999782,2.53588222710064,1.00000000123105,0.446590050715403
3699.99999999773,3.35753792524118,1.00000000131968,0.460808712248031
3799.99999999764,4.34292252448588,1.00000000130008,0.474600444120949
3899.99999999755,5.53866887141495,1.00000000142213,0.487039921691446
3999.99999999746,6.94297361855882,1.00000000148259,0.498306471975195
4099.99999999738,8.55711298030681,1.00000000151351,0.509226860025553
4199.99999999775,10.3979810807209,1.00000000151871,0.518945412696622
4299.99999999811,12.4581869234037,1.00000000156817,0.527811977225483
4399.99999999848,14.7319274349222,1.00000000158968,0.536275222407242
4499.99999999884,17.2241615825961,1.0000000015779,0.543591422694858
4599.9999999992,19.9219689492254,1.00000000161751,0.550558729922257
4699.99999999957,22.8025292405496,1.0000000016087,0.557177649001795
4799.99999999993,25.8773567859157,1.0000000015714,0.562560956453676
4900.00000000029,29.1104237738051,1.00000000165687,0.568004769362014
5000.00000000066,32.4907901894087,1.00000000163433,0.572598775050504
5100.00000000102,36.0207027204742,1.00000000168594,0.576617845242677
5200.00000000139,39.6456595945002,1.00000000159052,0.580991538182055
5300.00000000175,43.3838348589132,1.00000000156526,0.584109514087675
5400.00000000211,47.2030120027954,1.0000000015887,0.587145240403198
5500.00000000248,51.0691539983398,1.00000000155949,0.590170912414642
5600.00000000284,55.0031016894633,1.00000000153303,0.592075436263125
5700.00000000321,58.9439945469349,1.00000000155805,0.594637859732986
5800.00000000357,62.9025027311405,1.00000000150767,0.596399030318245
5900.00000000393,66.8659503645581,1.00000000152086,0.597695950419048
6000.0000000043,70.7875976245995,1.00000000144211,0.599439550118552
6100.00000000466,74.6969102613778,1.00000000144378,0.599817045788455
6200.00000000502,78.5440934340962,1.0000000014123,0.601238589231912
6300.00000000539,82.3288522537795,1.00000000143122,0.601785555949188
6400.00000000575,86.0568136863581,1.00000000137421,0.602083073286978
6500.00000000612,89.6802956322553,1.0000000013526,0.602938921172507
6600.00000000648,93.2274779558829,1.00000000137119,0.6027524859286
6700.00000000684,96.6670199300675,1.00000000135144,0.603147223857016
6800.00000000721,99.9912540721437,1.00000000130246,0.603173248427703
6900.00000000757,103.216098866935,1.0000000012304,0.603079150138006
7000.00000000793,106.301297740866,1.00000000128822,0.603922854952063
7100.0000000083,109.27044397627,1.0000000012135,0.602947289944275
7200.00000000866,112.108784118066,1.00000000123301,0.602507742648033
7300.00000000903,114.803512110624,1.00000000120099,0.603168701614959
7400.00000000939,117.375773817372,1.00000000119576,0.601683199507684
7500.00000000975,119.795205173644,1.00000000114776,0.60254712147977
7600.00000001012,122.082303095263,1.00000000113856,0.600495354625028
7700.00000001048,124.230521154946,1.00000000115665,0.601706851851554
7800.00000001084,126.228571615747,1.00000000107002,0.600178563315941
7900.00000001121,128.099300701446,1.0000000010672,0.600364686730446
8000.00000001157,129.820371026844,1.00000000109637,0.599480323927491
8100.00000001194,131.409355403457,1.00000000106649,0.599442561442889
8200.0000000123,132.864295179855,1.00000000102519,0.598235842047352
8300.00000001266,134.179369677695,1.00000000101369,0.598640971087047
8400.00000001303,135.370614982795,1.00000000097436,0.597440985972998
8500.00000001339,136.428515865204,1.00000000100643,0.597197396040419
8600.00000001376,137.361119384616,1.00000000094055,0.597020114439574
8700.00000001412,138.176891887782,1.00000000094662,0.596507977593686
8800.00000001448,138.864871356573,1.0000000009409,0.595130395303477
8900.00000001485,139.447252196055,1.00000000095287,0.59758649947316
9000.00000001521,139.913785709759,1.00000000088752,0.592729146272368
9100.00000001557,140.273708897493,1.00000000091793,0.597629783028451
9200.00000001594,140.539161916309,1.00000000089396,0.59368896782241
9300.0000000163,140.699210638352,1.00000000083196,0.592132126968675
9400.00000001667,140.775588603079,1.00000000091273,0.597269920886889
9500.00000001703,140.765944214539,1.00000000084791,0.589619334782967
9600.00000001739,140.670337458289,1.00000000086435,0.591449303156886
9700.00000001776,140.508336295029,1.00000000090212,0.595937681686239
9800.00000001812,140.274002917177,1.0000000008385,0.583856024975839
9900.00000001848,139.971810318165,1.00000000087505,0.591023114133918
10000.0000000188,139.616139666553,1.00000000097762,0.593481847756442
10100.0000000192,139.204541236122,1.00000000079918,0.578540502769972
10200.0000000196,138.735924778605,1.00000000090103,0.588600930604667
10300.0000000199,138.226877096278,1.00000000093653,0.592299518306424
10400.0000000203,137.677495962133,1.00000000081694,0.574650369883934
10500.0000000207,137.077690126917,1.00000000089192,0.584215990666607
10600.000000021,136.451541988928,1.0000000009856,0.58985997783083
10700.0000000214,135.798796629418,1.00000000084312,0.574881282005116
10800.0000000218,135.106025591629,1.00000000083838,0.575167451899891
10900.0000000221,134.395065353147,1.00000000096347,0.586156834880871
11000.0000000225,133.668066835884,1.00000000092062,0.578869141875204
11100.0000000229,132.916002288649,1.00000000082548,0.566115142566661
11200.0000000232,132.145486348176,1.00000000093718,0.579974667647816
11300.0000000236,131.364272871479,1.00000000095924,0.577730230636657
11400.0000000239,130.574297616215,1.00000000093218,0.57227056266694
11500.0000000243,129.765947472929,1.00000000091352,0.564639946547614
11600.0000000247,128.948550603749,1.00000000095871,0.574225588394731
11700.000000025,128.130256410596,1.00000000096787,0.572806008369885
11800.0000000254,127.30383739471,1.00000000087832,0.568225516716598
11900.0000000258,126.47100425106,1.00000000090829,0.562492013846826
12000.0000000261,125.634534175432,1.00000000096349,0.568688523906597
12100.0000000265,124.798336762062,1.00000000094629,0.56497530070291
12200.0000000269,123.962368878006,1.00000000096846,0.568300658533733
12300.0000000272,123.122348127462,1.00000000093064,0.560219553773916
12400.0000000276,122.283878446122,1.0000000009763,0.564348113403621
12500.0000000279,121.448748938907,1.00000000094263,0.554606886429121
12600.0000000283,120.6144709692,1.00000000097493,0.565120902995847
12700.0000000287,119.784417808638,1.00000000095099,0.563924602423704
12800.000000029,118.955529513282,1.00000000097123,0.559252048353839
12900.0000000294,118.132686034724,1.00000000096669,0.554916665839738
13000.0000000298,117.313371445613,1.00000000088003,0.545165527422734
13100.0000000301,116.497872036906,1.00000000099254,0.56650191179551
13200.0000000305,115.689203045215,1.00000000093894,0.56237983934151
13300.0000000309,114.885625667516,1.00000000102718,0.559086801371187
13400.0000000312,114.08908312664,1.00000000093593,0.546866538953602
13500.0000000316,113.297177523334,1.00000000094182,0.53835930548625
13600.0000000319,112.510860626412,1.0000000009823,0.559909431641781
13700.0000000323,111.732571474659,1.0000000009604,0.566564381995482
13800.0000000327,110.961346143115,1.00000000098842,0.558355238938294
13900.000000033,110.197951500835,1.00000000095312,0.547866374221367
14000.0000000334,109.440780230688,1.00000000090113,0.536738470243089
14100.0000000338,108.68958265928,1.0000000009246,0.543566127009743
14200.0000000341,107.946593410021,1.00000000102725,0.56468756716259
14300.0000000345,107.211337516581,1.00000000092799,0.563174895263261
14400.0000000349,106.484595060269,1.00000000097134,0.553495564715347
14500.0000000352,105.7658323459,1.0000000008987,0.542485450528234
14600.0000000356,105.053805864124,1.0000000008773,0.537499385412521
14700.0000000359,104.349732969059,1.00000000090423,0.542351620580879
14800.0000000363,103.653566837257,1.00000000098187,0.562696029163886
14900.0000000367,102.965970392437,1.00000000093859,0.563225841206495
15000.000000037,102.286813719939,1.00000000094573,0.55336706527538
15100.0000000374,101.615419468023,1.00000000091069,0.548579744804928
15200.0000000378,100.952658929401,1.00000000085835,0.541075481048973
15300.0000000381,100.298310021511,1.00000000090609,0.543716997726674
15400.0000000385,99.6522708044461,1.00000000097959,0.550252105747059
15500.0000000389,99.0148829664544,1.00000000096972,0.561924614960666
15600.0000000392,98.3856552546675,1.00000000094327,0.558974539660212
15700.0000000396,97.7648835025421,1.00000000095504,0.552052366306558
15800.0000000399,97.1527173466306,1.00000000087738,0.545920275780377
15900.0000000403,96.5494553672815,1.00000000089815,0.549307950915373
16000.0000000407,95.9549291109282,1.00000000092963,0.550789876632406
16100.000000041,95.3691043344441,1.00000000093797,0.546365473019153
16200.0000000414,94.7919912941463,1.00000000099447,0.556854793395014
16300.0000000418,94.2231483991247,1.0000000009515,0.559888734658434
16400.0000000418,93.6628847018496,1.0000000008875,0.549447562861571
16500.0000000404,93.1113808864411,1.00000000091531,0.546709094202701
16600.0000000389,92.5683019102528,1.00000000094267,0.550398020257714
16700.0000000375,92.0335060178171,1.00000000093459,0.551908500636429
16800.000000036,91.5069981603969,1.00000000093101,0.553091098369986
16900.0000000346,90.9887495458141,1.00000000092988,0.548034322241986
17000.0000000331,90.4786755196783,1.0000000009348,0.551874835301562
17100.0000000317,89.9777753127241,1.00000000090157,0.551542175619901
17200.0000000302,89.4856234955844,1.00000000089703,0.550714806362007
17300.0000000287,89.0017019966386,1.00000000095548,0.547235131480511
17400.0000000273,88.5248998228233,1.00000000095001,0.546910352850778
17500.0000000258,88.0559235747034,1.00000000093389,0.547186465683678
17600.0000000244,87.5942695263603,1.00000000094274,0.551927090311328
17700.0000000229,87.1377799120513,1.00000000102727,0.562813792103329
17800.0000000215,86.6880678639864,1.00000000091836,0.544822392115918
17900.00000002,86.248089535457,1.00000000089879,0.541141878448462
18000.0000000186,85.8175871585195,1.00000000092344,0.549785257718641
18100.0000000171,85.3952015939444,1.00000000094684,0.549777884678654
18200.0000000156,84.9792504034616,1.00000000094479,0.548629654405939
18300.0000000142,84.5702723632185,1.00000000095452,0.541430994427139
18400.0000000127,84.1686247507352,1.00000000091413,0.545156624284549
18500.0000000113,83.7726747586348,1.00000000101948,0.5521454728052
18600.0000000098,83.379461470368,1.00000000106946,0.56143109777203
18700.0000000084,82.9895715787658,1.00000000102388,0.560383752574937
18800.0000000069,82.607531152441,1.00000000087366,0.537954556695557
18900.0000000055,82.2359557247945,1.00000000088882,0.540010552479932
19000.000000004,81.8738832895898,1.00000000087955,0.548133443374756
19100.0000000026,81.5191999424275,1.00000000100682,0.549673855802789
19200.0000000011,81.1697473045521,1.00000000100172,0.549583171851187
19299.9999999996,80.8271630908816,1.00000000089078,0.542051385324629
19399.9999999982,80.4918513404999,1.00000000092978,0.544628994291475
19499.9999999967,80.1599666355307,1.00000000102293,0.556092963483613
19599.9999999953,79.8294520556905,1.00000000107275,0.556933444809746
19699.9999999938,79.5001001171935,1.0000000009972,0.560924835069073
19799.9999999924,79.1744324353495,1.00000000094551,0.557638048129323
19899.9999999909,78.8566872265689,1.00000000084245,0.542456894050606
19999.9999999895,78.5489479571575,1.00000000085222,0.541954458560874
20099.999999988,78.2504200019131,1.00000000091326,0.551480260462583
20199.9999999865,77.9589449778044,1.00000000095544,0.55289841062437
20299.9999999851,77.673084078871,1.00000000089967,0.548692471907279
20399.9999999836,77.3937514486529,1.000000000904,0.549903718255295
20499.9999999822,77.1196604430609,1.00000000091413,0.549734746754875
20599.9999999807,76.8498902530975,1.00000000100621,0.555345469143762
20699.9999999793,76.5806450457959,1.00000000101296,0.561303374112707
20799.9999999778,76.3116439783136,1.00000000105099,0.554904608624451
20899.9999999764,76.0438015729045,1.00000000101912,0.555545476938043
20999.9999999749,75.7790360518874,1.00000000093344,0.561215853864439
21099.9999999734,75.5200642335544,1.0000000009333,0.555997797947031
21199.999999972,75.2685572334887,1.00000000089704,0.548120364684122
21299.9999999705,75.0254996385526,1.00000000092117,0.552880569522636
21399.9999999691,74.7905334202839,1.00000000094381,0.557583068720553
21499.9999999676,74.5636210065411,1.00000000092105,0.552242039297681
21599.9999999662,74.3430769008189,1.00000000097628,0.554520103656277
21699.9999999647,74.126780974871,1.00000000095602,0.557986396513534
21799.9999999633,73.9137222847344,1.00000000096059,0.560482052300368
21899.9999999618,73.7023117519111,1.00000000101658,0.565725142633019
21999.9999999603,73.4914402277151,1.00000000098687,0.565835194279213
22099.9999999589,73.2826089772883,1.00000000096683,0.55787910221893
22199.9999999574,73.07526623563,1.00000000100879,0.552883129978227
22299.999999956,72.8686891251641,1.0000000009708,0.560458314310758
22399.9999999545,72.6634549899691,1.00000000096816,0.570893735760118
22499.9999999531,72.4615804923664,1.00000000092454,0.566945033234124
22599.9999999516,72.2656648932695,1.00000000091878,0.558216509821513
22699.9999999502,72.0775815811271,1.00000000088867,0.556902459116016
22799.9999999487,71.896916183034,1.00000000090484,0.560816044829797
22899.9999999473,71.7245338306625,1.00000000090425,0.558037871993819
22999.9999999458,71.5597329988688,1.00000000096597,0.555855953022241
23099.9999999443,71.3998576592372,1.00000000100261,0.561768368302354
23199.9999999429,71.2423496764299,1.00000000095722,0.570403030133966
23299.9999999414,71.0852331245767,1.00000000099228,0.573228301122456
23399.99999994,70.9277032642647,1.00000000097877,0.574853309487252
23499.9999999385,70.7703457117489,1.00000000099966,0.567677758817121
23599.9999999371,70.6158865686041,1.00000000091178,0.560815092102965
23699.9999999356,70.4644848676214,1.00000000099854,0.553476083440192
23799.9999999342,70.314283934578,1.00000000092708,0.552393573083902
23899.9999999327,70.1638412504563,1.00000000100676,0.565461727189538
23999.9999999312,70.0110658591339,1.00000000102515,0.578642716165039
24099.9999999298,69.8578556862008,1.00000000100878,0.576193504648892
24199.9999999283,69.707992010638,1.00000000096041,0.566967804757207
24299.9999999269,69.565646090454,1.00000000087891,0.558964299674158
24399.9999999254,69.4325432451236,1.00000000090489,0.555021808208987
24499.999999924,69.3072435488788,1.00000000090898,0.556496093591061
24599.9999999225,69.1886881859626,1.00000000093506,0.556528416574087
24699.9999999211,69.0757014618341,1.00000000100119,0.563527202694162
24799.9999999196,68.9651613727223,1.00000000094226,0.569546547290955
24899.9999999181,68.8558508506261,1.00000000100685,0.577934392565139
24999.9999999167,68.7434751431241,1.00000000106345,0.584172299610291
25099.9999999152,68.6279057608082,1.00000000104682,0.580867325245143
25199.9999999138,68.511582532418,1.00000000099007,0.576202694085775
25299.9999999123,68.3976052535575,1.00000000096272,0.565055243150983
25399.9999999109,68.2895050482996,1.0000000008789,0.560988274069777
25499.9999999094,68.1861614238815,1.00000000087757,0.555640292328171
25599.999999908,68.0844904061639,1.00000000096656,0.561861843008155
25699.9999999065,67.9793784803712,1.00000000108792,0.574636760222476
25799.9999999051,67.8677951259983,1.00000000111026,0.585829031122489
25899.9999999036,67.7522353917069,1.00000000107737,0.58759460897628
25999.9999999021,67.6366813177044,1.00000000096329,0.582507367256776
26099.9999999007,67.5260094042789,1.00000000090132,0.568831602282674
26199.9999998992,67.4241966002832,1.00000000086811,0.560789587636908
26299.9999998978,67.3323313120272,1.00000000086843,0.556955448439719
26399.9999998963,67.2495746759619,1.00000000093208,0.559863781600472
26499.9999998949,67.1724975278314,1.00000000097832,0.566063075686694
26599.9999998934,67.09994807737,1.00000000098862,0.573997770563481
26699.999999892,67.0296428940219,1.00000000098127,0.58402933154071
26799.9999998905,66.9583384962866,1.00000000104663,0.58856572315095
26899.999999889,66.8841645433272,1.00000000108555,0.592213274785965
26999.9999998876,66.8055157433701,1.00000000104221,0.592305607818643
27099.9999998861,66.7245371662761,1.00000000103364,0.584568635603842
27199.9999998847,66.6440810819556,1.00000000098202,0.580152142288679
27299.9999998832,66.5665153309183,1.0000000009406,0.571612029059938
27399.9999998818,66.4947431101532,1.00000000088707,0.571779434733875
27499.9999998803,66.4278551994933,1.0000000009119,0.579592023216485
27599.9999998789,66.3620632919616,1.00000000100226,0.58508408853324
27699.9999998774,66.2941708391562,1.00000000102419,0.586964494369681
27799.9999998759,66.2209041702165,1.00000000107848,0.593901822758459
27899.9999998745,66.1428882335331,1.00000000108887,0.590763544517571
27999.999999873,66.0617582434911,1.0000000010281,0.593422358279274
28099.9999998716,65.9794283432458,1.00000000103502,0.594640480039574
28199.9999998701,65.8987387463407,1.00000000097535,0.589851487361422
28299.9999998687,65.8241616108252,1.00000000088495,0.57536259303891
28399.9999998672,65.7594398476139,1.00000000084244,0.568763706729202
28499.9999998658,65.7051806220456,1.00000000090571,0.569461682414043
28599.9999998643,65.6585984112289,1.00000000093808,0.574063805226883
28699.9999998629,65.617420136807,1.00000000099647,0.581358362334562
28799.9999998614,65.5767801342707,1.00000000099981,0.59164969680703
28899.9999998599,65.5351365031974,1.00000000106654,0.599195765540795
28999.9999998585,65.4914042838267,1.00000000102005,0.607116796637226
