Time,AGPnorm,Energy,Entropy
0,0,1,-1.12119927633522e-17
99.9999999999986,1.1023055927784e-05,0.999999999997214,0.000538444926942251
199.999999999993,0.00102863474873228,0.999999999998702,0.00087603493966233
300,0.00258429757757457,0.999999999999234,0.00150879988703817
400.000000000022,0.00358776041344147,0.999999999996938,0.00263445646761247
500.000000000045,0.00422985145277627,0.999999999999882,0.00354987146819779
600.000000000068,0.00607805136489482,0.999999999997671,0.00494609180163325
700.000000000091,0.00765842366675203,0.999999999998133,0.00640433949162162
800.000000000113,0.00989900079770004,0.999999999999675,0.00784017011762277
900.000000000136,0.0123483100152311,0.999999999996839,0.00971038274323658
1000.00000000016,0.0142139286851806,0.999999999999556,0.0114561363506975
1100.0000000001,0.0171663528616251,0.999999999998254,0.0134041913802284
1200,0.0203050480180488,0.999999999997623,0.0155657637491277
1299.99999999991,0.0233627588593578,0.999999999999899,0.0176179427736767
1399.99999999982,0.0268410125852561,0.99999999999695,0.0200093295395407
1499.99999999973,0.0301940545486209,0.999999999999102,0.0223835650415406
1599.99999999964,0.034363041845524,0.999999999998874,0.0247990838973764
1699.99999999955,0.0385653258741685,0.999999999997212,0.0275115203223003
1799.99999999946,0.0422706323356407,0.999999999999881,0.0301126705200486
1899.99999999937,0.0466796473305315,0.999999999997292,0.0329320845628619
1999.99999999928,0.0514791375541405,0.999999999998611,0.035858644397766
2099.99999999919,0.0566574831502437,0.999999999999389,0.0387360850983855
2199.99999999909,0.0616574649819761,0.999999999996924,0.0419232585897288
2299.999999999,0.0660700681045883,0.999999999999668,0.0450457226834088
2399.99999999891,0.0713420949650363,0.999999999997853,0.048282929100576
2499.99999999882,0.0772087757935579,0.999999999998138,0.0517512976030438
2599.99999999873,0.0829569412453166,0.999999999999682,0.0551214509503998
2699.99999999864,0.0885874287099244,0.999999999996803,0.0587660079506757
2799.99999999855,0.0939295403725312,0.999999999999336,0.0624234487240308
2899.99999999846,0.100041144753822,0.999999999998521,0.0661387551516343
2999.99999999837,0.106462951981636,0.999999999997718,0.0701672349871375
3099.99999999828,0.112384057356776,0.999999999999728,0.0740970015039012
3199.99999999819,0.118455896657084,0.999999999996953,0.0782416603921795
3299.99999999809,0.124824050128091,0.999999999998935,0.0825210784682377
3399.999999998,0.131600522895684,0.999999999999109,0.0868311741338061
3499.99999999791,0.138222228432667,0.999999999997338,0.091484654704779
3599.99999999782,0.144163531951929,0.999999999999622,0.0960900253842553
3699.99999999773,0.150567110382945,0.999999999997438,0.100871195621622
3799.99999999764,0.157696603360947,0.999999999998522,0.105945424989694
3899.99999999755,0.164740138788722,0.999999999999484,0.111048858620959
3999.99999999746,0.171372056859143,0.999999999996999,0.116518039613446
4099.99999999738,0.177447943231688,0.999999999999462,0.122036624923468
4199.99999999775,0.184232797182215,0.999999999998164,0.12776761749456
4299.99999999811,0.191596487454239,0.999999999998244,0.133974077946286
4399.99999999848,0.198499535892155,0.999999999999682,0.140265741966288
4499.99999999884,0.205001139019835,0.999999999997074,0.146994411620178
4599.9999999992,0.211356653022331,0.999999999999611,0.154015228376684
4699.99999999957,0.21861582034661,0.999999999999625,0.16136126909695
4799.99999999993,0.225652192959281,0.999999999999372,0.169390559771498
4900.00000000029,0.232252846577987,1.00000000000193,0.177630514180224
5000.00000000066,0.238936584444923,1.0000000000012,0.186392124021506
5100.00000000102,0.245300720129693,1.00000000000539,0.195676873390607
5200.00000000139,0.253946166978415,1.0000000000091,0.205212100884972
5300.00000000175,0.261065588832798,1.00000000001188,0.215338442632391
5400.00000000211,0.268813424678547,1.00000000001882,0.225402447394491
5500.00000000248,0.280373257935834,1.00000000002423,0.235667336861852
5600.00000000284,0.290506230556472,1.0000000000332,0.246237657641831
5700.00000000321,0.309407619283172,1.00000000004156,0.25658517003658
5800.00000000357,0.330790600760785,1.00000000005111,0.267039511356482
5900.00000000393,0.35771097086571,1.00000000006286,0.277159026579628
6000.0000000043,0.403985437284564,1.0000000000736,0.287093016787923
6100.00000000466,0.455901945966278,1.00000000007763,0.297199033933677
6200.00000000502,0.533775941877624,1.00000000009106,0.306805568646413
6300.00000000539,0.638015327347544,1.00000000010231,0.316291118807
6400.00000000575,0.764466386863169,1.00000000012091,0.325542500946101
6500.00000000612,0.944136567591376,1.0000000001354,0.33443620229604
6600.00000000648,1.15929995723384,1.00000000014352,0.343512254227754
6700.00000000684,1.43131126479054,1.00000000015996,0.351969430355427
6800.00000000721,1.7786492294833,1.00000000016763,0.360272869124161
6900.00000000757,2.18298562735812,1.00000000018562,0.368596263789802
7000.00000000793,2.68770312638442,1.00000000018862,0.376437714567131
7100.0000000083,3.28304115247788,1.00000000020892,0.384226930502789
7200.00000000866,3.97546584575621,1.00000000021029,0.39167278057446
7300.00000000903,4.80510162984214,1.00000000022471,0.398733873353917
7400.00000000939,5.74242917328314,1.00000000023888,0.406004732041017
7500.00000000975,6.82812850148467,1.0000000002393,0.412714627437458
7600.00000001012,8.07177062715602,1.00000000025731,0.419236479105641
7700.00000001048,9.45426518921028,1.00000000026458,0.425704228549357
7800.00000001084,11.0296587955452,1.00000000028316,0.43159422000373
7900.00000001121,12.7702169091932,1.00000000026799,0.437912031623648
8000.00000001157,14.6961480290678,1.00000000028389,0.443428566200693
8100.00000001194,16.8400407313546,1.00000000028728,0.448876878317953
8200.0000000123,19.1598719392246,1.00000000031798,0.454327835404932
8300.00000001266,21.7081866395926,1.00000000031404,0.459305622160447
8400.00000001303,24.47325490563,1.00000000031597,0.464424943068915
8500.00000001339,27.4435844246343,1.00000000030926,0.469200312799468
8600.00000001376,30.6694081467686,1.00000000033084,0.473527191460933
8700.00000001412,34.0996271645977,1.00000000033042,0.47816432320298
8800.00000001448,37.7689874879925,1.00000000032713,0.482279541918825
8900.00000001485,41.6891399010364,1.00000000032599,0.486336204161507
9000.00000001521,45.8178518595163,1.00000000035251,0.490265401895454
9100.00000001557,50.2103488109003,1.00000000035327,0.493775818955742
9200.00000001594,54.8249025030676,1.0000000003523,0.49753824138697
9300.0000000163,59.6661658840432,1.00000000033905,0.500889098739781
9400.00000001667,64.7684091467,1.0000000003623,0.503943452817062
9500.00000001703,70.069667513746,1.00000000034394,0.507379059650258
9600.00000001739,75.6161767745658,1.00000000034718,0.51010755433324
9700.00000001776,81.3879714624202,1.00000000035826,0.513078364257885
9800.00000001812,87.3573872565327,1.00000000035894,0.515680927427071
9900.00000001848,93.5729474848453,1.00000000035145,0.518119539060001
10000.0000000188,99.9697661853164,1.00000000036171,0.520770120493943
10100.0000000192,106.573604764425,1.00000000036586,0.522940930007749
10200.0000000196,113.38940108876,1.00000000035586,0.525315105815035
10300.0000000199,120.365478843872,1.00000000036749,0.527386282598189
10400.0000000203,127.551679865366,1.00000000037255,0.529086471304225
10500.0000000207,134.895178842194,1.00000000036172,0.53131682166637
10600.000000021,142.396045442465,1.00000000037181,0.532903789411344
10700.0000000214,150.080131690437,1.00000000036636,0.534498096781481
10800.0000000218,157.884964151233,1.00000000036812,0.53634078382407
10900.0000000221,165.849269135905,1.00000000036161,0.537627026139117
11000.0000000225,173.942464269716,1.00000000037286,0.539249468467795
11100.0000000229,182.140452278333,1.00000000036065,0.540511844690449
11200.0000000232,190.480860173494,1.00000000035809,0.541492028622855
11300.0000000236,198.901812933424,1.00000000036868,0.54319120924763
11400.0000000239,207.426950360053,1.00000000035896,0.543840527689684
11500.0000000243,216.047361671872,1.00000000035683,0.545006876663029
11600.0000000247,224.721683517598,1.00000000034519,0.546306424472543
11700.000000025,233.490918765314,1.00000000035797,0.546260361570478
11800.0000000254,242.302133580659,1.00000000036019,0.547871368527496
11900.0000000258,251.161879862038,1.00000000035007,0.548535581965569
12000.0000000261,260.08010225187,1.00000000035047,0.548572268848596
12100.0000000265,269.005963456065,1.00000000035475,0.55002486887664
12200.0000000269,277.978600534208,1.00000000035062,0.550219825519318
12300.0000000272,286.957098150015,1.00000000033756,0.550638801142614
12400.0000000276,295.932016474923,1.00000000033904,0.551587289273719
12500.0000000279,304.929849765486,1.00000000033997,0.551292157051741
12600.0000000283,313.895721170305,1.00000000033945,0.552164097441205
12700.0000000287,322.858770963459,1.00000000032934,0.552580657001991
12800.000000029,331.798774645099,1.00000000033324,0.55214945314668
12900.0000000294,340.689629157783,1.00000000034757,0.553048047342563
13000.0000000298,349.565580920214,1.00000000033099,0.553149793109073
13100.0000000301,358.379524538542,1.00000000032685,0.553024405790005
13200.0000000305,367.144900412816,1.00000000033233,0.553576496924535
13300.0000000309,375.861994240799,1.00000000032941,0.553141877456019
13400.0000000312,384.494509645662,1.00000000031741,0.553595593007556
13500.0000000316,393.075064913315,1.00000000031371,0.553826926479221
13600.0000000319,401.570453111984,1.00000000031564,0.55356835653468
13700.0000000323,409.979667060406,1.00000000031816,0.55345802098777
13800.0000000327,418.315868477274,1.00000000031644,0.553415486118973
13900.000000033,426.542211814938,1.0000000003141,0.553404054919774
14000.0000000334,434.684972928362,1.0000000002951,0.553557872156717
14100.0000000338,442.723527407874,1.00000000031376,0.553398099876504
14200.0000000341,450.648757348089,1.00000000031066,0.55291751800453
14300.0000000345,458.477401286006,1.0000000003117,0.552710946576113
14400.0000000349,466.178743315808,1.00000000029399,0.553193050877082
14500.0000000352,473.772168351815,1.00000000029502,0.552831824193556
14600.0000000356,481.244904384326,1.00000000029327,0.55220098747998
14700.0000000359,488.582248164588,1.00000000028569,0.552427288077757
14800.0000000363,495.807294012555,1.00000000029482,0.552133445767793
14900.0000000367,502.893165737815,1.00000000029449,0.551734088551494
15000.000000037,509.848403276877,1.00000000028183,0.551652244724539
15100.0000000374,516.673931779725,1.00000000028203,0.551596657596236
15200.0000000378,523.352048317036,1.00000000027677,0.551293947669357
15300.0000000381,529.901742696539,1.0000000002827,0.550563758149115
15400.0000000385,536.304488295425,1.00000000027597,0.550680856419709
15500.0000000389,542.564774523358,1.00000000027418,0.550584201394303
15600.0000000392,548.688653248999,1.00000000026908,0.549883383373372
15700.0000000396,554.65444999108,1.0000000002681,0.549894787395327
15800.0000000399,560.484376092657,1.0000000002578,0.55001235298109
15900.0000000403,566.165164730722,1.00000000026592,0.549316548267185
16000.0000000407,571.693710209698,1.00000000025499,0.549097876347278
16100.000000041,577.08249234364,1.00000000025062,0.548490528097882
16200.0000000414,582.312632340942,1.00000000025941,0.549245037116051
16300.0000000418,587.403944259235,1.00000000025347,0.548336244818735
16400.0000000418,592.343800101509,1.00000000025492,0.54829849340744
16500.0000000404,597.131558749501,1.00000000025419,0.547647541705016
16600.0000000389,601.777128674639,1.00000000025565,0.547622140673968
16700.0000000375,606.270112390567,1.00000000024703,0.546693173442201
16800.000000036,610.616658503361,1.00000000026483,0.546616173585125
16900.0000000346,614.817774053125,1.00000000024001,0.546528776351813
17000.0000000331,618.864281627288,1.00000000024589,0.546835256562158
17100.0000000317,622.772628264195,1.00000000023546,0.546048451157892
17200.0000000302,626.529326869755,1.00000000023575,0.545101619877245
17300.0000000287,630.141500387064,1.0000000002371,0.54461739003021
17400.0000000273,633.611688957973,1.00000000023556,0.544109093267459
17500.0000000258,636.931238275667,1.00000000023106,0.544713772442123
17600.0000000244,640.114859209409,1.00000000022963,0.544824651424277
17700.0000000229,643.154105977089,1.0000000002327,0.545168413711956
17800.0000000215,646.052936035291,1.00000000023065,0.544237192335828
17900.00000002,648.816059801672,1.0000000002299,0.54269806608523
18000.0000000186,651.43440878148,1.00000000022337,0.541233291193208
18100.0000000171,653.91863772863,1.00000000022028,0.541112974563355
18200.0000000156,656.265838708213,1.00000000021789,0.542155096271956
18300.0000000142,658.476702375204,1.00000000022215,0.54406965898326
18400.0000000127,660.562922201335,1.00000000022487,0.544933661577392
18500.0000000113,662.5165008822,1.00000000022197,0.544092514119733
18600.0000000098,664.347190649739,1.00000000021607,0.541479938195739
18700.0000000084,666.049214099324,1.00000000020835,0.537783014129933
18800.0000000069,667.617771820698,1.00000000020541,0.536722022972423
18900.0000000055,669.061418075184,1.00000000020137,0.537791484162671
19000.000000004,670.376931248524,1.00000000020495,0.541988034071736
19100.0000000026,671.578363703214,1.00000000020871,0.545734398725708
19200.0000000011,672.672156234011,1.00000000021263,0.547054346764772
19299.9999999996,673.657116349072,1.00000000021018,0.544788559168904
19399.9999999982,674.537578220383,1.00000000019909,0.538692914831265
19499.9999999967,675.300545062029,1.00000000018851,0.532866414479361
19599.9999999953,675.943375623576,1.00000000017985,0.530053303801128
19699.9999999938,676.467359899083,1.00000000018459,0.53312538748872
19799.9999999924,676.877544372121,1.00000000019062,0.540343464646737
19899.9999999909,677.194784322463,1.00000000019994,0.547700823727395
19999.9999999895,677.429204928626,1.00000000021669,0.551358328690577
20099.999999988,677.58775368521,1.00000000020751,0.548590784279649
20199.9999999865,677.668163048948,1.00000000020652,0.540445076027964
20299.9999999851,677.653803258953,1.00000000018285,0.529617985770957
20399.9999999836,677.53607048915,1.00000000016463,0.521780281901905
20499.9999999822,677.306531585261,1.00000000016209,0.521583957247027
20599.9999999807,676.972562236942,1.00000000017171,0.530410722562069
20699.9999999793,676.556100897273,1.00000000019068,0.542989466248123
20799.9999999778,676.075369339937,1.00000000021881,0.552816649429652
20899.9999999764,675.550789202901,1.00000000023139,0.555911078108653
20999.9999999749,674.984633461248,1.00000000022924,0.550809708857297
21099.9999999734,674.365992789473,1.00000000020222,0.537978564829134
21199.999999972,673.678452063397,1.00000000017561,0.521691164792161
21299.9999999705,672.89842860504,1.00000000015162,0.508934487855695
21399.9999999691,672.021593599372,1.00000000014568,0.507378601871453
21499.9999999676,671.0541913094,1.00000000016045,0.518910060626807
21599.9999999662,670.017818068846,1.00000000019194,0.536986741757239
21699.9999999647,668.942470498738,1.00000000023114,0.552574757210402
21799.9999999633,667.847759435178,1.00000000023136,0.560684968850116
21899.9999999618,666.744760467718,1.00000000025068,0.558233468993933
21999.9999999603,665.627293727076,1.00000000022818,0.546251405044922
22099.9999999589,664.473522406911,1.00000000019672,0.526344206670245
22199.9999999574,663.262171903279,1.00000000015961,0.504078878924324
22299.999999956,661.969562037139,1.00000000012647,0.489555145800973
22399.9999999545,660.592931146533,1.00000000012939,0.491458830574536
22499.9999999531,659.145025621515,1.00000000014674,0.510071327302191
22599.9999999516,657.649803081628,1.00000000019956,0.535012466971543
22699.9999999502,656.139661598949,1.00000000023269,0.55443288400696
22799.9999999487,654.634379068672,1.00000000026011,0.564137897435539
22899.9999999473,653.14420208477,1.0000000002655,0.563443596440699
22999.9999999458,651.664667230393,1.00000000024481,0.552116126446014
23099.9999999443,650.175255375179,1.00000000022164,0.530350532349222
23199.9999999429,648.653664010492,1.00000000016582,0.502806924082921
23299.9999999414,647.073246941566,1.00000000012755,0.478303942969434
23399.99999994,645.421113961675,1.00000000011237,0.468995538401165
23499.9999999385,643.702477490844,1.00000000012867,0.480858268639347
23599.9999999371,641.933703628078,1.00000000016992,0.509114863852579
23699.9999999356,640.145338500259,1.00000000021097,0.538359821210766
23799.9999999342,638.361974292903,1.00000000026266,0.558622299692377
23899.9999999327,636.601239652953,1.0000000002868,0.567557108838801
23999.9999999312,634.871106511094,1.0000000002885,0.566424232041174
24099.9999999298,633.16454791301,1.00000000026761,0.55562174192825
24199.9999999283,631.466847569529,1.00000000023075,0.533897363419171
24299.9999999269,629.75444921684,1.00000000018781,0.503832391033453
24399.9999999254,628.00275296617,1.00000000013277,0.472975831335948
24499.999999924,626.198582726042,1.00000000010233,0.45346410664857
24599.9999999225,624.335232988633,1.00000000010626,0.455083999111842
24699.9999999211,622.427294069433,1.00000000013728,0.479348238094934
24799.9999999196,620.494811006523,1.00000000018913,0.513555636645709
24899.9999999181,618.560467739814,1.00000000023853,0.543462471289043
24999.9999999167,616.646069939555,1.00000000028491,0.561353769785348
25099.9999999152,614.762702341428,1.00000000030142,0.567854761672913
25199.9999999138,612.914556444352,1.00000000029124,0.566064185640063
25299.9999999123,611.09727867177,1.00000000028766,0.556621731917581
25399.9999999109,609.296922929197,1.00000000024053,0.53683767368903
25499.9999999094,607.496688087443,1.00000000020127,0.507939303835527
25599.999999908,605.675953515848,1.000000000147,0.474289736001621
25699.9999999065,603.819851276087,1.00000000010836,0.44705442622708
25799.9999999051,601.922376161397,1.00000000009403,0.437219634758461
25899.9999999036,599.985058980481,1.00000000010994,0.449624673652795
25999.9999999021,598.023481037594,1.00000000015046,0.479225661041406
26099.9999999007,596.053013253258,1.00000000019707,0.514473921374888
26199.9999998992,594.090879278586,1.00000000025667,0.543102375864869
26299.9999998978,592.151816018264,1.00000000028217,0.558930056780298
26399.9999998963,590.242844688145,1.00000000029735,0.564464577223991
26499.9999998949,588.367513308058,1.0000000002967,0.562276417415958
26599.9999998934,586.523117105596,1.00000000029217,0.554828771540745
26699.999999892,584.700769387277,1.00000000024712,0.539087259475816
26799.9999998905,582.889081640505,1.00000000021679,0.516389034501721
26899.999999889,581.073628223653,1.00000000018576,0.48706698156392
26999.9999998876,579.243146179517,1.00000000013392,0.45575206499368
27099.9999998861,577.388894890112,1.00000000011257,0.435368477271851
27199.9999998847,575.507993904474,1.00000000010675,0.430297630474004
27299.9999998832,573.606560347624,1.00000000012292,0.442650431983269
27399.9999998818,571.690996268773,1.00000000015246,0.468687431946097
27499.9999998803,569.773777810397,1.00000000019922,0.501516309207073
27599.9999998789,567.865545190722,1.00000000023975,0.52915649838353
27699.9999998774,565.974844678847,1.00000000027689,0.548336632560671
27799.9999998759,564.108596074655,1.00000000028742,0.554745458757099
27899.9999998745,562.269139922124,1.00000000030372,0.555170172694236
27999.999999873,560.456427808523,1.00000000029133,0.549315343536793
28099.9999998716,558.666876437734,1.00000000026895,0.540055733707878
28199.9999998701,556.894535476013,1.00000000025959,0.52727223957388
28299.9999998687,555.131948734326,1.00000000020993,0.50683282870958
28399.9999998672,553.370684271893,1.00000000019442,0.48582221069988
28499.9999998658,551.604273185811,1.00000000015594,0.460540003109453
28599.9999998643,549.828393042821,1.00000000013393,0.442098559648399
28699.9999998629,548.040420065613,1.00000000012129,0.43203009023348
28799.9999998614,546.243415651281,1.00000000012813,0.434135811049471
