Time,AGPnorm,Energy,Entropy
0,0,1,-4.80513975572262e-19
99.9999999999986,0.00287552197425139,1.0000000000005,0.00975962033440572
199.999999999993,0.0084137771391692,1.00000000000092,0.0289434818725956
300,0.0177480919201426,0.999999999999751,0.0562910311609615
400.000000000022,0.0280558756547662,1.00000000000197,0.09067282205603
500.000000000045,0.0403744369221099,1.00000000000007,0.133260999401407
600.000000000068,0.0530808609573256,1.0000000000122,0.18754870798284
700.000000000091,0.066269044907338,1.00000000007122,0.257068086047758
800.000000000113,0.111918578483993,1.0000000002542,0.337347383477026
900.000000000136,0.27397409826909,1.00000000052884,0.411806770658036
1000.00000000016,0.788340948711292,1.00000000078411,0.469055592929609
1100.0000000001,1.90455646921169,1.00000000093485,0.508798256797113
1200,3.80483015521675,1.00000000115533,0.532799017334851
1299.99999999991,6.55873406552988,1.00000000118221,0.547553650011733
1399.99999999982,10.063738191543,1.00000000116816,0.553564574549114
1499.99999999973,14.1516911278333,1.00000000127538,0.554979282805841
1599.99999999964,18.5997958652026,1.00000000117414,0.553236512927445
1699.99999999955,23.1615960292172,1.00000000112422,0.547666963999884
1799.99999999946,27.6619854134125,1.00000000111083,0.541431724147352
1899.99999999937,31.8803349250817,1.00000000101836,0.534067226451398
1999.99999999928,35.739698231205,1.00000000100404,0.527105979939581
2099.99999999919,39.0892354001061,1.00000000088839,0.516102742580785
2199.99999999909,41.9335906201586,1.00000000093306,0.519133786231881
2299.999999999,44.2162730955509,1.00000000085484,0.499812886675532
2399.99999999891,45.9351682893276,1.00000000074743,0.49493977199812
2499.99999999882,47.1821164660139,1.00000000086919,0.524038347214899
2599.99999999873,47.9741456509688,1.00000000067414,0.473797620015496
2699.99999999864,48.2453797525026,1.00000000058792,0.46607695617963
2799.99999999855,48.2266351725663,1.00000000078183,0.542023250604963
2899.99999999846,48.0740166876516,1.00000000069414,0.504882331273529
2999.99999999837,47.5697748212272,1.00000000038509,0.393352717701283
3099.99999999828,46.7654565680064,1.00000000060637,0.469274298087029
3199.99999999819,45.9684228901153,1.00000000100846,0.562761509597458
3299.99999999809,45.2692006016588,1.0000000008466,0.530254496331707
3399.999999998,44.4602575591698,1.000000000416,0.372024327531037
3499.99999999791,43.4388922849976,1.00000000033531,0.33912450741411
3599.99999999782,42.3716886223181,1.00000000082447,0.484064223418015
3699.99999999773,41.3956588303954,1.0000000011012,0.551109298618668
3799.99999999764,40.5623094766737,1.00000000098577,0.55520258173753
3899.99999999755,39.7722314997665,1.00000000070074,0.457521697082243
3999.99999999746,38.9099697045117,1.00000000032158,0.303038759726527
4099.99999999738,38.012800259618,1.00000000034922,0.306904411075538
4199.99999999775,37.137418126466,1.00000000072028,0.447812522603293
4299.99999999811,36.2841183338371,1.00000000089741,0.51708816232891
4399.99999999848,35.473145157447,1.00000000098212,0.507783551635911
4499.99999999884,34.7287520733171,1.00000000107106,0.54926385705485
4599.9999999992,34.0452655018856,1.00000000086035,0.543586258605325
4699.99999999957,33.3733690048063,1.00000000050953,0.425988969262886
4799.99999999993,32.714508781124,1.00000000030494,0.295814203668782
4900.00000000029,32.1384965929113,1.00000000035521,0.287078199970215
5000.00000000066,31.6572754294999,1.00000000058276,0.384051339714195
5100.00000000102,31.1866140541862,1.00000000084549,0.485480726174595
5200.00000000139,30.6731861901624,1.00000000093395,0.54417858778332
5300.00000000175,30.1527648264747,1.00000000069649,0.503076167684634
5400.00000000211,29.6484860068304,1.00000000061841,0.448622188503808
5500.00000000248,29.1385894319012,1.00000000094926,0.491402591718493
5600.00000000284,28.6224020735916,1.00000000110206,0.552511143183382
5700.00000000321,28.1268056052995,1.00000000099926,0.568176826259069
5800.00000000357,27.6539712491827,1.00000000068078,0.511563802013074
5900.00000000393,27.2064426864265,1.00000000042451,0.399382524641542
6000.0000000043,26.8440741326108,1.00000000025226,0.298366169607754
6100.00000000466,26.6388794010721,1.00000000029608,0.271516456351522
6200.00000000502,26.5844397498755,1.00000000053261,0.335911225221204
6300.00000000539,26.5894700796117,1.00000000070684,0.429482156260722
6400.00000000575,26.5658624169367,1.00000000080462,0.498897732528065
6500.00000000612,26.4681435367546,1.00000000082712,0.515593783823505
6600.00000000648,26.291194107937,1.00000000086735,0.517979684413229
6700.00000000684,26.0516139228497,1.00000000085327,0.539415674597973
6800.00000000721,25.7845485783236,1.00000000070087,0.531850939521267
6900.00000000757,25.5345222859952,1.00000000053068,0.488153489567648
7000.00000000793,25.3118530435116,1.00000000055393,0.477023820795469
7100.0000000083,25.0863884191223,1.00000000068924,0.504171895920826
7200.00000000866,24.8359463059266,1.00000000074994,0.508646305687638
7300.00000000903,24.5582575249026,1.00000000088292,0.508202764013949
7400.00000000939,24.2546265476616,1.00000000095541,0.528524199137581
7500.00000000975,23.9381036640048,1.00000000104324,0.561321340009724
7600.00000001012,23.6282266092421,1.00000000094195,0.572298561896162
7700.00000001048,23.3275718206499,1.00000000075775,0.540540734387338
7800.00000001084,23.0384260087756,1.0000000005064,0.467112890282202
7900.00000001121,22.7979803904157,1.00000000032779,0.377138809649536
8000.00000001157,22.676145009955,1.00000000023693,0.311495609194298
8100.00000001194,22.7370369675084,1.00000000028421,0.280125920491192
8200.0000000123,22.9924099103322,1.00000000036353,0.303636081634548
8300.00000001266,23.3861915847237,1.00000000058213,0.363675138794952
8400.00000001303,23.8217245209145,1.0000000007172,0.424648967916297
8500.00000001339,24.2077057235517,1.0000000008735,0.483380451951125
8600.00000001376,24.5037610760289,1.0000000007921,0.5156635207835
8700.00000001412,24.7139855346637,1.00000000080172,0.528013720917211
8800.00000001448,24.8445988129229,1.00000000076057,0.545552082658328
8900.00000001485,24.8995423630725,1.00000000077752,0.563707695314083
9000.00000001521,24.9023967138887,1.00000000067564,0.545025066687092
9100.00000001557,24.8757067532236,1.00000000068077,0.523372238991345
9200.00000001594,24.8197744938987,1.00000000075013,0.516660749374937
9300.0000000163,24.7231881437291,1.00000000088106,0.528679532625254
9400.00000001667,24.5890113494136,1.00000000080285,0.537847060529968
9500.00000001703,24.4466298588376,1.00000000065903,0.529044425731755
9600.00000001739,24.3239509187078,1.00000000060419,0.504301504150508
9700.00000001776,24.2207907998315,1.00000000063057,0.493309424995304
9800.00000001812,24.1203191067887,1.00000000072246,0.496251220579493
9900.00000001848,24.0181924979141,1.00000000071146,0.506762979262528
10000.0000000188,23.9135279266971,1.00000000067189,0.511884461001721
10100.0000000192,23.8052169781486,1.00000000067113,0.521345191512744
10200.0000000196,23.6877805602102,1.00000000078608,0.533350248923596
10300.0000000199,23.5545612473192,1.00000000074871,0.546637065270071
10400.0000000203,23.4130295469118,1.00000000066413,0.550343788601835
10500.0000000207,23.2699282673211,1.00000000060824,0.549925578930564
10600.000000021,23.1281273503656,1.0000000006208,0.544526649898763
10700.0000000214,22.9800033966754,1.00000000065963,0.545835499443785
10800.0000000218,22.8175648383869,1.00000000076008,0.552059305284075
10900.0000000221,22.6393123830223,1.00000000078839,0.551794841582909
11000.0000000225,22.4489129868446,1.00000000088686,0.559728107233897
11100.0000000229,22.2558048898938,1.00000000096652,0.560656522312465
11200.0000000232,22.0708658720944,1.00000000101008,0.568484168329783
11300.0000000236,21.9030885007439,1.00000000110939,0.577486548960801
11400.0000000239,21.7519042289534,1.00000000090598,0.576993097775632
11500.0000000243,21.603730305892,1.00000000082187,0.565299976219665
11600.0000000247,21.4434051818137,1.00000000063447,0.528559214341592
11700.000000025,21.2683875858719,1.00000000047561,0.474892374922937
11800.0000000254,21.1006401656986,1.0000000003392,0.415106601906722
11900.0000000258,20.983934101444,1.00000000028614,0.361468173744033
12000.0000000261,20.9735950553538,1.00000000021808,0.31563329510778
12100.0000000265,21.1234091821205,1.00000000025461,0.298644957673074
12200.0000000269,21.463023067627,1.00000000032037,0.297886892025616
12300.0000000272,21.9979479193569,1.00000000035885,0.311315574367579
12400.0000000276,22.6851818698985,1.00000000059557,0.347351243907609
12500.0000000279,23.4515668347135,1.00000000061564,0.390157769752961
12600.0000000283,24.2379729545857,1.00000000080749,0.429114279933336
12700.0000000287,24.9807330470101,1.00000000079628,0.467510474885258
12800.000000029,25.6435988142478,1.00000000088815,0.499722658740623
12900.0000000294,26.2252637207768,1.00000000081097,0.517403792495831
13000.0000000298,26.7245828880285,1.00000000081549,0.529211021647921
13100.0000000301,27.1453316443701,1.00000000079864,0.553695827920583
13200.0000000305,27.4901581455786,1.00000000078913,0.568391275866367
13300.0000000309,27.7689490912022,1.00000000076937,0.568428468470312
13400.0000000312,27.9899940703176,1.00000000073872,0.558712946507761
13500.0000000316,28.1622436812822,1.0000000007356,0.562069053966512
13600.0000000319,28.2890128146729,1.00000000078042,0.578739971831207
13700.0000000323,28.3658178935604,1.00000000076056,0.587188398443059
13800.0000000327,28.4031635852839,1.00000000076294,0.575780171010455
13900.000000033,28.4128379237741,1.00000000074205,0.562413852332687
14000.0000000334,28.3953473658808,1.00000000074572,0.549705038095034
14100.0000000338,28.3592890233496,1.00000000076738,0.541959860912152
14200.0000000341,28.3165433930223,1.00000000068068,0.539045596102563
14300.0000000345,28.2612846947312,1.0000000007634,0.552874841181771
14400.0000000349,28.188381945971,1.00000000070762,0.551144859001969
14500.0000000352,28.1038592033752,1.00000000072146,0.561919128079867
14600.0000000356,28.0093438744479,1.00000000076938,0.568170114975878
14700.0000000359,27.9030838696703,1.00000000075526,0.564891506409357
14800.0000000363,27.7886428110854,1.00000000074377,0.563223088117778
14900.0000000367,27.6699655666763,1.0000000007554,0.564600356252935
15000.000000037,27.550984719573,1.00000000064945,0.554160673284002
15100.0000000374,27.4377882010381,1.00000000058337,0.545614821815893
15200.0000000378,27.3315618767462,1.0000000006285,0.540581623089671
15300.0000000381,27.2248221607604,1.00000000074622,0.53955362456777
15400.0000000385,27.1123511571433,1.0000000008123,0.546337623801373
15500.0000000389,26.9953549023542,1.00000000078792,0.551925871950888
15600.0000000392,26.8703523394234,1.00000000084656,0.560217124768042
15700.0000000396,26.737764013505,1.0000000007695,0.56606115950175
15800.0000000399,26.6044935028285,1.00000000067335,0.5612908129428
15900.0000000403,26.4783275625098,1.00000000063243,0.551960688550555
16000.0000000407,26.3647977905753,1.00000000063234,0.543672901491272
16100.000000041,26.2666946994761,1.00000000065349,0.534320365234941
16200.0000000414,26.1843477710091,1.00000000061269,0.526738024974322
16300.0000000418,26.1184513876709,1.00000000061556,0.512061947362154
16400.0000000418,26.0598248080642,1.0000000007697,0.503312735823063
16500.0000000404,25.9999562609486,1.00000000071789,0.507902562596023
16600.0000000389,25.9426222321454,1.0000000006618,0.510081102938496
16700.0000000375,25.8937105441161,1.00000000063271,0.514871614213087
16800.000000036,25.8509950318693,1.00000000071056,0.536132969790215
16900.0000000346,25.8076808801464,1.00000000069403,0.557592370046643
17000.0000000331,25.7609180052468,1.00000000075463,0.568857112943771
17100.0000000317,25.7042599382697,1.00000000078836,0.564745956062191
17200.0000000302,25.6370300920959,1.00000000075843,0.553985902500536
17300.0000000287,25.566938252821,1.00000000067763,0.547795388464698
17400.0000000273,25.5013875452227,1.00000000067433,0.552762013862593
17500.0000000258,25.4361903439992,1.00000000070734,0.563179903551814
17600.0000000244,25.3642112129926,1.00000000076697,0.573272814979584
17700.0000000229,25.2905821771837,1.00000000065528,0.581611919682953
17800.0000000215,25.2174210555672,1.00000000073819,0.581974746433146
17900.00000002,25.1375760222646,1.0000000007541,0.590464419171779
18000.0000000186,25.0499872017085,1.00000000076422,0.586999778452938
18100.0000000171,24.9573207979766,1.00000000070643,0.585856182570972
18200.0000000156,24.859393758878,1.00000000079373,0.59026084283636
18300.0000000142,24.7575605493253,1.0000000007703,0.597142199982117
18400.0000000127,24.6581324777322,1.00000000060695,0.585017630534484
18500.0000000113,24.5638800433617,1.00000000063101,0.575848739950311
18600.0000000098,24.4700921502566,1.00000000079969,0.576066812106157
18700.0000000084,24.3735551552139,1.00000000074121,0.568515381257264
18800.0000000069,24.2774604044096,1.00000000066122,0.562589180608504
18900.0000000055,24.1849825054652,1.00000000064041,0.571664160237073
19000.000000004,24.0943343187358,1.00000000069965,0.578396099884792
19100.0000000026,24.0032377679741,1.00000000073819,0.581771758893855
19200.0000000011,23.9123059439664,1.00000000068527,0.577886775389841
19299.9999999996,23.8227874580155,1.00000000068981,0.584385993757573
19399.9999999982,23.7331214231618,1.00000000073256,0.575024777263115
19499.9999999967,23.6398782783566,1.0000000007831,0.57553247776481
19599.9999999953,23.5420306488514,1.00000000075543,0.58318748099741
19699.9999999938,23.4406328614184,1.00000000075243,0.575212863848162
19799.9999999924,23.3380296948941,1.00000000074578,0.571025001392099
19899.9999999909,23.2336319790832,1.00000000073485,0.578120972827358
19999.9999999895,23.1270808077729,1.00000000079014,0.598057026567505
20099.999999988,23.018080986632,1.00000000079069,0.607292804899968
20199.9999999865,22.9086709692056,1.00000000073289,0.604117703875465
20299.9999999851,22.8003743502803,1.00000000064255,0.591798170051601
20399.9999999836,22.693669843369,1.00000000068084,0.590479161162708
20499.9999999822,22.5862779159238,1.0000000008093,0.601792785286314
20599.9999999807,22.4777569025213,1.00000000077855,0.611830236465026
20699.9999999793,22.3701356557052,1.00000000066833,0.605553937740021
20799.9999999778,22.2633723992603,1.00000000058937,0.579537199309257
20899.9999999764,22.1575368385448,1.00000000066328,0.587657686253153
20999.9999999749,22.0525643167235,1.00000000067198,0.598091216801915
21099.9999999734,21.9486217959534,1.00000000063927,0.593973504277012
21199.999999972,21.8458086471438,1.0000000006536,0.591694804116463
21299.9999999705,21.7446578073362,1.00000000064224,0.590801731835966
21399.9999999691,21.6454943743676,1.00000000066491,0.599418278497171
21499.9999999676,21.5502006349205,1.00000000070202,0.599199559547357
21599.9999999662,21.4603529359904,1.00000000074251,0.593558227974568
21699.9999999647,21.378943817988,1.00000000078668,0.602455756587762
21799.9999999633,21.3101735357634,1.00000000086388,0.61033436184234
21899.9999999618,21.2572376400965,1.00000000088811,0.607744043317796
21999.9999999603,21.2291754294674,1.00000000088261,0.611285199444598
22099.9999999589,21.2247272869658,1.00000000100048,0.618087121294591
22199.9999999574,21.2588341031946,1.00000000093174,0.619669110860422
22299.999999956,21.3261328062708,1.00000000101667,0.624018376326341
22399.9999999545,21.4421251900206,1.00000000106726,0.625436329752306
22499.9999999531,21.5945681174194,1.00000000110209,0.618528237836937
22599.9999999516,21.7945600952605,1.00000000110783,0.612549624980466
22699.9999999502,22.0305327340527,1.00000000106681,0.602187627370599
22799.9999999487,22.2949031842675,1.00000000098196,0.593674267588412
22899.9999999473,22.5697370405265,1.000000000973,0.586095415248132
22999.9999999458,22.8266742802522,1.00000000082336,0.577137370738789
23099.9999999443,23.054007063853,1.00000000071082,0.561027716232765
23199.9999999429,23.2245905989111,1.00000000066858,0.539102936186277
23299.9999999414,23.3368375936925,1.00000000056923,0.510143909565708
23399.99999994,23.3815472185988,1.00000000046989,0.482197836250946
23499.9999999385,23.3662145943479,1.00000000041667,0.451717788428286
23599.9999999371,23.310099531224,1.0000000003714,0.418892572840385
23699.9999999356,23.2247671175081,1.00000000032404,0.392737378312859
23799.9999999342,23.1493201631618,1.00000000027286,0.365327118963024
23899.9999999327,23.1035413355462,1.0000000002697,0.340639092537469
23999.9999999312,23.1268903878338,1.00000000024181,0.322218845429668
24099.9999999298,23.2506222273874,1.00000000021824,0.306305039674085
24199.9999999283,23.5005966353331,1.00000000024038,0.30027129379102
24299.9999999269,23.9065758789971,1.00000000026571,0.297087330019761
24399.9999999254,24.4808737574381,1.00000000030699,0.303767942569041
24499.999999924,25.2202093403772,1.00000000035722,0.312626739555148
24599.9999999225,26.1373444217796,1.0000000004115,0.325457120851094
24699.9999999211,27.1809593423755,1.00000000048978,0.338406539196941
24799.9999999196,28.3707878339331,1.0000000006004,0.358116848503768
24899.9999999181,29.6205844076412,1.00000000061283,0.377612204619439
24999.9999999167,30.9576957097065,1.00000000076742,0.396278272336027
25099.9999999152,32.2854194633448,1.00000000074871,0.416302534715786
25199.9999999138,33.6325981071566,1.00000000081189,0.426958020569612
25299.9999999123,34.9351107487857,1.00000000084684,0.444102898327006
25399.9999999109,36.1929541748147,1.000000000783,0.462566151036937
25499.9999999094,37.4042840774383,1.00000000083445,0.478740627047463
25599.999999908,38.5359302686375,1.00000000085963,0.485438144918026
25699.9999999065,39.6106366192659,1.00000000089344,0.497168562268106
25799.9999999051,40.5957062183335,1.00000000086343,0.516505125208839
25899.9999999036,41.5283444139005,1.00000000080395,0.524252372516289
25999.9999999021,42.3832729072734,1.0000000008238,0.531156249376887
26099.9999999007,43.1743551665506,1.0000000008133,0.535951982434327
26199.9999998992,43.9011312116894,1.00000000079985,0.549639622073565
26299.9999998978,44.5621349497982,1.00000000078398,0.559056641132219
26399.9999998963,45.1792777097328,1.00000000077676,0.570908403658009
26499.9999998949,45.7355161485676,1.00000000076167,0.572016502617391
26599.9999998934,46.2570490973615,1.00000000075865,0.57286176255838
26699.999999892,46.722152154784,1.00000000080337,0.578154016582725
26799.9999998905,47.1417083255567,1.0000000008414,0.593653900394376
26899.999999889,47.5060667389937,1.00000000083409,0.604612972231684
26999.9999998876,47.8315680103519,1.00000000075118,0.599079717755656
27099.9999998861,48.1289850727042,1.00000000072968,0.59143742789234
27199.9999998847,48.3881507788576,1.00000000083512,0.586507307304774
27299.9999998832,48.6112922181409,1.00000000084236,0.602763212457993
27399.9999998818,48.7821884893539,1.00000000091109,0.614738943165681
27499.9999998803,48.9223565480745,1.00000000077075,0.621949086474505
27599.9999998789,49.0328491117566,1.0000000007465,0.607525188077695
27699.9999998774,49.1324967208984,1.00000000072948,0.589481675127331
27799.9999998759,49.2141398467963,1.00000000074834,0.584585402404287
27899.9999998745,49.2678600504756,1.00000000083342,0.595893513656729
27999.999999873,49.289741935343,1.00000000083519,0.607631561627618
28099.9999998716,49.2853360518064,1.00000000077727,0.60112718433908
28199.9999998701,49.2724630325377,1.00000000069212,0.601394345617574
28299.9999998687,49.2500457091506,1.00000000068132,0.593797043498911
28399.9999998672,49.2235714949781,1.00000000072564,0.592362906024753
28499.9999998658,49.1842930026584,1.00000000073778,0.58487147060476
28599.9999998643,49.1328988762103,1.00000000075078,0.572231316596594
28699.9999998629,49.070312298489,1.00000000069053,0.566916207025794
28799.9999998614,48.9987783224168,1.00000000077189,0.575413735098036
28899.9999998599,48.9192343010343,1.00000000077793,0.596009108259693
28999.9999998585,48.8310014154911,1.00000000074756,0.598313352964372
