Time,AGPnorm,Energy,Entropy
0,0,1,-7.4891535335617e-17
99.9999999999986,0.00231542015717425,1.0000000000002,0.00678851350278742
199.999999999993,0.0156113638033715,1.00000000000034,0.0195236295045309
300,0.0305218047834575,1.0000000000006,0.0359720202836613
400.000000000022,0.0456854216182897,1.00000000000055,0.0569027924093973
500.000000000045,0.0628501966515232,0.99999999999943,0.0826250665043808
600.000000000068,0.0858885702251124,1.00000000000009,0.113660429579231
700.000000000091,0.105266566522701,1.00000000000185,0.151457104046821
800.000000000113,0.126112042165907,1.00000000003204,0.200817208825886
900.000000000136,0.143329936858252,1.000000000235,0.264950645555649
1000.00000000016,0.164843028873552,1.00000000073911,0.332195616105544
1100.0000000001,0.26784289318508,1.00000000138455,0.392013711250084
1200,0.539725546210448,1.00000000196608,0.441742499577105
1299.99999999991,1.05436776884112,1.00000000247509,0.483080871203353
1399.99999999982,1.92802259027548,1.00000000281647,0.515677260022048
1499.99999999973,3.23089572642733,1.00000000291498,0.540959656719579
1599.99999999964,4.94008865966465,1.00000000306815,0.560783394104816
1699.99999999955,7.01557988637332,1.00000000297761,0.576220148342204
1799.99999999946,9.41383970753397,1.00000000315158,0.58593062928049
1899.99999999937,12.026727452007,1.00000000302023,0.592582709266581
1999.99999999928,14.732033604454,1.00000000296009,0.597796697315847
2099.99999999919,17.4573113263913,1.00000000270414,0.600770819193711
2199.99999999909,20.1459048728236,1.00000000281639,0.600592498363955
2299.999999999,22.7187298499566,1.00000000270797,0.599551266471694
2399.99999999891,25.0943921533082,1.00000000256341,0.597862800965723
2499.99999999882,27.2343684640986,1.00000000260617,0.597368447884119
2599.99999999873,29.1325349122914,1.00000000224753,0.595283404868393
2699.99999999864,30.7793036524782,1.00000000214117,0.591529335873122
2799.99999999855,32.1573043553298,1.00000000204521,0.588427632445114
2899.99999999846,33.2610732064627,1.00000000201058,0.587170469573437
2999.99999999837,34.1030419294979,1.00000000191304,0.584964977824589
3099.99999999828,34.70944569436,1.00000000180498,0.581067385026941
3199.99999999819,35.1001731941463,1.00000000181033,0.584255443275951
3299.99999999809,35.285467076781,1.00000000174904,0.583400798542727
3399.999999998,35.2985895952723,1.00000000159241,0.571957136818548
3499.99999999791,35.1657320908896,1.00000000186299,0.584064382317906
3599.99999999782,34.9060539206819,1.00000000172971,0.564957412340181
3699.99999999773,34.572270526973,1.00000000176379,0.567943861641588
3799.99999999764,34.1481450296552,1.00000000181282,0.566568597293431
3899.99999999755,33.6850908697033,1.00000000172287,0.558718262282905
3999.99999999746,33.1634801884763,1.00000000180274,0.555469441252287
4099.99999999738,32.6330026767215,1.00000000190976,0.553958901966316
4199.99999999775,32.0740103701233,1.00000000172401,0.535619429373694
4299.99999999811,31.5084467845261,1.00000000219489,0.565574989229783
4399.99999999848,30.9433192608553,1.00000000169217,0.534147693671153
4499.99999999884,30.3658866266399,1.00000000196094,0.540362826067297
4599.9999999992,29.8073949053355,1.00000000196496,0.531196876973709
4699.99999999957,29.2523629099426,1.00000000170507,0.53204367554711
4799.99999999993,28.6994694921057,1.0000000019729,0.535850462662482
4900.00000000029,28.1648832172428,1.00000000199156,0.522358894872489
5000.00000000066,27.6401513801245,1.00000000185818,0.52385532446826
5100.00000000102,27.1242896221848,1.00000000182215,0.530697510400495
5200.00000000139,26.6246264273432,1.00000000202193,0.526021875761345
5300.00000000175,26.1404186925489,1.00000000166047,0.503746804982598
5400.00000000211,25.6702878606803,1.00000000184516,0.539946692543903
5500.00000000248,25.2131262987278,1.00000000180327,0.528448957664064
5600.00000000284,24.7729787934409,1.00000000187994,0.516434443359417
5700.00000000321,24.3480985314715,1.000000001739,0.5080206900466
5800.00000000357,23.9413540817439,1.00000000187664,0.539465514144506
5900.00000000393,23.5467137497967,1.00000000186885,0.546191125672508
6000.0000000043,23.1694719460217,1.00000000168854,0.514845880721837
6100.00000000466,22.8074675993838,1.00000000192863,0.507932737585556
6200.00000000502,22.4615644030801,1.00000000172184,0.513091012558934
6300.00000000539,22.1313619213971,1.00000000189891,0.542706526483042
6400.00000000575,21.8095399878492,1.00000000193028,0.546624881961422
6500.00000000612,21.5044035224085,1.00000000182427,0.516618721012466
6600.00000000648,21.2152089183948,1.00000000188735,0.517799163869245
6700.00000000684,20.9379216065353,1.00000000183608,0.503143625746973
6800.00000000721,20.6752784480492,1.00000000187237,0.52192941048968
6900.00000000757,20.4213248340689,1.00000000194209,0.543858529730262
7000.00000000793,20.1717929964218,1.00000000198803,0.541430615190805
7100.0000000083,19.9346570104321,1.00000000178682,0.530206294018363
7200.00000000866,19.7115545213757,1.00000000184148,0.525578966263243
7300.00000000903,19.5013987305448,1.00000000192014,0.527053552025627
7400.00000000939,19.3053954546577,1.00000000177224,0.512782788724795
7500.00000000975,19.1176157195204,1.00000000207955,0.53715171964877
7600.00000001012,18.934408247988,1.0000000018272,0.558723871504128
7700.00000001048,18.7580095079703,1.00000000206344,0.549703741042836
7800.00000001084,18.5856645625429,1.00000000189368,0.553019057789418
7900.00000001121,18.4200076979047,1.0000000020097,0.552374173483368
8000.00000001157,18.2676565777171,1.00000000174655,0.52932423240077
8100.00000001194,18.1310603576788,1.00000000186113,0.536613534645478
8200.0000000123,18.0048267926674,1.00000000208812,0.535957556626544
8300.00000001266,17.8858749856115,1.00000000194619,0.543255126414137
8400.00000001303,17.7687259653069,1.00000000213376,0.56143148629681
8500.00000001339,17.6534008490706,1.00000000183653,0.562134728762541
8600.00000001376,17.5472994512039,1.00000000183721,0.555079146920547
8700.00000001412,17.4396934180952,1.00000000208147,0.563159341851821
8800.00000001448,17.327359203305,1.0000000021187,0.574038435951061
8900.00000001485,17.2194405749967,1.00000000173626,0.555892290796591
9000.00000001521,17.125682628277,1.00000000176743,0.544394973245994
9100.00000001557,17.0418733868823,1.00000000199439,0.556249384085081
9200.00000001594,16.9683205193479,1.00000000192429,0.549286570431119
9300.0000000163,16.9028722096061,1.00000000194147,0.553964715166012
9400.00000001667,16.840099032449,1.00000000196993,0.567693009727933
9500.00000001703,16.7754974061828,1.00000000210602,0.57153225656235
9600.00000001739,16.7097821665355,1.00000000193472,0.571149914022235
9700.00000001776,16.6513981478244,1.00000000199553,0.568906810231424
9800.00000001812,16.597459900338,1.00000000206276,0.573360753973673
9900.00000001848,16.5388993089543,1.00000000204747,0.578206304918928
10000.0000000188,16.4766509526645,1.00000000198582,0.567187892767604
10100.0000000192,16.4118977627119,1.00000000213107,0.585787230443642
10200.0000000196,16.3483567089711,1.00000000201473,0.582453783855434
10300.0000000199,16.2938172611665,1.00000000187866,0.56668314398627
10400.0000000203,16.2500320164487,1.00000000195291,0.572169566105329
10500.0000000207,16.2163579972082,1.00000000196414,0.56163119534341
10600.000000021,16.1930869044301,1.00000000192968,0.554238985414637
10700.0000000214,16.172891295572,1.00000000203065,0.572908145823862
10800.0000000218,16.1494328932857,1.00000000216956,0.589678124843441
10900.0000000221,16.123919513271,1.00000000196657,0.581202770178882
11000.0000000225,16.1033703622788,1.00000000195283,0.58248305020267
11100.0000000229,16.0795620067346,1.00000000207625,0.595008878993931
11200.0000000232,16.0553573175126,1.00000000201843,0.585974871255005
11300.0000000236,16.0341994336868,1.00000000190344,0.581589006237313
11400.0000000239,16.0155340615542,1.00000000197759,0.577546723458323
11500.0000000243,15.9955677047842,1.00000000201254,0.596206190294458
11600.0000000247,15.9696289144723,1.00000000218638,0.596520452142647
11700.000000025,15.9350542681857,1.00000000218438,0.59708255646007
11800.0000000254,15.895363644236,1.00000000214552,0.599244876719867
11900.0000000258,15.8584399573192,1.00000000199178,0.596251918316883
12000.0000000261,15.8261995058439,1.00000000202082,0.591866529557815
12100.0000000265,15.802605869017,1.00000000207468,0.595170253919671
12200.0000000269,15.7897184106776,1.00000000214364,0.582544643658169
12300.0000000272,15.7892156769608,1.00000000198609,0.563804738216751
12400.0000000276,15.7956832659438,1.00000000214222,0.570074004359828
12500.0000000279,15.8006249485318,1.00000000227232,0.581530996309803
12600.0000000283,15.8015726644584,1.00000000228305,0.589925477134748
12700.0000000287,15.8050055610886,1.00000000195207,0.595709380619421
12800.000000029,15.8123709193554,1.00000000215298,0.603947451486824
12900.0000000294,15.8181927788611,1.00000000210915,0.602297934663812
13000.0000000298,15.8211998443337,1.00000000232353,0.597536259224071
13100.0000000301,15.8197481827453,1.00000000234049,0.600843116499831
13200.0000000305,15.8190086818586,1.00000000201841,0.598446834132496
13300.0000000309,15.8261223357019,1.00000000201487,0.60412384988056
13400.0000000312,15.8354737839677,1.00000000211796,0.616116814370805
13500.0000000316,15.8412497936689,1.00000000230035,0.622329302481567
13600.0000000319,15.8393446496856,1.00000000232754,0.628064772986197
13700.0000000323,15.8327864633742,1.00000000217218,0.632523761112854
13800.0000000327,15.8242091877565,1.00000000209331,0.627432811844189
13900.000000033,15.8121739383998,1.00000000224791,0.630306288180722
14000.0000000334,15.7956761596083,1.00000000225232,0.634775117917998
14100.0000000338,15.7741206245486,1.0000000022748,0.63023202130411
14200.0000000341,15.7513753653915,1.00000000221058,0.628181314297438
14300.0000000345,15.728894409226,1.00000000216783,0.62857995361622
14400.0000000349,15.7093317194056,1.00000000218576,0.62682321069889
14500.0000000352,15.6954581490497,1.00000000206857,0.622145801714211
14600.0000000356,15.6906755614729,1.00000000205237,0.612466623225621
14700.0000000359,15.6968983318397,1.00000000208599,0.603720861967266
14800.0000000363,15.7132154994218,1.00000000217704,0.60171961551456
14900.0000000367,15.7342838675355,1.00000000215286,0.600321458413431
15000.000000037,15.7570571357368,1.00000000238533,0.602259891898147
15100.0000000374,15.7760456420933,1.00000000236427,0.613763518007482
15200.0000000378,15.7957837093011,1.00000000226722,0.61813729881428
15300.0000000381,15.8179814959118,1.00000000226441,0.61677964470955
15400.0000000385,15.8393186045717,1.0000000022746,0.618691049555026
15500.0000000389,15.8621587897781,1.00000000236068,0.627352571685645
15600.0000000392,15.8807939177423,1.00000000224518,0.626588008423706
15700.0000000396,15.8947045121072,1.00000000240702,0.630872217024358
15800.0000000399,15.9077457781858,1.00000000227254,0.63144937941379
15900.0000000403,15.9237002823844,1.00000000215419,0.622710588259884
16000.0000000407,15.9433725367083,1.00000000232731,0.62730739741073
16100.000000041,15.9632753584952,1.00000000236279,0.623950883591767
16200.0000000414,15.9817322097611,1.00000000237051,0.621916084053796
16300.0000000418,16.0002040048901,1.00000000221157,0.632550734199609
16400.0000000418,16.0200259055413,1.00000000238065,0.638419370726483
16500.0000000404,16.0387583029709,1.00000000241637,0.652074040219897
16600.0000000389,16.0528686475647,1.00000000250631,0.657771946447697
16700.0000000375,16.0662623582183,1.00000000238671,0.656458111826339
16800.000000036,16.0764472357423,1.0000000025102,0.652154652454958
16900.0000000346,16.0809440977014,1.0000000024339,0.654797747808081
17000.0000000331,16.0816855107325,1.00000000236477,0.654469428899882
17100.0000000317,16.0813431381618,1.00000000247141,0.65563091427645
17200.0000000302,16.0802175895124,1.00000000255183,0.661310122495719
17300.0000000287,16.0773724989967,1.00000000236626,0.663978096887741
17400.0000000273,16.0698838122882,1.00000000259352,0.672605118851419
17500.0000000258,16.0569288258835,1.00000000253519,0.668879632271418
17600.0000000244,16.040994695096,1.00000000241467,0.665113036847007
17700.0000000229,16.0238661755838,1.00000000242839,0.653248581522494
17800.0000000215,16.0052878320358,1.00000000241709,0.646865706037899
17900.00000002,15.9882543769006,1.00000000237524,0.64920723595705
18000.0000000186,15.9749740340396,1.00000000231676,0.644059966262843
18100.0000000171,15.9673605687206,1.00000000241526,0.640956360341271
18200.0000000156,15.9666756053771,1.00000000230489,0.63488792660272
18300.0000000142,15.9753615256356,1.00000000237504,0.632007685559762
18400.0000000127,15.9932945281184,1.00000000248022,0.627243782708391
18500.0000000113,16.0207009564719,1.00000000234017,0.630181895805461
18600.0000000098,16.0525972969945,1.00000000245856,0.630466225486003
18700.0000000084,16.0881487636146,1.00000000262544,0.62430161694062
18800.0000000069,16.1251528869036,1.00000000251298,0.632821289692436
18900.0000000055,16.1596349869501,1.00000000263092,0.62964010326071
19000.000000004,16.1949959928444,1.00000000245649,0.632851144447071
19100.0000000026,16.2337560491057,1.00000000237389,0.631676884056134
19200.0000000011,16.2740239036366,1.00000000240904,0.635778106644943
19299.9999999996,16.3156134270948,1.00000000255919,0.636876124244156
19399.9999999982,16.3563994030358,1.00000000263834,0.637854274649512
19499.9999999967,16.392267391813,1.00000000268386,0.638998059596028
19599.9999999953,16.42589024929,1.00000000258067,0.638018329175531
19699.9999999938,16.4595929979602,1.00000000258697,0.637876360641952
19799.9999999924,16.491457772652,1.00000000255123,0.64194086940094
19899.9999999909,16.5223459017769,1.00000000248089,0.642048125030199
19999.9999999895,16.556133515692,1.00000000246547,0.641247388530392
20099.999999988,16.5914265280344,1.0000000025197,0.649702093940439
20199.9999999865,16.6286302078552,1.00000000255488,0.653865960603831
20299.9999999851,16.6645076829002,1.00000000262403,0.664035702499222
20399.9999999836,16.6970506972071,1.00000000260663,0.666056340739797
20499.9999999822,16.7260614081151,1.00000000254998,0.664447289822557
20599.9999999807,16.7542729358161,1.00000000259383,0.665764856128827
20699.9999999793,16.7819384691932,1.00000000263466,0.665804221039546
20799.9999999778,16.8090912324754,1.00000000259619,0.655676124883874
20899.9999999764,16.8378232127061,1.00000000258014,0.656059561670836
20999.9999999749,16.8675794978398,1.00000000268125,0.664153605410383
21099.9999999734,16.8942955053293,1.00000000265421,0.677613122410574
21199.999999972,16.9200777875238,1.00000000247783,0.669054622036641
21299.9999999705,16.9479003588949,1.00000000245047,0.665946027446806
21399.9999999691,16.9733203099148,1.00000000259246,0.670760235367419
21499.9999999676,16.9969138826833,1.00000000262148,0.67660585555073
21599.9999999662,17.0192136112678,1.00000000260016,0.678575287511468
21699.9999999647,17.0387632970775,1.00000000257038,0.673995302174991
21799.9999999633,17.0566386588483,1.0000000025684,0.674711357232176
21899.9999999618,17.0718103778854,1.0000000026813,0.679646360677063
21999.9999999603,17.0847956290042,1.00000000255691,0.668876509876716
22099.9999999589,17.0974291810532,1.00000000260835,0.66833610055441
22199.9999999574,17.1117556964403,1.00000000234764,0.667194075085526
22299.999999956,17.126844573698,1.0000000027248,0.685516540134751
22399.9999999545,17.1393665153143,1.00000000269455,0.682229999776985
22499.9999999531,17.1496087453462,1.00000000266862,0.685686380150864
22599.9999999516,17.1593342861777,1.00000000267229,0.679419590529279
22699.9999999502,17.1640838879339,1.00000000286636,0.679133994878479
22799.9999999487,17.1643237408988,1.00000000256578,0.676410980630369
22899.9999999473,17.1631194441958,1.00000000270847,0.686928725760602
22999.9999999458,17.1578577806854,1.00000000270093,0.676204234732475
23099.9999999443,17.1517465757957,1.00000000257158,0.668034670913488
23199.9999999429,17.1452714949811,1.0000000027776,0.682462464652161
23299.9999999414,17.1374606594138,1.00000000262062,0.683414996677425
23399.99999994,17.1280288381723,1.00000000283841,0.682315963234353
23499.9999999385,17.1150337862223,1.00000000293633,0.687293885093576
23599.9999999371,17.1020206268329,1.00000000264706,0.675648823407077
23699.9999999356,17.0887993654878,1.00000000282695,0.674424440621439
23799.9999999342,17.0776187726711,1.00000000266519,0.672913493207359
23899.9999999327,17.0698782087594,1.00000000256711,0.671679487754825
23999.9999999312,17.0658150835077,1.00000000278888,0.678609483586817
24099.9999999298,17.0655709539303,1.00000000266524,0.670885946449193
24199.9999999283,17.0684103358739,1.00000000287683,0.672228545531834
24299.9999999269,17.0761695110274,1.00000000255737,0.670169409151875
24399.9999999254,17.0913515880422,1.00000000291538,0.667831622018172
24499.999999924,17.1131515433365,1.00000000270671,0.664602721541331
24599.9999999225,17.1420592448592,1.00000000263175,0.665371886147047
24699.9999999211,17.1796799846565,1.00000000257947,0.658439443817201
24799.9999999196,17.2240183449625,1.00000000280404,0.664190040513156
24899.9999999181,17.2700223559763,1.00000000275659,0.665126188908169
24999.9999999167,17.3210724745188,1.00000000287209,0.656621619497688
25099.9999999152,17.3721092367569,1.00000000286185,0.652248640957668
25199.9999999138,17.4244970171745,1.00000000276917,0.651054050957473
25299.9999999123,17.4762981385454,1.00000000287331,0.657800971488054
25399.9999999109,17.5266115916735,1.00000000279666,0.655282945937451
25499.9999999094,17.581531704985,1.00000000266359,0.645018484945009
25599.999999908,17.6416443045484,1.00000000296616,0.654720308172377
25699.9999999065,17.6992997707653,1.00000000297733,0.656857086351675
25799.9999999051,17.7604636765343,1.00000000286542,0.654462435484805
25899.9999999036,17.8218397908411,1.00000000309131,0.667928984033027
25999.9999999021,17.8779023080248,1.00000000310236,0.664404415008477
26099.9999999007,17.9331939648796,1.00000000290208,0.656243288259577
26199.9999998992,17.9884564985996,1.00000000292922,0.65693642542953
26299.9999998978,18.0446650975886,1.00000000301142,0.665823219762044
26399.9999998963,18.0972950066128,1.00000000300263,0.658761168905417
26499.9999998949,18.1506633296236,1.00000000274999,0.656187344556063
26599.9999998934,18.208551104068,1.00000000288141,0.657906798270232
26699.999999892,18.2708085904001,1.00000000285197,0.658006447529941
26799.9999998905,18.3312141656528,1.00000000291736,0.664853524074147
26899.999999889,18.3884330933997,1.00000000300718,0.671274367292594
26999.9999998876,18.4448415626028,1.00000000289562,0.670336754297017
27099.9999998861,18.5000594700567,1.00000000301923,0.679617194679233
27199.9999998847,18.5585550341459,1.00000000303307,0.678310735982847
27299.9999998832,18.6145814090553,1.00000000303975,0.678302198126994
27399.9999998818,18.6673632282957,1.00000000311498,0.676498978119795
27499.9999998803,18.7196068149006,1.00000000292781,0.675631493916815
27599.9999998789,18.7703950575422,1.00000000301579,0.683789751842358
27699.9999998774,18.8190237746761,1.00000000315893,0.686300521092486
27799.9999998759,18.8676973007331,1.00000000320674,0.679312036237312
27899.9999998745,18.9182993795437,1.00000000311883,0.689815787262951
27999.999999873,18.9660758698973,1.00000000314001,0.692601759923898
28099.9999998716,19.0104573046366,1.00000000292852,0.681959679236691
28199.9999998701,19.0592116889619,1.00000000307901,0.691684894824102
28299.9999998687,19.1080200345556,1.00000000304985,0.695160276728779
28399.9999998672,19.150460325944,1.00000000316552,0.696591569180348
28499.9999998658,19.1910958270632,1.00000000305941,0.6932479479211
28599.9999998643,19.2334917156183,1.00000000301725,0.687251834430219
28699.9999998629,19.277183731019,1.00000000317271,0.679616218412548
28799.9999998614,19.3209643402204,1.00000000330816,0.699397073594435
28899.9999998599,19.3625512910919,1.00000000314594,0.702973016715994
28999.9999998585,19.4037051396765,1.00000000322657,0.696935207907096
