Time,AGPnorm,Energy,Entropy
0,0,1,-1.33342628221295e-17
99.9999999999986,5.45135976846488e-05,0.999999999997123,0.00193589822010517
199.999999999993,0.00476771763958541,0.999999999997825,0.00321476962539308
300,0.011512213122562,0.999999999999736,0.00550257314047581
400.000000000022,0.0156883887330808,0.999999999996163,0.00942412036929857
500.000000000045,0.0191540320478646,0.999999999999585,0.0127678609803098
600.000000000068,0.0278812963833538,0.999999999997943,0.0173894850977168
700.000000000091,0.0346530626846406,0.99999999999699,0.0224944019852391
800.000000000113,0.0429281094328121,1.00000000000015,0.0275408672986681
900.000000000136,0.0533650420443986,0.999999999996388,0.0337311154030132
1000.00000000016,0.0621559387945494,0.999999999998871,0.0399265743341309
1100.0000000001,0.0737951070286927,0.999999999998822,0.0464976326318575
1200,0.086170578908298,0.999999999996376,0.0539865181070801
1299.99999999991,0.0978453413551384,1.00000000000011,0.0613934857877808
1399.99999999982,0.111500675653716,0.999999999996995,0.0696034062016821
1499.99999999973,0.124332391449449,0.999999999998068,0.0784181427061549
1599.99999999964,0.137382847125316,0.999999999999543,0.0873793051460069
1699.99999999955,0.151957781475009,0.999999999996164,0.0975245088391278
1799.99999999946,0.165897779776582,0.99999999999968,0.108041694611363
1899.99999999937,0.180947799012877,0.999999999997762,0.119407095704091
1999.99999999928,0.195694509498307,0.999999999997346,0.132212786583417
2099.99999999919,0.209226423300614,1.00000000000038,0.145691874786343
2199.99999999909,0.223871330710619,0.999999999998763,0.16138946021093
2299.999999999,0.238126512292143,1.00000000000883,0.179101677311017
2399.99999999891,0.253632437899407,1.00000000002619,0.198797003988349
2499.99999999882,0.265458949616108,1.00000000006061,0.220912053796654
2599.99999999873,0.281938243682119,1.00000000013092,0.243187930883016
2699.99999999864,0.302078046075457,1.00000000020478,0.266000189213399
2799.99999999855,0.320980016940018,1.0000000003005,0.288674494941882
2899.99999999846,0.371017885218582,1.00000000040438,0.310188009949198
2999.99999999837,0.429412250328791,1.00000000050186,0.331895401645071
3099.99999999828,0.530385140686161,1.00000000065378,0.352184218343586
3199.99999999819,0.704516520350584,1.00000000072918,0.3716570100997
3299.99999999809,0.926708913565095,1.00000000084324,0.390944793867111
3399.999999998,1.2674975964464,1.00000000095921,0.408023531928393
3499.99999999791,1.72583055995239,1.00000000103777,0.42480842659649
3599.99999999782,2.30176713277105,1.00000000112285,0.440880275030945
3699.99999999773,3.07100478774506,1.00000000121703,0.454952964854778
3799.99999999764,3.99623119881385,1.00000000129494,0.469191922515149
3899.99999999755,5.10905273785773,1.00000000134992,0.481752324942082
3999.99999999746,6.45723182554961,1.00000000139337,0.493204563715258
4099.99999999738,7.98222687655575,1.0000000013713,0.504907950969717
4199.99999999775,9.74832440373694,1.0000000014501,0.514279884521666
4299.99999999811,11.7465927651051,1.00000000149915,0.523485501004151
4399.99999999848,13.9281817050726,1.00000000155578,0.532311226175688
4499.99999999884,16.3673332986185,1.00000000151794,0.539632766477304
4599.9999999992,18.9928095235445,1.00000000155419,0.547260716705566
4699.99999999957,21.8086899853979,1.00000000154961,0.553683595143931
4799.99999999993,24.8513175977759,1.0000000015783,0.559038735197676
4900.00000000029,28.0218557790473,1.00000000154797,0.565338845850416
5000.00000000066,31.3784162529005,1.00000000155056,0.569714391684716
5100.00000000102,34.883718583835,1.00000000160385,0.574116493884078
5200.00000000139,38.4818316585777,1.00000000157586,0.578572759848747
5300.00000000175,42.2341402214535,1.00000000155321,0.581498035015907
5400.00000000211,46.0437652753336,1.0000000015906,0.585106931543819
5500.00000000248,49.9292480303541,1.00000000150881,0.588040351456999
5600.00000000284,53.8956210436652,1.00000000151629,0.590073217027055
5700.00000000321,57.8596890357022,1.00000000154537,0.592935541461873
5800.00000000357,61.8796547443149,1.0000000014379,0.594543176095494
5900.00000000393,65.8902924348859,1.00000000146581,0.596435434997194
6000.0000000043,69.8758833476668,1.00000000142269,0.598131187206476
6100.00000000466,73.8675563989549,1.00000000145773,0.598486824951807
6200.00000000502,77.7859574724957,1.0000000013947,0.600257720461377
6300.00000000539,81.6711161472925,1.00000000143048,0.600520347231063
6400.00000000575,85.4923080270096,1.00000000137501,0.601231660206795
6500.00000000612,89.2158046489365,1.00000000133789,0.602141635569423
6600.00000000648,92.8820107021131,1.00000000139746,0.601552334264767
6700.00000000684,96.4296441016921,1.0000000013025,0.602527833647134
6800.00000000721,99.8807872776784,1.00000000127126,0.602777501494216
6900.00000000757,103.229152951961,1.00000000128898,0.602395272182103
7000.00000000793,106.438882324285,1.00000000125794,0.603192751543585
7100.0000000083,109.548015451841,1.00000000119424,0.602002346513344
7200.00000000866,112.51533584418,1.00000000119649,0.60261440719458
7300.00000000903,115.349607421258,1.00000000119943,0.602370346723201
7400.00000000939,118.060554789957,1.00000000119056,0.601098195476672
7500.00000000975,120.615549292459,1.00000000116513,0.602029230252085
7600.00000001012,123.048662043908,1.00000000113236,0.600174709311213
7700.00000001048,125.332695789869,1.00000000115948,0.601167826022667
7800.00000001084,127.472166433147,1.00000000108884,0.599719118221484
7900.00000001121,129.48222881876,1.0000000011157,0.599863682796588
8000.00000001157,131.338338219809,1.00000000107085,0.598953485285026
8100.00000001194,133.067521638217,1.00000000106597,0.598932027048335
8200.0000000123,134.654522455841,1.00000000102536,0.597612545521077
8300.00000001266,136.101864238326,1.00000000102836,0.598345691469429
8400.00000001303,137.424135762577,1.00000000098345,0.596336207251067
8500.00000001339,138.606677317465,1.00000000097945,0.597544862543458
8600.00000001376,139.666172495303,1.00000000095351,0.595382220200824
8700.00000001412,140.60034748053,1.00000000095031,0.596888264753578
8800.00000001448,141.405980827643,1.00000000090754,0.594131361436883
8900.00000001485,142.101631570774,1.00000000093756,0.596678074877354
9000.00000001521,142.676309716064,1.00000000087243,0.593266308919647
9100.00000001557,143.14246072978,1.00000000089382,0.595032635613253
9200.00000001594,143.505301274091,1.00000000086005,0.594991038741418
9300.0000000163,143.760809256932,1.00000000084846,0.591280309252734
9400.00000001667,143.924775423058,1.00000000083524,0.595450777797897
9500.00000001703,143.996587280662,1.0000000008735,0.59274444692594
9600.00000001739,143.980768933745,1.00000000082211,0.588210067260305
9700.00000001776,143.884609601344,1.00000000092759,0.596202971220275
9800.00000001812,143.715365814058,1.00000000085871,0.588707815567716
9900.00000001848,143.472281106705,1.00000000082915,0.58578531009171
10000.0000000188,143.163061634126,1.0000000009111,0.596043180918983
10100.0000000192,142.801135106745,1.00000000083971,0.584056630088039
10200.0000000196,142.372872093297,1.00000000084063,0.581356806736163
10300.0000000199,141.894666549212,1.00000000099221,0.593415856846847
10400.0000000203,141.380157206046,1.0000000008673,0.580142889850963
10500.0000000207,140.809415298172,1.00000000081815,0.574820501296753
10600.000000021,140.20409873782,1.00000000091951,0.589478301065666
10700.0000000214,139.574546031578,1.00000000086064,0.581248029673674
10800.0000000218,138.904163155355,1.00000000078892,0.566856480868119
10900.0000000221,138.205714761595,1.00000000094995,0.583219371491065
11000.0000000225,137.48985253993,1.00000000096121,0.581468965920687
11100.0000000229,136.753344440129,1.00000000085141,0.569178803887872
11200.0000000232,135.988143038322,1.00000000083778,0.56763636132818
11300.0000000236,135.206534376852,1.00000000095612,0.580481181138213
11400.0000000239,134.420748090403,1.00000000093455,0.576641091403298
11500.0000000243,133.615368222077,1.0000000008048,0.55777349709526
11600.0000000247,132.792536963636,1.00000000091964,0.569680686979978
11700.000000025,131.968174367147,1.0000000010021,0.57465496892882
11800.0000000254,131.139357507469,1.00000000088996,0.569685604709007
11900.0000000258,130.302248591183,1.00000000081281,0.553628808888249
12000.0000000261,129.4533123463,1.00000000094043,0.566366844787645
12100.0000000265,128.606428802929,1.0000000010127,0.567229095327234
12200.0000000269,127.762182375192,1.0000000008888,0.564238573588783
12300.0000000272,126.911391011733,1.00000000086601,0.554454919090879
12400.0000000276,126.058056872198,1.00000000092556,0.558935443420239
12500.0000000279,125.207979359699,1.00000000098558,0.562748674508642
12600.0000000283,124.360933969335,1.00000000094251,0.553819832756614
12700.0000000287,123.517222700866,1.00000000091675,0.55932019117712
12800.000000029,122.670979490218,1.00000000089932,0.554483363778279
12900.0000000294,121.830811487697,1.00000000099709,0.560125954796482
13000.0000000298,120.99538137411,1.00000000092295,0.544363230089465
13100.0000000301,120.163841109579,1.00000000096202,0.55067805218392
13200.0000000305,119.337628682293,1.00000000089732,0.557919027333129
13300.0000000309,118.514643886709,1.00000000098791,0.559978548012313
13400.0000000312,117.70009963938,1.00000000093041,0.551341606740565
13500.0000000316,116.890366980848,1.00000000087709,0.537401307342524
13600.0000000319,116.085785053162,1.00000000095614,0.541889606080965
13700.0000000323,115.288208088204,1.00000000091443,0.559074601473709
13800.0000000327,114.496995064481,1.0000000010349,0.562807015688166
13900.000000033,113.714757913563,1.00000000094143,0.551848024102228
14000.0000000334,112.938754041621,1.00000000085524,0.535226095004022
14100.0000000338,112.167945499362,1.00000000087323,0.531195587734397
14200.0000000341,111.405021271964,1.00000000092873,0.549655336858769
14300.0000000345,110.649422640845,1.00000000093604,0.563435500417865
14400.0000000349,109.902876674069,1.00000000097797,0.559598965641582
14500.0000000352,109.164713990698,1.00000000094067,0.542585302805355
14600.0000000356,108.432810079642,1.00000000086761,0.532561202198016
14700.0000000359,107.708303946427,1.0000000008746,0.530336489910183
14800.0000000363,106.991416672869,1.00000000097194,0.548453094356994
14900.0000000367,106.283377215898,1.00000000096226,0.561993942847233
15000.000000037,105.583906183212,1.00000000094726,0.558888609712508
15100.0000000374,104.892303622499,1.00000000093496,0.546696434232024
15200.0000000378,104.209263935431,1.00000000084782,0.532981640729675
15300.0000000381,103.534147340372,1.00000000088858,0.535295420557928
15400.0000000385,102.867054935637,1.00000000092312,0.541187402204469
15500.0000000389,102.208758160229,1.0000000009532,0.552127580400913
15600.0000000392,101.558635133546,1.00000000098154,0.563136479235104
15700.0000000396,100.917140675869,1.00000000089182,0.553094874405503
15800.0000000399,100.284161557992,1.00000000087984,0.541086482112774
15900.0000000403,99.659972397943,1.00000000087717,0.540306510551016
16000.0000000407,99.0447757305893,1.00000000091068,0.542158275862462
16100.000000041,98.4380132164999,1.00000000089879,0.543806999939266
16200.0000000414,97.8399024716689,1.00000000091418,0.546749384317736
16300.0000000418,97.2496152253119,1.00000000095783,0.55996536618247
16400.0000000418,96.6680520749596,1.00000000089656,0.551321621669537
16500.0000000404,96.0956906386719,1.00000000084677,0.542441621395091
16600.0000000389,95.5318058210224,1.00000000092407,0.543132584621314
16700.0000000375,94.9767078106929,1.00000000085039,0.539840706987182
16800.000000036,94.4306103174828,1.00000000090396,0.541831219902206
16900.0000000346,93.8921589889919,1.00000000093126,0.552387810962606
17000.0000000331,93.3612678788757,1.00000000094902,0.546753596578185
17100.0000000317,92.8383603719438,1.00000000093772,0.550068277638911
17200.0000000302,92.3246340663286,1.0000000008678,0.550361642817406
17300.0000000287,91.8198258093797,1.00000000090292,0.542453613322231
17400.0000000273,91.3228475243732,1.00000000096348,0.543673061620715
17500.0000000258,90.834256107448,1.00000000087842,0.533649964489589
17600.0000000244,90.3545105493088,1.00000000089196,0.538956616678899
17700.0000000229,89.8806556995696,1.00000000102142,0.554875674769294
17800.0000000215,89.4118039966736,1.00000000094591,0.555653848163363
17900.00000002,88.9504943105767,1.00000000088461,0.541488569873839
18000.0000000186,88.4975329744514,1.00000000090725,0.546075176928448
18100.0000000171,88.053829700176,1.00000000087277,0.543731554919032
18200.0000000156,87.6182747083364,1.00000000094044,0.544680045306922
18300.0000000142,87.1903510644341,1.00000000088164,0.536930273883673
18400.0000000127,86.7702785422784,1.00000000091674,0.533031138643171
18500.0000000113,86.3580954257121,1.00000000094738,0.537656069568464
18600.0000000098,85.9504000328361,1.00000000104524,0.544851572199223
18700.0000000084,85.5450943297054,1.00000000102246,0.558671168427554
18800.0000000069,85.1441389509953,1.00000000095761,0.55316085694133
18900.0000000055,84.7506700982096,1.00000000090064,0.540141681380695
19000.000000004,84.3662838837813,1.0000000008536,0.54051102513055
19100.0000000026,83.9914782306339,1.00000000094543,0.54351221963042
19200.0000000011,83.6235342224482,1.00000000093424,0.545106821880994
19299.9999999996,83.263206779712,1.00000000088361,0.5379328535676
19399.9999999982,82.9108083262342,1.00000000088325,0.534255992108563
19499.9999999967,82.5640652200319,1.00000000096299,0.53916965826877
19599.9999999953,82.2211818068988,1.00000000098986,0.544185342644004
19699.9999999938,81.8799293769438,1.00000000100301,0.544498367807336
19799.9999999924,81.539632409844,1.00000000102203,0.556636837535854
19899.9999999909,81.202837407513,1.00000000094729,0.553883348443885
19999.9999999895,80.8735806937812,1.00000000086524,0.537080304402214
20099.999999988,80.5540528784825,1.00000000089006,0.540686882440378
20199.9999999865,80.242905971069,1.00000000094307,0.546889260640249
20299.9999999851,79.9390051011044,1.00000000091769,0.543350797709775
20399.9999999836,79.6425615599651,1.00000000089041,0.544299006137896
20499.9999999822,79.3528911484573,1.00000000092513,0.541897014217875
20599.9999999807,79.0691651293762,1.00000000096284,0.542933313334238
20699.9999999793,78.7882983560548,1.00000000092368,0.546319032422806
20799.9999999778,78.509333343589,1.00000000097361,0.546901084420966
20899.9999999764,78.230913344176,1.00000000099377,0.543699213542716
20999.9999999749,77.9528961061613,1.00000000100056,0.548148243267283
21099.9999999734,77.6777152465463,1.00000000096288,0.554883783411273
21199.999999972,77.4077967349351,1.0000000009068,0.548861079100841
21299.9999999705,77.1455443866037,1.00000000089539,0.542996694853129
21399.9999999691,76.8912806606486,1.00000000091418,0.550757834441969
21499.9999999676,76.6449774690769,1.00000000086165,0.550997365123972
21599.9999999662,76.4070583368718,1.00000000087151,0.543271092480617
21699.9999999647,76.1754648616057,1.00000000093803,0.551366368882536
21799.9999999633,75.9492465396087,1.00000000092676,0.551145807089507
21899.9999999618,75.7269555594291,1.00000000091282,0.554148643115385
21999.9999999603,75.5059183586247,1.00000000095927,0.553031049211485
22099.9999999589,75.2876433401089,1.0000000009076,0.548368256759435
22199.9999999574,75.0717132453036,1.0000000009612,0.542432962423076
22299.999999956,74.855586245151,1.00000000101094,0.543255187574058
22399.9999999545,74.6392593398143,1.0000000009732,0.55218172330139
22499.9999999531,74.4241622338369,1.00000000091284,0.564792286423467
22599.9999999516,74.2130135447053,1.00000000093157,0.559062534240462
22699.9999999502,74.0074089842143,1.00000000091512,0.553286360350159
22799.9999999487,73.8087274766509,1.00000000091419,0.552533182372239
22899.9999999473,73.6178498417091,1.0000000008421,0.551443253264466
22999.9999999458,73.4358426426592,1.00000000084868,0.550334626599255
23099.9999999443,73.2616546040406,1.00000000089354,0.549798251825252
23199.9999999429,73.0915632352171,1.00000000096841,0.563196674714008
23299.9999999414,72.9226440353548,1.00000000099436,0.564026042242418
23399.99999994,72.7545551968071,1.00000000096631,0.564434602753721
23499.9999999385,72.5883374558708,1.00000000089564,0.556965762563342
23599.9999999371,72.4260365198656,1.00000000089111,0.549702493598986
23699.9999999356,72.2675448327448,1.00000000093976,0.545791039161652
23799.9999999342,72.1105403277199,1.00000000097607,0.540804285580249
23899.9999999327,71.9529074962678,1.00000000100846,0.544247710024874
23999.9999999312,71.792247499078,1.00000000104114,0.559243623175169
24099.9999999298,71.6297319209685,1.00000000105003,0.573389299442209
24199.9999999283,71.4673677451234,1.00000000096964,0.573436100924611
24299.9999999269,71.308959590637,1.00000000093973,0.56140966331757
24399.9999999254,71.1586085512125,1.00000000086448,0.552451164219403
24499.999999924,71.0173498231823,1.00000000086692,0.550844354534168
24599.9999999225,70.884677922577,1.00000000086361,0.551957083665697
24699.9999999211,70.7595166945735,1.0000000009357,0.558044376217834
24799.9999999196,70.6375112334475,1.00000000097873,0.565502665051906
24899.9999999181,70.5171367965773,1.00000000096409,0.57006613094775
24999.9999999167,70.3958409348957,1.00000000102514,0.572473231035356
25099.9999999152,70.2740057499324,1.00000000099113,0.56933593851563
25199.9999999138,70.1531047325985,1.00000000093758,0.568421212340233
25299.9999999123,70.0351536957895,1.00000000092084,0.55789343997988
25399.9999999109,69.9223902432215,1.00000000089919,0.5535706056623
25499.9999999094,69.8138758752204,1.00000000090918,0.553085977348902
25599.999999908,69.7071823503844,1.00000000093585,0.551834506992632
25699.9999999065,69.597767632782,1.00000000104794,0.559548338866768
25799.9999999051,69.4823031689308,1.00000000105107,0.566512726136373
25899.9999999036,69.3614711530867,1.0000000010956,0.582058703266934
25999.9999999021,69.2369961899603,1.00000000103867,0.589953461180061
26099.9999999007,69.1147062437884,1.00000000089967,0.577141804355402
26199.9999998992,68.9995405999185,1.00000000084474,0.56110410086215
26299.9999998978,68.8939962677527,1.00000000085213,0.558624633774743
26399.9999998963,68.7983868602148,1.00000000088569,0.55721399485856
26499.9999998949,68.7098508576883,1.00000000093146,0.559657566734355
26599.9999998934,68.6261809952352,1.00000000096211,0.568539547477281
26699.999999892,68.5447561316301,1.00000000101371,0.579534804337824
26799.9999998905,68.4630123814878,1.00000000095455,0.581963479497563
26899.999999889,68.3808595843674,1.00000000099525,0.582048657235278
26999.9999998876,68.2971681859906,1.00000000096677,0.581700518895969
27099.9999998861,68.2136403696628,1.00000000094763,0.574772301067936
27199.9999998847,68.1324767898304,1.00000000094019,0.571404509341717
27299.9999998832,68.0543691008822,1.0000000009262,0.567973507667749
27399.9999998818,67.979336761603,1.0000000009577,0.565278230446909
27499.9999998803,67.9068366467256,1.00000000090262,0.570010524482747
27599.9999998789,67.8360821472897,1.00000000097431,0.578841269138553
27699.9999998774,67.7633447293787,1.00000000102429,0.578797114183724
27799.9999998759,67.6861959830734,1.00000000103824,0.579534188432048
27899.9999998745,67.6036519266449,1.00000000104748,0.586701616027146
27999.999999873,67.5156885428443,1.00000000103069,0.589004561724837
28099.9999998716,67.4261825774555,1.00000000099237,0.589773705286392
28199.9999998701,67.3388215079255,1.00000000091006,0.589440124435612
28299.9999998687,67.2565299321139,1.00000000088928,0.582697578813652
28399.9999998672,67.182893452783,1.00000000084679,0.571990240303434
28499.9999998658,67.1171631173457,1.00000000090417,0.573378125390761
28599.9999998643,67.0569302530697,1.00000000092746,0.571272960077839
28699.9999998629,67.0011683374216,1.00000000094574,0.574612985769543
28799.9999998614,66.9476699602454,1.00000000100127,0.579557011231761
28899.9999998599,66.8958086255606,1.00000000093388,0.58486981819243
