Time,AGPnorm,Energy,Entropy
0,0,1,-1.25934704431223e-17
99.9999999999986,3.24586092323067e-05,0.999999999996419,0.00128044073241128
199.999999999993,0.00288846596028985,0.999999999998453,0.00209794704089482
300,0.00706356296483416,0.999999999998983,0.00359643196609668
400.000000000022,0.00960218928290708,0.999999999996166,0.00623861762362886
500.000000000045,0.0115987273769844,0.999999999999864,0.00838281681021235
600.000000000068,0.0170045478991334,0.999999999997043,0.0115190301768014
700.000000000091,0.0210857118698098,0.999999999997646,0.0149098366074627
800.000000000113,0.0263471981332609,0.999999999999574,0.0182144221394029
900.000000000136,0.0329706761630532,0.99999999999607,0.0224262289154639
1000.00000000016,0.0385197263715105,0.999999999999422,0.0264319215696049
1100.0000000001,0.0462160653045513,0.999999999997828,0.0307987463443953
1200,0.0539268981460558,0.999999999996917,0.0357581013291355
1299.99999999991,0.0613890549806412,0.999999999999851,0.0404795839523315
1399.99999999982,0.07057017337668,0.999999999996345,0.0458766126266249
1499.99999999973,0.0792096900531666,0.999999999998779,0.0514188229101837
1599.99999999964,0.0885344331394858,0.999999999998569,0.057019252203234
1699.99999999955,0.0984165222051398,0.99999999999641,0.0633566329595279
1799.99999999946,0.107887939335675,0.999999999999821,0.0695590256515567
1899.99999999937,0.118759615884763,0.999999999996927,0.0762606650415153
1999.99999999928,0.129419812115092,0.999999999998029,0.0834560779915755
2099.99999999919,0.139596393375059,0.999999999999124,0.0906147158143223
2199.99999999909,0.150620784505094,0.999999999996272,0.0986041433911503
2299.999999999,0.161558728351718,0.999999999999554,0.106779603319075
2399.99999999891,0.173065803956325,0.999999999997647,0.115437410755377
2499.99999999882,0.184456367307009,0.9999999999973,0.125016884309301
2599.99999999873,0.194986201103868,0.99999999999952,0.134761499116469
2699.99999999864,0.20649262666363,0.999999999996796,0.145731444458564
2799.99999999855,0.217980074622629,1.00000000000026,0.157648699119889
2899.99999999846,0.229502146229209,1.00000000000154,0.170538290998839
2999.99999999837,0.239986287120545,1.0000000000058,0.185241065933833
3099.99999999828,0.250840958059826,1.00000000001932,0.200703337792102
3199.99999999819,0.263536256781666,1.00000000003365,0.21752341383438
3299.99999999809,0.273117785175785,1.00000000006048,0.235142714823383
3399.999999998,0.291078388878185,1.00000000009745,0.25244054076399
3499.99999999791,0.306965141058677,1.00000000013622,0.270204171252283
3599.99999999782,0.331500130873719,1.00000000018974,0.287273105471001
3699.99999999773,0.381305570274933,1.00000000023278,0.304095939074782
3799.99999999764,0.434852259493256,1.00000000027963,0.320963117002529
3899.99999999755,0.535776585031724,1.00000000034209,0.336477790116097
3999.99999999746,0.678639082527813,1.00000000040213,0.352024133027372
4099.99999999738,0.865362844854988,1.00000000045449,0.367017246891134
4199.99999999775,1.15291707522132,1.00000000050638,0.38102425584416
4299.99999999811,1.506932137863,1.00000000053774,0.395189010637771
4399.99999999848,1.97436342386028,1.00000000059451,0.407924246477216
4499.99999999884,2.585103762893,1.00000000066054,0.420275022361564
4599.9999999992,3.30553908799656,1.00000000069414,0.43270076224167
4699.99999999957,4.2138469832368,1.00000000072355,0.443512788655872
4799.99999999993,5.28767050757477,1.00000000077852,0.45440083502917
4900.00000000029,6.52962380809762,1.0000000008051,0.464538415799325
5000.00000000066,8.00678602925455,1.00000000082647,0.473807513222552
5100.00000000102,9.65979364121769,1.00000000082709,0.483330212592962
5200.00000000139,11.5412937776592,1.00000000087515,0.491320932270711
5300.00000000175,13.6636802346828,1.00000000090108,0.499171986295325
5400.00000000211,15.9733633649582,1.00000000091298,0.506925213602351
5500.00000000248,18.5473039546357,1.00000000095322,0.513358969961022
5600.00000000284,21.3341594863881,1.00000000089113,0.520266538555215
5700.00000000321,24.3304821812308,1.00000000095974,0.526056256836076
5800.00000000357,27.5834196774508,1.00000000095048,0.531447053860185
5900.00000000393,31.0100877152289,1.00000000095581,0.537187632057918
6000.0000000043,34.6632919142195,1.00000000096723,0.541603481812068
6100.00000000466,38.5246194679256,1.00000000098089,0.546062593245366
6200.00000000502,42.5387079092387,1.00000000101221,0.550346937181894
6300.00000000539,46.7671809569341,1.00000000096703,0.553958561991873
6400.00000000575,51.1334911655011,1.00000000095634,0.55789382512825
6500.00000000612,55.6491164128551,1.00000000094706,0.561022788796579
6600.00000000648,60.3301774956829,1.00000000095539,0.563739347194493
6700.00000000684,65.0954898956295,1.00000000097567,0.566891936122714
6800.00000000721,69.9979345000214,1.00000000097318,0.569056259192704
6900.00000000757,74.9892429057436,1.0000000009614,0.571530411155976
7000.00000000793,80.0428577281896,1.00000000097483,0.573672247003984
7100.0000000083,85.196068882444,1.00000000092968,0.575239064856634
7200.00000000866,90.3693951908013,1.00000000092763,0.577447928751978
7300.00000000903,95.5931933519281,1.00000000097117,0.578629031727277
7400.00000000939,100.850780639579,1.00000000094487,0.579712884140267
7500.00000000975,106.09402538865,1.00000000091775,0.581384665572437
7600.00000001012,111.364898723112,1.00000000090134,0.582139240329918
7700.00000001048,116.601729006395,1.00000000090101,0.583365501538
7800.00000001084,121.811632341284,1.00000000089369,0.583967786919994
7900.00000001121,127.002710901292,1.00000000088133,0.584291774697495
8000.00000001157,132.120456666834,1.00000000089065,0.585276560480466
8100.00000001194,137.201409957415,1.00000000086668,0.585651947955071
8200.0000000123,142.205710512862,1.00000000086629,0.585936442933209
8300.00000001266,147.125220031274,1.00000000082806,0.58644881887624
8400.00000001303,151.979243111935,1.00000000082498,0.586408297767588
8500.00000001339,156.721231596468,1.00000000082231,0.586728626360865
8600.00000001376,161.374790943164,1.0000000008285,0.58654937031435
8700.00000001412,165.923213256369,1.00000000078262,0.586529847054409
8800.00000001448,170.345304211081,1.00000000079464,0.58646904251173
8900.00000001485,174.670285808603,1.00000000078053,0.586544510971669
9000.00000001521,178.856142165414,1.00000000076875,0.585739911774541
9100.00000001557,182.921181091067,1.00000000077969,0.586492231513652
9200.00000001594,186.860251725819,1.00000000074566,0.58496243809836
9300.0000000163,190.65186362494,1.00000000073116,0.586041896695645
9400.00000001667,194.32361711049,1.00000000074313,0.584567348434338
9500.00000001703,197.844698547691,1.00000000072417,0.584856387015012
9600.00000001739,201.226593509643,1.00000000072238,0.584565323123421
9700.00000001776,204.471726140802,1.00000000070414,0.583814670975602
9800.00000001812,207.562707821106,1.00000000070176,0.584053193163104
9900.00000001848,210.519501535147,1.00000000068534,0.58291528148153
10000.0000000188,213.326683156977,1.00000000067702,0.583400284668761
10100.0000000192,215.986213576124,1.00000000065788,0.581709750574847
10200.0000000196,218.508265036064,1.00000000065556,0.582373598929921
10300.0000000199,220.879798521977,1.00000000064504,0.581461278059455
10400.0000000203,223.114551012605,1.0000000006361,0.580658729706467
10500.0000000207,225.206845613583,1.00000000062587,0.581631348705161
10600.000000021,227.156346389765,1.00000000061839,0.579759960089086
10700.0000000214,228.972741791505,1.00000000061267,0.579783288502669
10800.0000000218,230.647985315598,1.00000000061487,0.581029400935918
10900.0000000221,232.193578040353,1.00000000059106,0.577915589334512
11000.0000000225,233.603822201044,1.00000000058904,0.578998466522647
11100.0000000229,234.883047814382,1.00000000059179,0.580032214358727
11200.0000000232,236.040974393516,1.00000000058132,0.577076396922232
11300.0000000236,237.06778058776,1.00000000056778,0.577641592742215
11400.0000000239,237.976551237734,1.00000000057198,0.577909458719579
11500.0000000243,238.767322412016,1.00000000056732,0.578313689235162
11600.0000000247,239.440192065698,1.00000000056589,0.57751876970629
11700.000000025,240.006085729573,1.00000000052905,0.573911775108106
11800.0000000254,240.455712082704,1.00000000053394,0.577415876054628
11900.0000000258,240.806969706905,1.00000000055184,0.580234198881015
12000.0000000261,241.063384530311,1.00000000051221,0.573288305898948
12100.0000000265,241.212329969347,1.00000000049899,0.570438460609307
12200.0000000269,241.270470729948,1.00000000053474,0.578468850480777
12300.0000000272,241.247145053635,1.00000000055106,0.579080564968201
12400.0000000276,241.143896621735,1.00000000050236,0.570830547573881
12500.0000000279,240.953150192151,1.00000000047366,0.565368569891257
12600.0000000283,240.677764689052,1.00000000053022,0.575599162596403
12700.0000000287,240.346224708175,1.0000000005608,0.580380306978478
12800.000000029,239.956516940737,1.00000000052361,0.569654678702608
12900.0000000294,239.494095141847,1.0000000004634,0.557470973904291
13000.0000000298,238.958762943783,1.00000000049257,0.56699866282999
13100.0000000301,238.37473051973,1.00000000059609,0.582564436550871
13200.0000000305,237.76066403897,1.00000000056933,0.573748213693784
13300.0000000309,237.096239728318,1.00000000047127,0.554777052866137
13400.0000000312,236.365375770579,1.00000000043896,0.551062512610764
13500.0000000316,235.58938070233,1.00000000057739,0.575289027680637
13600.0000000319,234.792803479032,1.00000000062161,0.581737126860827
13700.0000000323,233.979989470546,1.00000000055223,0.564700493697262
13800.0000000327,233.123227007065,1.0000000004325,0.543696078409555
13900.000000033,232.212896958681,1.00000000044827,0.546218547966351
14000.0000000334,231.276351499042,1.00000000059974,0.576551310408109
14100.0000000338,230.336380471804,1.0000000006817,0.582784165915185
14200.0000000341,229.392427395721,1.00000000053644,0.558405349060952
14300.0000000345,228.416439809846,1.00000000043324,0.537107424479517
14400.0000000349,227.396461100199,1.00000000042777,0.534418363811484
14500.0000000352,226.355526693186,1.00000000057484,0.56810517722497
14600.0000000356,225.319138566698,1.00000000074516,0.586957881785814
14700.0000000359,224.292942459487,1.00000000057886,0.560082737731949
14800.0000000363,223.251664229381,1.00000000048811,0.537482231340647
14900.0000000367,222.178429658003,1.00000000040312,0.521208954938959
15000.000000037,221.080407148679,1.0000000005032,0.542898784976235
15100.0000000374,219.980691934513,1.00000000067893,0.580928568869477
15200.0000000378,218.899505598477,1.00000000071897,0.577179831178783
15300.0000000381,217.826068472422,1.00000000055801,0.546386968020648
15400.0000000385,216.738569048888,1.00000000044991,0.524252768086173
15500.0000000389,215.629645054456,1.00000000042716,0.517341011774637
15600.0000000392,214.504097739337,1.00000000055209,0.541085058367795
15700.0000000396,213.385608926723,1.00000000069771,0.578308551919622
15800.0000000399,212.286298658494,1.00000000067925,0.573029650485514
15900.0000000403,211.196984300722,1.00000000060981,0.544286662061796
16000.0000000407,210.105582954443,1.00000000044796,0.52133807737479
16100.000000041,208.998851982081,1.0000000004676,0.516802248577406
16200.0000000414,207.882094295267,1.0000000004999,0.526784266891452
16300.0000000418,206.767741077019,1.00000000061547,0.556397605606356
16400.0000000418,205.667352587845,1.00000000070304,0.57505245535787
16500.0000000404,204.583940337609,1.00000000067368,0.555908541844586
16600.0000000389,203.507339848641,1.00000000053663,0.525742212723854
16700.0000000375,202.428119242127,1.00000000047737,0.518655433383078
16800.000000036,201.344648940262,1.00000000047584,0.520052825196531
16900.0000000346,200.257339870474,1.00000000053712,0.526633181326573
17000.0000000331,199.176017536698,1.00000000060015,0.546772219774223
17100.0000000317,198.107045782271,1.00000000067335,0.562712082478057
17200.0000000302,197.051456783411,1.00000000064247,0.551118010276299
17300.0000000287,196.005817459657,1.00000000058512,0.527525214527385
17400.0000000273,194.963068558512,1.00000000052233,0.51884723686225
17500.0000000258,193.922614217708,1.00000000051211,0.522261173268375
17600.0000000244,192.883256747475,1.00000000053225,0.525807471575271
17700.0000000229,191.847695826829,1.00000000055026,0.529072808444207
17800.0000000215,190.820513345113,1.0000000005867,0.53848847039818
17900.00000002,189.803561981267,1.00000000062465,0.548021226463467
18000.0000000186,188.797475876072,1.0000000005959,0.541363801042655
18100.0000000171,187.800489623054,1.00000000057088,0.527069974892207
18200.0000000156,186.809633040697,1.0000000005283,0.520635811315535
18300.0000000142,185.825056178542,1.00000000052432,0.526661786924319
18400.0000000127,184.845044509626,1.00000000052853,0.528212270160936
18500.0000000113,183.871363202015,1.0000000005476,0.526335226493378
18600.0000000098,182.904730889902,1.00000000055952,0.523408690809499
18700.0000000084,181.946155268032,1.00000000057234,0.530845319306751
18800.0000000069,180.996968485318,1.00000000060239,0.538148739438108
18900.0000000055,180.057062895387,1.00000000060118,0.537423931240366
19000.000000004,179.125562968484,1.0000000005719,0.529518669844294
19100.0000000026,178.202548742088,1.00000000053423,0.525559639502537
19200.0000000011,177.286984483159,1.0000000005407,0.531688811132751
19299.9999999996,176.37951104216,1.00000000053065,0.53145573890824
19399.9999999982,175.478929623216,1.0000000005283,0.524825383017218
19499.9999999967,174.586014700736,1.0000000005204,0.517586405762142
19599.9999999953,173.701547346766,1.00000000056567,0.518647167589625
19699.9999999938,172.825465704318,1.00000000056697,0.529419516822644
19799.9999999924,171.95795341192,1.00000000058817,0.538114282053553
19899.9999999909,171.099013123859,1.00000000058873,0.539082498011096
19999.9999999895,170.248244139927,1.00000000057624,0.533634126823192
20099.999999988,169.40616830549,1.00000000055751,0.534729229512125
20199.9999999865,168.572556562731,1.00000000054564,0.537669822887733
20299.9999999851,167.747893906098,1.00000000052693,0.534475877596112
20399.9999999836,166.931850791541,1.00000000048866,0.520608082070917
20499.9999999822,166.124769177883,1.00000000048527,0.512847667699366
20599.9999999807,165.326889916414,1.0000000005212,0.514747761420709
20699.9999999793,164.537739778664,1.00000000054209,0.521687715379006
20799.9999999778,163.756758448651,1.00000000059428,0.529070529054634
20899.9999999764,162.983574821369,1.00000000058034,0.540317324344132
20999.9999999749,162.217887888748,1.00000000055373,0.541248501310778
21099.9999999734,161.460088067997,1.00000000056979,0.537157139272532
21199.999999972,160.709966224424,1.00000000057933,0.541196952173278
21299.9999999705,159.96761390287,1.00000000059823,0.544195817512935
21399.9999999691,159.234081915545,1.000000000531,0.53466686645828
21499.9999999676,158.510876255728,1.00000000046573,0.519113406649999
21599.9999999662,157.79884334966,1.00000000044855,0.506242183706712
21699.9999999647,157.09734142741,1.00000000050897,0.507056430561375
21799.9999999633,156.404729332598,1.00000000057143,0.515995440962069
21899.9999999618,155.720176420964,1.00000000059478,0.521174103497476
21999.9999999603,155.04221235464,1.0000000005851,0.528730900517164
22099.9999999589,154.370770019249,1.00000000057018,0.536965860090241
22199.9999999574,153.705759024025,1.00000000056362,0.542305149086039
22299.999999956,153.047072448099,1.00000000058112,0.540804950085693
22399.9999999545,152.394310716074,1.0000000006115,0.545112470717893
22499.9999999531,151.747125151873,1.00000000060817,0.54792683695306
22599.9999999516,151.107119357608,1.00000000055697,0.537571528566343
22699.9999999502,150.477345841582,1.00000000048301,0.521255551068046
22799.9999999487,149.860523561978,1.00000000042882,0.506682099711211
22899.9999999473,149.257021938022,1.00000000043722,0.49810044154563
22999.9999999458,148.664627278451,1.00000000051737,0.50340588826919
23099.9999999443,148.079735743787,1.00000000059426,0.514704343495297
23199.9999999429,147.500882073591,1.00000000058913,0.519271267801041
23299.9999999414,146.92699368333,1.00000000057802,0.51890783834582
23399.99999994,146.35831932928,1.00000000055768,0.525836924350858
23499.9999999385,145.794278184119,1.00000000056776,0.539087507445692
23599.9999999371,145.23411995896,1.00000000057888,0.546496091041242
23699.9999999356,144.677580669251,1.00000000060798,0.545949284265749
23799.9999999342,144.124192840094,1.0000000006262,0.547438495225534
23899.9999999327,143.574927930579,1.00000000060411,0.544459236333109
23999.9999999312,143.032907132611,1.00000000052984,0.52980789857705
24099.9999999298,142.501722618747,1.00000000047473,0.515261481146869
24199.9999999283,141.983928880193,1.00000000044849,0.50798443728564
24299.9999999269,141.479938582893,1.00000000048556,0.501907048379304
24399.9999999254,140.987246742647,1.00000000055404,0.500960024598442
24499.999999924,140.503066203671,1.0000000005847,0.505759388057286
24599.9999999225,140.024229147738,1.0000000006076,0.511917626038465
24699.9999999211,139.549963721262,1.00000000057825,0.514227130310732
24799.9999999196,139.079347693166,1.00000000057783,0.515497887420179
24899.9999999181,138.611674558813,1.00000000058586,0.523256736401346
24999.9999999167,138.145303102469,1.00000000061644,0.535742211690545
25099.9999999152,137.679418061718,1.00000000060125,0.54692501002309
25199.9999999138,137.214637205822,1.00000000060231,0.548086969973158
25299.9999999123,136.752032704075,1.0000000005803,0.542698370339754
25399.9999999109,136.292957401133,1.00000000057704,0.53837223688581
25499.9999999094,135.839282001293,1.00000000057196,0.534071920191969
25599.999999908,135.393315272805,1.0000000005411,0.52408184337802
25699.9999999065,134.957800543052,1.00000000050171,0.51445242945965
25799.9999999051,134.534318943944,1.00000000050046,0.511485623538453
25899.9999999036,134.122490713216,1.00000000049349,0.512013771095397
25999.9999999021,133.722032689803,1.00000000051847,0.505418547937127
26099.9999999007,133.330465756547,1.00000000053305,0.503343936068116
26199.9999998992,132.946601235234,1.00000000055696,0.505776539211871
26299.9999998978,132.568169745867,1.00000000057676,0.512012362928974
26399.9999998963,132.192319441058,1.00000000058192,0.516657310390231
26499.9999998949,131.818269905978,1.00000000059431,0.522123854311537
26599.9999998934,131.444408507214,1.0000000005957,0.52624053347772
26699.999999892,131.069054331962,1.00000000062277,0.533337729204973
26799.9999998905,130.692357192207,1.00000000059338,0.538481846847619
26899.999999889,130.315153784531,1.00000000058111,0.544751365351716
26999.9999998876,129.93951944267,1.00000000057139,0.540486731729957
27099.9999998861,129.567294551899,1.00000000056418,0.535388797652304
27199.9999998847,129.199993788062,1.00000000055814,0.533109957115831
27299.9999998832,128.838164126316,1.00000000055411,0.532551015133515
27399.9999998818,128.482125679199,1.00000000055914,0.529072202939827
27499.9999998803,128.133733388286,1.00000000052558,0.523133940394808
27599.9999998789,127.794675393338,1.00000000050697,0.517671266715017
27699.9999998774,127.465919172783,1.00000000049581,0.515051421039712
27799.9999998759,127.148562691194,1.00000000048679,0.512494342384013
27899.9999998745,126.841155631329,1.00000000051065,0.510838984270308
27999.999999873,126.542710762888,1.00000000052603,0.508026885029631
28099.9999998716,126.251307047654,1.00000000055735,0.513571371648163
28199.9999998701,125.964892198187,1.00000000056461,0.516183001440942
28299.9999998687,125.681006780161,1.00000000057483,0.523410789536387
28399.9999998672,125.396831931353,1.00000000056428,0.531158719716744
28499.9999998658,125.111878162354,1.00000000058407,0.53348716733873
28599.9999998643,124.825158796182,1.00000000060077,0.533247655328506
28699.9999998629,124.536026130902,1.0000000006173,0.537279063912367
28799.9999998614,124.244341219248,1.00000000061982,0.539318557235024
28899.9999998599,123.952127738939,1.00000000057878,0.542522906067393
