Time,AGPnorm,Energy,Entropy
0,0,1,-1.25534276118246e-17
99.9999999999986,2.25220569211978e-05,0.999999999999823,0.00095489079213772
199.999999999993,0.00196299552352074,1.00000000000018,0.0015152494693831
300,0.00480049363353196,0.999999999999865,0.0026820759511465
400.000000000022,0.00666526638246303,1.00000000000002,0.00458924913249574
500.000000000045,0.00826779214365407,1.00000000000004,0.00613548843019793
600.000000000068,0.0118395653040726,0.999999999999842,0.0085606676937842
700.000000000091,0.0143869786069472,1.00000000000009,0.0109712572512073
800.000000000113,0.0182896562834524,0.99999999999999,0.0135114961902551
900.000000000136,0.0230940283703893,0.999999999999974,0.0166272218141004
1000.00000000016,0.0271033463596203,0.999999999999994,0.0195219032306192
1100.0000000001,0.0324242324636197,0.999999999999906,0.0229079332177915
1200,0.0378431316268049,1.00000000000001,0.0264523728209203
1299.99999999991,0.0436434632298467,1.00000000000008,0.0300032674086792
1399.99999999982,0.0501051329159826,0.999999999999976,0.0340330552141205
1499.99999999973,0.0559955532528953,0.999999999999895,0.0379802367648845
1599.99999999964,0.0628768146806257,0.999999999999993,0.0422211920936403
1699.99999999955,0.0705578655022674,0.999999999999973,0.0467254749009655
1799.99999999946,0.0781737081423097,1.00000000000008,0.0512218894940689
1899.99999999937,0.0858950789654492,1,0.0561251363019673
1999.99999999928,0.0932002670148623,0.999999999999796,0.0610714486678592
2099.99999999919,0.101206066574344,1.00000000000012,0.066241310106231
2199.99999999909,0.110257891204151,1.00000000000002,0.0717527125429658
2299.999999999,0.119141859548955,0.999999999999949,0.0773185094476003
2399.99999999891,0.127716854418207,0.999999999999997,0.0832330748291918
2499.99999999882,0.136270569853497,0.999999999999717,0.0893397757593076
2599.99999999873,0.145132180023164,1.00000000000028,0.0956902673809968
2699.99999999864,0.15474626559817,1.00000000000014,0.102489195079119
2799.99999999855,0.164017049127005,0.999999999999803,0.109462585537406
2899.99999999846,0.172959758535827,0.999999999999988,0.116840946572499
2999.99999999837,0.182364579643818,0.999999999999685,0.124648811563028
3099.99999999828,0.191875267973947,1.00000000000043,0.132864062718323
3199.99999999819,0.201497136986494,1.00000000000046,0.141777176901506
3299.99999999809,0.210505312021683,1.00000000000025,0.151176642220793
3399.999999998,0.219552388095826,1.00000000000129,0.161338591114605
3499.99999999791,0.228969983175796,1.00000000000254,0.172482414204508
3599.99999999782,0.238690111674031,1.00000000000638,0.184468623204668
3699.99999999773,0.248557242714765,1.00000000001227,0.197440046332379
3799.99999999764,0.256287607068042,1.00000000002086,0.211037980376508
3899.99999999755,0.267864481585118,1.00000000003459,0.225131780371361
3999.99999999746,0.278669828750122,1.000000000052,0.239761057303254
4099.99999999738,0.291673780087145,1.00000000007502,0.254310135898696
4199.99999999775,0.314514881102143,1.00000000009726,0.268890352870689
4299.99999999811,0.335669019094247,1.00000000012495,0.283136180044268
4399.99999999848,0.379312990988733,1.00000000015113,0.297009527214027
4499.99999999884,0.438979329667287,1.00000000018175,0.310800815168759
4599.9999999992,0.518280540726422,1.00000000021384,0.324116339915313
4699.99999999957,0.647245862677354,1.00000000023751,0.337088941200702
4799.99999999993,0.80615496544458,1.00000000027774,0.349681885702545
4900.00000000029,1.03237954476497,1.000000000307,0.361895583505013
5000.00000000066,1.33333100665016,1.0000000003417,0.373691096131497
5100.00000000102,1.70394653670361,1.00000000037922,0.385034621643649
5200.00000000139,2.19245459043105,1.00000000039383,0.395860289975853
5300.00000000175,2.78151296743593,1.00000000044431,0.406340771890868
5400.00000000211,3.50051645012587,1.00000000044844,0.416558761536579
5500.00000000248,4.37434419933553,1.00000000049064,0.426191018784398
5600.00000000284,5.38754776972085,1.0000000005054,0.435536926929488
5700.00000000321,6.58437467712586,1.00000000051727,0.444364704493646
5800.00000000357,7.95975767591824,1.00000000054398,0.45275327824512
5900.00000000393,9.52213879316667,1.00000000055396,0.460987088163465
6000.0000000043,11.3014525549262,1.00000000055839,0.468501416751852
6100.00000000466,13.2802688878562,1.00000000059099,0.475727287097361
6200.00000000502,15.4806181827616,1.00000000060333,0.482795630794378
6300.00000000539,17.9095339831336,1.00000000061731,0.489311433338129
6400.00000000575,20.5583921385435,1.00000000064203,0.495535837948784
6500.00000000612,23.4456677843864,1.00000000063752,0.501277657333801
6600.00000000648,26.5613797331414,1.00000000066852,0.506699517985012
6700.00000000684,29.9023682274542,1.00000000064414,0.512173991413857
6800.00000000721,33.4788075853482,1.00000000063829,0.517077735090303
6900.00000000757,37.2775742329544,1.00000000067607,0.521585972935936
7000.00000000793,41.2962155480292,1.00000000068093,0.526014686812816
7100.0000000083,45.5346455037557,1.00000000070229,0.529860860344212
7200.00000000866,49.9744458205457,1.00000000068089,0.533926824153917
7300.00000000903,54.6174887762463,1.00000000069509,0.537370774275638
7400.00000000939,59.457504953321,1.00000000066708,0.540742490893577
7500.00000000975,64.4713991530452,1.00000000071628,0.543985361575697
7600.00000001012,69.665101372266,1.00000000072308,0.546698980610276
7700.00000001048,75.0188741185506,1.00000000068096,0.549580219930802
7800.00000001084,80.5183250895199,1.00000000069583,0.552019227421937
7900.00000001121,86.1688269475122,1.00000000065744,0.554443498425858
8000.00000001157,91.9356997153659,1.00000000069456,0.556639207150759
8100.00000001194,97.8228285367609,1.00000000064557,0.558776339928059
8200.0000000123,103.819033947448,1.00000000068219,0.560393900207249
8300.00000001266,109.896147479735,1.00000000069514,0.562184252954586
8400.00000001303,116.065355903429,1.00000000068699,0.563694643315277
8500.00000001339,122.293046621555,1.00000000067161,0.56524307282927
8600.00000001376,128.57437520322,1.00000000065211,0.566530369833756
8700.00000001412,134.910836333572,1.00000000061213,0.567726609238626
8800.00000001448,141.265706046914,1.00000000065551,0.568819099131573
8900.00000001485,147.651076009215,1.00000000064046,0.569773899287117
9000.00000001521,154.042031205713,1.00000000060552,0.570592921629074
9100.00000001557,160.424469336434,1.00000000063778,0.571459205040789
9200.00000001594,166.809378161843,1.00000000062953,0.571701252365727
9300.0000000163,173.158964288485,1.0000000006096,0.572711211864713
9400.00000001667,179.482832804137,1.00000000063892,0.572907262043616
9500.00000001703,185.766224421086,1.00000000060342,0.573346204940708
9600.00000001739,191.988972877163,1.00000000061945,0.573871779106317
9700.00000001776,198.165913977102,1.00000000061085,0.573786938255476
9800.00000001812,204.266729569673,1.00000000062368,0.574430792719667
9900.00000001848,210.293184713343,1.00000000059923,0.574340243453152
10000.0000000188,216.243674095973,1.00000000059827,0.574613343419974
10100.0000000192,222.093365763417,1.00000000058423,0.574486946020097
10200.0000000196,227.858124729659,1.00000000057064,0.574853428761729
10300.0000000199,233.517498528145,1.00000000057164,0.574681366699254
10400.0000000203,239.065270260354,1.00000000056247,0.574525575481798
10500.0000000207,244.509974764736,1.00000000056424,0.575080324408662
10600.000000021,249.827674097626,1.0000000005481,0.574157390238082
10700.0000000214,255.030641155156,1.00000000054364,0.574761630117094
10800.0000000218,260.108547229471,1.00000000054105,0.574580592532716
10900.0000000221,265.050637896693,1.00000000053769,0.573469402819206
11000.0000000225,269.870168124542,1.00000000056229,0.574181244667754
11100.0000000229,274.547210428148,1.00000000052045,0.573418536273518
11200.0000000232,279.0896235919,1.00000000052221,0.57253139574428
11300.0000000236,283.493196133879,1.00000000052997,0.573388799684393
11400.0000000239,287.749735705871,1.00000000050695,0.572059891774575
11500.0000000243,291.869086563018,1.0000000005093,0.571931912839542
11600.0000000247,295.839407992387,1.00000000051102,0.572330627616887
11700.000000025,299.66646971399,1.00000000047707,0.570851104229014
11800.0000000254,303.347503499463,1.00000000047882,0.571210191813088
11900.0000000258,306.87637370451,1.00000000047591,0.571145748807783
12000.0000000261,310.266041030184,1.0000000004742,0.569760876967253
12100.0000000265,313.502745548453,1.00000000047425,0.570242690202062
12200.0000000269,316.59513900468,1.00000000046304,0.569438045880913
12300.0000000272,319.542915315631,1.00000000046561,0.568575730134118
12400.0000000276,322.338489582121,1.00000000045159,0.569282059495046
12500.0000000279,324.99734454063,1.00000000045424,0.568153690269705
12600.0000000283,327.508212122897,1.00000000044785,0.567514490334782
12700.0000000287,329.875790939157,1.00000000044551,0.568033515136553
12800.000000029,332.106627764985,1.00000000042948,0.567120866283467
12900.0000000294,334.191359592404,1.00000000042324,0.567068176017055
13000.0000000298,336.144700708876,1.00000000042981,0.566134646010469
13100.0000000301,337.960340324633,1.00000000042366,0.565060087471514
13200.0000000305,339.638381439267,1.00000000040683,0.566464930908548
13300.0000000309,341.190631314276,1.00000000041216,0.567356099697109
13400.0000000312,342.610455919616,1.00000000040683,0.564848750600216
13500.0000000316,343.904894223943,1.00000000039767,0.562493993966173
13600.0000000319,345.071287188317,1.00000000038946,0.564088341714525
13700.0000000323,346.114885174637,1.00000000039785,0.56730829586763
13800.0000000327,347.04679623086,1.00000000039297,0.566292775780959
13900.000000033,347.860246205152,1.00000000038237,0.562405232593801
14000.0000000334,348.558725005195,1.00000000036349,0.559735423286947
14100.0000000338,349.141848312466,1.00000000036445,0.562598036644725
14200.0000000341,349.616655486056,1.00000000039403,0.568280955693124
14300.0000000345,350.000677921562,1.00000000038665,0.567717272212908
14400.0000000349,350.286583260106,1.00000000036057,0.560340121785476
14500.0000000352,350.468899256802,1.00000000034298,0.554794447468964
14600.0000000356,350.546673443232,1.00000000033622,0.558419651968597
14700.0000000359,350.533089581307,1.00000000039831,0.568951209093797
14800.0000000363,350.450534698057,1.00000000038547,0.570455862775556
14900.0000000367,350.295752403367,1.00000000036551,0.56063761283527
15000.000000037,350.056475684,1.00000000033987,0.55083660704928
15100.0000000374,349.723086880992,1.00000000031766,0.549052188858679
15200.0000000378,349.307639597575,1.00000000036645,0.563124774257045
15300.0000000381,348.839010504454,1.00000000041724,0.573623295438089
15400.0000000385,348.329450559135,1.00000000040725,0.567984972113548
15500.0000000389,347.763344199,1.00000000035886,0.552357973062755
15600.0000000392,347.125966194919,1.00000000030544,0.539807398844695
15700.0000000396,346.405157587948,1.00000000031711,0.543845264015446
15800.0000000399,345.629197831618,1.00000000037847,0.564677387626292
15900.0000000403,344.824428703871,1.00000000046933,0.577383860680734
16000.0000000407,344.002975678305,1.00000000042017,0.567308273808626
16100.000000041,343.145467774462,1.00000000035813,0.545646667611524
16200.0000000414,342.224742294406,1.00000000029329,0.528217892021773
16300.0000000418,341.236215763844,1.00000000029372,0.53177849780202
16400.0000000418,340.199931870294,1.00000000038858,0.55935192514223
16500.0000000404,339.151708681457,1.00000000046735,0.578834346870875
16600.0000000389,338.107184414673,1.00000000046177,0.572309520602992
16700.0000000375,337.049198720449,1.00000000038453,0.549199630740939
16800.000000036,335.95327536851,1.00000000029149,0.521990777227046
16900.0000000346,334.797127129558,1.00000000025482,0.513189295892983
17000.0000000331,333.592429831888,1.00000000033547,0.534608541461311
17100.0000000317,332.371645967362,1.00000000044428,0.568327167510391
17200.0000000302,331.160347136851,1.00000000051781,0.58086027437063
17300.0000000287,329.964789935039,1.00000000047896,0.567418968880027
17400.0000000273,328.764226761327,1.00000000036192,0.536350045606396
17500.0000000258,327.529868903152,1.00000000027114,0.50771343768115
17600.0000000244,326.249181684544,1.00000000024811,0.500099699416871
17700.0000000229,324.929076156751,1.00000000033099,0.524786630918643
17800.0000000215,323.602176152138,1.00000000044146,0.564133334624124
17900.00000002,322.293055936907,1.00000000050825,0.581366570835533
18000.0000000186,321.007160410519,1.00000000050749,0.571439616326952
18100.0000000171,319.732238726389,1.00000000040911,0.541089968121746
18200.0000000156,318.440607316215,1.0000000003258,0.507800447394473
18300.0000000142,317.117075033606,1.00000000024218,0.490209624119899
18400.0000000127,315.758532189583,1.00000000027432,0.49914229089182
18500.0000000113,314.38280523073,1.00000000038969,0.535576411142465
18600.0000000098,313.016920318233,1.00000000047792,0.57084099863191
18700.0000000084,311.675254437097,1.00000000053474,0.58034260222857
18800.0000000069,310.358008251755,1.00000000051251,0.563909010430175
18900.0000000055,309.051599694273,1.00000000041266,0.53230270883342
19000.000000004,307.73538653205,1.00000000031964,0.499803891498054
19100.0000000026,306.398321731716,1.00000000025398,0.484026838148449
19200.0000000011,305.036523396069,1.00000000028418,0.491509551873819
19299.9999999996,303.663690854432,1.00000000037234,0.520828913026732
19399.9999999982,302.29726279382,1.00000000044199,0.555601237367237
19499.9999999967,300.950070280271,1.00000000052189,0.573803430868063
19599.9999999953,299.627607712212,1.00000000052387,0.568420829294164
19699.9999999938,298.323623808573,1.00000000046173,0.545396932701167
19799.9999999924,297.025052285088,1.00000000037585,0.512868101344999
19899.9999999909,295.719988583524,1.00000000029358,0.489221273374199
19999.9999999895,294.400871347791,1.00000000026862,0.483674004612978
20099.999999988,293.072037630487,1.00000000030519,0.494686029927616
20199.9999999865,291.739343060913,1.00000000037342,0.516030483354066
20299.9999999851,290.413321258766,1.00000000044194,0.542197578241891
20399.9999999836,289.103869058739,1.00000000050933,0.561804931763748
20499.9999999822,287.813671560196,1.00000000053409,0.562904904979928
20599.9999999807,286.541527330681,1.00000000047442,0.546032168378318
20699.9999999793,285.279874572114,1.00000000041457,0.520879399643954
20799.9999999778,284.020442027413,1.0000000003448,0.499343186231856
20899.9999999764,282.75956867821,1.00000000030196,0.48996346372506
20999.9999999749,281.494622628614,1.00000000031181,0.491314313441656
21099.9999999734,280.229500719445,1.00000000032526,0.499836821486654
21199.999999972,278.966493931706,1.00000000036563,0.513181113653688
21299.9999999705,277.710948730433,1.00000000041943,0.531358811102669
21399.9999999691,276.468387466491,1.00000000048212,0.545370529908995
21499.9999999676,275.240407377835,1.00000000048471,0.549995637258078
21599.9999999662,274.026249999443,1.00000000048203,0.540892367061096
21699.9999999647,272.823530486833,1.00000000043119,0.525776197130338
21799.9999999633,271.627703700087,1.00000000038282,0.511432780760377
21899.9999999618,270.437298544068,1.00000000035564,0.501677533753383
21999.9999999603,269.249898386218,1.00000000033074,0.496926872182233
22099.9999999589,268.06645148151,1.00000000032467,0.498580781290807
22199.9999999574,266.887151337577,1.00000000033949,0.503081103308012
22299.999999956,265.713221263949,1.00000000037985,0.510010019861811
22399.9999999545,264.547351671245,1.00000000040534,0.518280166321754
22499.9999999531,263.390863441137,1.00000000043792,0.526642384068785
22599.9999999516,262.24478845432,1.00000000044491,0.533595409318318
22699.9999999502,261.109763961675,1.00000000045901,0.533998950512312
22799.9999999487,259.984361293298,1.0000000004364,0.529805893135036
22899.9999999473,258.868017657625,1.00000000040529,0.52172784380122
22999.9999999458,257.759629641329,1.00000000038187,0.514652711198712
23099.9999999443,256.658690757066,1.00000000036356,0.510976539235222
23199.9999999429,255.565347526466,1.00000000035029,0.508884899011441
23299.9999999414,254.47908618044,1.00000000033879,0.507376796023525
23399.99999994,253.400599645876,1.00000000034994,0.505574106231168
23499.9999999385,252.329145259137,1.00000000035326,0.504171352447318
23599.9999999371,251.265599087772,1.00000000036172,0.505585234339802
23699.9999999356,250.210690902619,1.00000000037743,0.509632998722518
23799.9999999342,249.164481968092,1.00000000041564,0.517279039710618
23899.9999999327,248.127064769277,1.00000000042914,0.524191803447042
23999.9999999312,247.098404078958,1.00000000043274,0.528843008031528
24099.9999999298,246.07780288334,1.00000000040544,0.529869907796258
24199.9999999283,245.065733267646,1.00000000039033,0.523907463182244
24299.9999999269,244.061812142127,1.0000000003759,0.520772222636116
24399.9999999254,243.066379862304,1.00000000038561,0.522960081507283
24499.999999924,242.079525860739,1.00000000038354,0.525144695177256
24599.9999999225,241.101652960551,1.00000000038468,0.520477043480799
24699.9999999211,240.133038953054,1.00000000035528,0.514148262775003
24799.9999999196,239.173538096753,1.00000000032325,0.502810257235674
24899.9999999181,238.22401548016,1.00000000031651,0.494813037312147
24999.9999999167,237.284262817453,1.0000000003204,0.49322041874506
25099.9999999152,236.354033808679,1.00000000037039,0.499675712400125
25199.9999999138,235.432670892375,1.00000000038336,0.508269683504595
25299.9999999123,234.518960375811,1.00000000044124,0.519032828979527
25399.9999999109,233.611679156988,1.00000000042772,0.52536635016199
25499.9999999094,232.711252708857,1.00000000041963,0.527377658207804
25599.999999908,231.818024799982,1.00000000038484,0.527330598694463
25699.9999999065,230.93300603158,1.00000000035737,0.522223728246593
25799.9999999051,230.055874745804,1.00000000038115,0.523094336271456
25899.9999999036,229.186091067916,1.00000000042426,0.532994170373647
25999.9999999021,228.323259393832,1.00000000043067,0.538527933395843
26099.9999999007,227.468041209546,1.00000000040642,0.53005948029648
26199.9999998992,226.621802534711,1.00000000037023,0.518605083684203
26299.9999998978,225.785881454726,1.00000000033192,0.503075903755763
26399.9999998963,224.962643813089,1.00000000028712,0.485383951499831
26499.9999998949,224.15257964872,1.0000000002899,0.479201406924775
26599.9999998934,223.354985117838,1.00000000033514,0.482704507121613
26699.999999892,222.567650466345,1.00000000038177,0.494077241071114
26799.9999998905,221.788111547258,1.0000000004156,0.506758900079856
26899.999999889,221.01332310243,1.0000000004814,0.51702336878387
26999.9999998876,220.242236664389,1.00000000044204,0.517479888029998
27099.9999998861,219.47541681134,1.00000000040295,0.518500759445573
27199.9999998847,218.714359871534,1.00000000037704,0.523373062542564
27299.9999998832,217.960618219506,1.00000000036267,0.522915149433374
27399.9999998818,217.213849860965,1.00000000037789,0.523414597074544
27499.9999998803,216.472660675215,1.00000000041231,0.528689717900328
27599.9999998789,215.735680710407,1.00000000045647,0.540596322439488
27699.9999998774,215.002249675863,1.00000000047196,0.543897999582278
27799.9999998759,214.273723056264,1.00000000041389,0.531813606604049
27899.9999998745,213.553053456404,1.00000000037963,0.516209780279963
27999.999999873,212.843010612695,1.00000000033155,0.502132965762064
28099.9999998716,212.146915060062,1.00000000028156,0.484455296204311
28199.9999998701,211.467089356835,1.00000000026586,0.472690636643022
28299.9999998687,210.802864783524,1.00000000029279,0.472329823592968
28399.9999998672,210.151521595293,1.00000000035487,0.480618936230991
28499.9999998658,209.509047537099,1.00000000041374,0.49302129049567
28599.9999998643,208.871971899165,1.00000000043924,0.505178532721663
28699.9999998629,208.237169614213,1.00000000044042,0.512574555361403
28799.9999998614,207.603797631201,1.00000000045429,0.511540338812755
28899.9999998599,206.971977260738,1.00000000041925,0.511425604007006
