Time,AGPnorm,Energy,Entropy
0,0,1,5.87294859032715e-19
99.9999999999986,0.0106724485241187,0.999999999999894,0.0293556375858789
199.999999999993,0.028659712810364,1.00000000000005,0.0847516419578519
300,0.0547761282781199,1.00000000000888,0.174638792478049
400.000000000022,0.0861827922982969,1.00000000056911,0.316735166280031
500.000000000045,0.22083785984672,1.00000000218676,0.46029767285288
600.000000000068,0.940180106524829,1.00000000362307,0.54189046202648
700.000000000091,2.44461962053072,1.00000000390385,0.580474287613462
800.000000000113,4.57252638893747,1.00000000389778,0.59427266220377
900.000000000136,6.96398949208221,1.00000000401475,0.592182256670581
1000.00000000016,9.20580328367171,1.00000000329021,0.585420008602469
1100.0000000001,11.091599057374,1.0000000032618,0.576377217923845
1200,12.4598453332518,1.00000000280561,0.563935756598486
1299.99999999991,13.3146857257241,1.00000000259924,0.562729404049075
1399.99999999982,13.7076948608308,1.0000000025537,0.572059085994294
1499.99999999973,13.7180150777626,1.00000000244077,0.560088958345498
1599.99999999964,13.5169482924257,1.00000000179572,0.492174191328557
1699.99999999955,13.1866828206478,1.00000000297644,0.564021012427823
1799.99999999946,12.7279104751827,1.00000000200855,0.482324870869477
1899.99999999937,12.2891082559173,1.00000000278272,0.53241239354545
1999.99999999928,11.7971033477933,1.00000000186165,0.44608425207932
2099.99999999919,11.3259976949766,1.00000000314523,0.563934206716352
2199.99999999909,10.8886098101398,1.00000000163966,0.416116756735258
2299.999999999,10.4431037268046,1.00000000265066,0.506312592157822
2399.99999999891,10.0273439755053,1.00000000295718,0.558230206998956
2499.99999999882,9.65930004656396,1.00000000147389,0.42065024489298
2599.99999999873,9.31731178041752,1.00000000247768,0.498893561812707
2699.99999999864,8.98566542941218,1.00000000236404,0.522316902404402
2799.99999999855,8.66811267985974,1.00000000329213,0.558034502119632
2899.99999999846,8.39466053423416,1.000000001569,0.443387486827731
2999.99999999837,8.18702919538774,1.00000000230823,0.457525986164867
3099.99999999828,7.96510156218689,1.00000000264965,0.540041299415936
3199.99999999819,7.75693431883001,1.00000000232401,0.533653120028791
3299.99999999809,7.54513739588529,1.00000000292624,0.548124750611649
3399.999999998,7.33500979043947,1.00000000269332,0.552545166475486
3499.99999999791,7.18716126348355,1.00000000149892,0.439530192120862
3599.99999999782,7.10668098528938,1.00000000219327,0.478535226153213
3699.99999999773,7.01207269357849,1.00000000268954,0.540449071099387
3799.99999999764,6.91598676035082,1.0000000025114,0.55335843651945
3899.99999999755,6.81136897292675,1.00000000255969,0.56156699772284
3999.99999999746,6.6899970427388,1.00000000249185,0.584393535729635
4099.99999999738,6.56854573871282,1.00000000288894,0.571976401312419
4199.99999999775,6.43741601395906,1.00000000308358,0.576841228235646
4299.99999999811,6.3198390290456,1.00000000208247,0.533361798261435
4399.99999999848,6.28267152802343,1.00000000169852,0.461023152790073
4499.99999999884,6.30902223172947,1.00000000243286,0.497840214929307
4599.9999999992,6.31927527358317,1.00000000245271,0.5327486243431
4699.99999999957,6.31782424970793,1.00000000256642,0.57177012042539
4799.99999999993,6.29492992056117,1.00000000275764,0.587851634740247
4900.00000000029,6.2616245213904,1.00000000254877,0.589637222398775
5000.00000000066,6.23264201314962,1.0000000025548,0.596082594086143
5100.00000000102,6.18718596615274,1.00000000266821,0.592663716333747
5200.00000000139,6.12421670323894,1.00000000263308,0.604002646998772
5300.00000000175,6.0549751208515,1.00000000247766,0.612509910238087
5400.00000000211,5.98352670727072,1.00000000261118,0.614388792256661
5500.00000000248,5.90488903068553,1.00000000303431,0.620644354451317
5600.00000000284,5.82307742927877,1.00000000303125,0.598574389672085
5700.00000000321,5.74169589391286,1.00000000246747,0.568980618124086
5800.00000000357,5.70707776647317,1.00000000161661,0.506706710944197
5900.00000000393,5.76028194470799,1.00000000185609,0.489452241070813
6000.0000000043,5.85903722015994,1.00000000247746,0.51843005577712
6100.00000000466,5.94417207545698,1.00000000277739,0.554391259379917
6200.00000000502,6.01567022366467,1.00000000264589,0.570237293624151
6300.00000000539,6.0730645796259,1.00000000278825,0.588057152662698
6400.00000000575,6.11098551984528,1.00000000282118,0.615968321321945
6500.00000000612,6.12989139570193,1.00000000268337,0.617379570768922
6600.00000000648,6.1425702930222,1.00000000265264,0.628018106149819
6700.00000000684,6.13976121668357,1.00000000279636,0.63315183613588
6800.00000000721,6.12240950323925,1.00000000299804,0.638803635561946
6900.00000000757,6.11032270984324,1.00000000276236,0.623188079313489
7000.00000000793,6.10708019604859,1.00000000259185,0.619645251632283
7100.0000000083,6.09573294557745,1.00000000293601,0.607705228438024
7200.00000000866,6.07340523274415,1.0000000027336,0.623185972534804
7300.00000000903,6.05126740076592,1.00000000270281,0.632350741940478
7400.00000000939,6.02823349372012,1.00000000285699,0.638920634214556
7500.00000000975,6.00314166688348,1.00000000264967,0.639813759010647
7600.00000001012,5.97539627144649,1.00000000272262,0.62098439312771
7700.00000001048,5.94590068924883,1.00000000276824,0.625369804686291
7800.00000001084,5.90329604338731,1.00000000300039,0.641665119611038
7900.00000001121,5.85335563158413,1.00000000274658,0.651560090543942
8000.00000001157,5.79941700773082,1.00000000261206,0.646499804419345
8100.00000001194,5.74602632083904,1.00000000272473,0.655035995932387
8200.0000000123,5.69453731301806,1.0000000031848,0.659007161319198
8300.00000001266,5.64621283693817,1.0000000033183,0.667165148523124
8400.00000001303,5.59789212721672,1.00000000305122,0.646090348659732
8500.00000001339,5.54410458078915,1.00000000306764,0.61540318411212
8600.00000001376,5.49459452522845,1.0000000024971,0.576038113155329
8700.00000001412,5.48358377705877,1.00000000189165,0.528180110597747
8800.00000001448,5.54279884422751,1.0000000020596,0.514913221514839
8900.00000001485,5.67053748238862,1.00000000250678,0.525265502288079
9000.00000001521,5.82763094837713,1.00000000254218,0.536332495474219
9100.00000001557,5.97839641562803,1.00000000298615,0.560780464342327
9200.00000001594,6.11996130232419,1.00000000302257,0.563734626480959
9300.0000000163,6.24713339922534,1.00000000284435,0.57867536081781
9400.00000001667,6.36120093587401,1.00000000303063,0.59719911474526
9500.00000001703,6.45392767249963,1.00000000295585,0.597994084211689
9600.00000001739,6.5347772806774,1.00000000301166,0.626741594263173
9700.00000001776,6.60127815995765,1.00000000283851,0.63345853240249
9800.00000001812,6.65842548435657,1.00000000291456,0.624817154980345
9900.00000001848,6.70932017634981,1.00000000293304,0.639299277603778
10000.0000000188,6.74977509226876,1.0000000031126,0.657853072469142
10100.0000000192,6.77774430915474,1.00000000291724,0.6671232562678
10200.0000000196,6.80065990249356,1.00000000308407,0.659683174516222
10300.0000000199,6.82027304957396,1.00000000278056,0.656308152034651
10400.0000000203,6.83188724686487,1.00000000326611,0.671475769996625
10500.0000000207,6.83953705876006,1.00000000276729,0.669815315417926
10600.000000021,6.84630353785446,1.0000000030855,0.668589201905864
10700.0000000214,6.84099705059421,1.00000000320706,0.670022937700167
10800.0000000218,6.83385207874979,1.00000000313273,0.664083525436478
10900.0000000221,6.82063363562628,1.00000000306321,0.65625814492973
11000.0000000225,6.80541625756459,1.00000000307574,0.674453359025213
11100.0000000229,6.78374839668866,1.00000000286794,0.669764293902055
11200.0000000232,6.75697533333886,1.00000000310353,0.678887329726878
11300.0000000236,6.73335798060252,1.0000000029979,0.663050943194551
11400.0000000239,6.71768913991332,1.00000000281604,0.650155743739216
11500.0000000243,6.71487527987056,1.00000000270096,0.620868079897739
11600.0000000247,6.72612514877318,1.00000000292274,0.61938523778349
11700.000000025,6.74455549112593,1.00000000307179,0.624191741794834
11800.0000000254,6.75499133402958,1.00000000287273,0.619691391102587
11900.0000000258,6.76215507071322,1.0000000032198,0.640764524711258
12000.0000000261,6.76337798416577,1.00000000306992,0.646424300414854
12100.0000000265,6.76631302180331,1.00000000312232,0.655780432201254
12200.0000000269,6.76165608423466,1.00000000350532,0.642314852705366
12300.0000000272,6.75927318778418,1.00000000303203,0.656139939490576
12400.0000000276,6.7596089338354,1.0000000031872,0.661326183980701
12500.0000000279,6.75766769439675,1.00000000343828,0.664564658502406
12600.0000000283,6.74933320628851,1.00000000357882,0.662608219558969
12700.0000000287,6.74290196537662,1.00000000307257,0.659591183405941
12800.000000029,6.73853337164774,1.00000000324346,0.659876514161666
12900.0000000294,6.74038715210836,1.00000000315963,0.651700690231492
13000.0000000298,6.75018365264341,1.00000000327835,0.647149893417871
13100.0000000301,6.75475896523958,1.00000000329749,0.671797829345033
13200.0000000305,6.75957596491363,1.00000000304395,0.660553274611066
13300.0000000309,6.76627107948172,1.00000000337525,0.677521367883054
13400.0000000312,6.77295539555536,1.00000000316148,0.669976532527406
13500.0000000316,6.7787017614758,1.00000000328011,0.658787070832804
13600.0000000319,6.78189006218648,1.00000000331323,0.688715165575167
13700.0000000323,6.7783840430858,1.00000000343731,0.679969570955511
13800.0000000327,6.77968743227039,1.00000000312128,0.677855194007699
13900.000000033,6.77523097516322,1.00000000319578,0.683599623439845
14000.0000000334,6.77339658978542,1.00000000332736,0.692239119870856
14100.0000000338,6.77019393227311,1.0000000030303,0.669035131365212
14200.0000000341,6.7675392903211,1.00000000371279,0.670031786127901
14300.0000000345,6.75673925844879,1.00000000378705,0.669294395503301
14400.0000000349,6.74973234087178,1.00000000330609,0.660133804587421
14500.0000000352,6.74399866276688,1.0000000037486,0.669840839197433
14600.0000000356,6.73808535417676,1.00000000312585,0.664371500763596
14700.0000000359,6.7343608437739,1.00000000389857,0.682998340278304
14800.0000000363,6.72497880534859,1.00000000358635,0.681853274143619
14900.0000000367,6.71156224249951,1.00000000347955,0.678309941579254
15000.000000037,6.69736959221093,1.00000000300639,0.676666280808534
15100.0000000374,6.68283090832881,1.00000000326898,0.672847350312665
15200.0000000378,6.66912406437133,1.00000000366837,0.685745534249244
15300.0000000381,6.64961616864298,1.00000000367232,0.679914590739129
15400.0000000385,6.62648877430804,1.00000000322292,0.676751166271608
15500.0000000389,6.60431129498835,1.00000000334231,0.682832226910308
15600.0000000392,6.57768297629809,1.00000000375252,0.68276812618565
15700.0000000396,6.54522919622512,1.00000000406268,0.68362412338616
15800.0000000399,6.51100120775513,1.00000000363828,0.690115124190132
15900.0000000403,6.47541408686029,1.00000000367218,0.691852060937648
16000.0000000407,6.43940326593139,1.00000000352696,0.692035678092011
16100.000000041,6.40389676043034,1.00000000364889,0.697650499811142
16200.0000000414,6.36906085527988,1.00000000392017,0.682578513486553
16300.0000000418,6.33768253397007,1.00000000371698,0.686722092768162
16400.0000000418,6.30938667760891,1.00000000358788,0.678539303742569
16500.0000000404,6.28701612290707,1.00000000374566,0.692170574172403
16600.0000000389,6.26688392899957,1.00000000422303,0.699228628934481
16700.0000000375,6.25028811266974,1.00000000389106,0.702259954253009
16800.000000036,6.23255809930217,1.0000000041579,0.696862455677104
16900.0000000346,6.21190686799646,1.00000000406931,0.676374459484942
17000.0000000331,6.18642824431046,1.00000000403687,0.660064747449618
17100.0000000317,6.15829686833763,1.0000000034727,0.635639898015278
17200.0000000302,6.13351101069354,1.00000000351236,0.622544895320763
17300.0000000287,6.13234068871547,1.00000000310641,0.610525318003627
17400.0000000273,6.1680685449083,1.00000000297973,0.590883359760848
17500.0000000258,6.26406490247665,1.0000000030257,0.584527110341757
17600.0000000244,6.42288916535994,1.00000000343884,0.577248138931602
17700.0000000229,6.66291741594544,1.00000000332395,0.574612925511736
17800.0000000215,6.94822107938939,1.00000000314853,0.570320522685912
17900.00000002,7.29673998312131,1.00000000351024,0.576431075175246
18000.0000000186,7.64423248809911,1.00000000383414,0.573653302376126
18100.0000000171,8.01759168197717,1.00000000415111,0.583607981934429
18200.0000000156,8.3613316058258,1.00000000386032,0.594981053849165
18300.0000000142,8.71070189124127,1.00000000371339,0.593407829720744
18400.0000000127,9.04444603159523,1.00000000378046,0.599659803279751
18500.0000000113,9.36883725808013,1.00000000340559,0.590349447775358
18600.0000000098,9.69395444103501,1.00000000376059,0.599125212704068
18700.0000000084,10.0099784839298,1.0000000037005,0.597634648156149
18800.0000000069,10.3311939919907,1.00000000401383,0.613915343175283
18900.0000000055,10.6358225336987,1.00000000386399,0.621278483011092
19000.000000004,10.932978258301,1.0000000043959,0.641420381962715
19100.0000000026,11.212260270755,1.00000000410236,0.662228388694782
19200.0000000011,11.4878119569619,1.00000000450944,0.661212779040342
19299.9999999996,11.7545952747716,1.00000000400826,0.66803124036334
19399.9999999982,12.01466968543,1.00000000359791,0.657227428751232
19499.9999999967,12.286227583017,1.00000000420503,0.656700179175266
19599.9999999953,12.5313642680281,1.00000000411463,0.656381673069327
19699.9999999938,12.778440463959,1.00000000493898,0.66466353746752
19799.9999999924,13.0128730262125,1.0000000041413,0.655849681900205
19899.9999999909,13.2419537519609,1.00000000377971,0.663805361467778
19999.9999999895,13.4704273409579,1.00000000420626,0.678608989163104
20099.999999988,13.6815496113586,1.00000000424437,0.682191211874118
20199.9999999865,13.8856174531052,1.00000000433838,0.683914267488651
20299.9999999851,14.0792263313037,1.00000000411944,0.678899727547432
20399.9999999836,14.2675981074657,1.00000000469044,0.685720637200798
20499.9999999822,14.4379271907153,1.00000000429766,0.703988693431884
20599.9999999807,14.6082331383441,1.00000000383396,0.695014200532185
20699.9999999793,14.7770472647056,1.00000000413187,0.704859454517716
20799.9999999778,14.9307842117241,1.00000000444622,0.703064126866619
20899.9999999764,15.0762662486556,1.00000000417988,0.702246966854416
20999.9999999749,15.2147430914891,1.00000000380201,0.71177428141547
21099.9999999734,15.373176920186,1.00000000350007,0.694424743368697
21199.999999972,15.5462432682863,1.00000000404068,0.704168615477721
21299.9999999705,15.7132211044218,1.00000000472438,0.694732283602348
21399.9999999691,15.8618087668458,1.00000000468675,0.712914116719769
21499.9999999676,15.9955618888707,1.00000000442954,0.7203905841403
21599.9999999662,16.1323218576377,1.00000000395673,0.688621327432232
21699.9999999647,16.2792317264407,1.00000000380713,0.697953342685652
21799.9999999633,16.4388583949502,1.00000000420238,0.715769966318597
21899.9999999618,16.5881175011461,1.00000000442487,0.717938143372185
21999.9999999603,16.7236370683401,1.00000000458896,0.710020312153992
22099.9999999589,16.8543171037738,1.00000000443292,0.717527685475508
22199.9999999574,16.9907690055645,1.0000000041397,0.696568866312518
22299.999999956,17.1379573455643,1.00000000447236,0.69124702205415
22399.9999999545,17.2901210335702,1.00000000440497,0.693913091237077
22499.9999999531,17.432316650811,1.00000000447184,0.693636495549406
22599.9999999516,17.5680384075657,1.00000000415348,0.699585914223893
22699.9999999502,17.7072022573627,1.00000000422328,0.6875368604991
22799.9999999487,17.8588297103978,1.00000000466157,0.692025583540498
22899.9999999473,18.0063286320713,1.00000000454329,0.71457669166573
22999.9999999458,18.1508939417911,1.00000000406665,0.696422710813074
23099.9999999443,18.302722054391,1.00000000433707,0.692921048641186
23199.9999999429,18.4522139587491,1.0000000048372,0.697289306004646
23299.9999999414,18.6044715195867,1.00000000469958,0.706009626613631
23399.99999994,18.7552919411243,1.00000000467157,0.704518442250113
23499.9999999385,18.9102954793949,1.00000000422336,0.687185635401708
23599.9999999371,19.0649554053965,1.00000000462014,0.690290767537606
23699.9999999356,19.2148279968384,1.0000000046049,0.696417328104363
23799.9999999342,19.3745285078222,1.00000000420786,0.682995671510325
23899.9999999327,19.5458886228666,1.00000000405676,0.680680130946928
23999.9999999312,19.7199285606597,1.00000000479751,0.688942280668456
24099.9999999298,19.890153533605,1.00000000422581,0.682605968972628
24199.9999999283,20.0564643992046,1.0000000047636,0.691473826198196
24299.9999999269,20.2222261350225,1.00000000466879,0.697582113808978
24399.9999999254,20.3890988587121,1.00000000437567,0.686249158218913
24499.999999924,20.54975779532,1.00000000438508,0.707379238313566
24599.9999999225,20.6998773242427,1.00000000459378,0.697518868512315
24699.9999999211,20.8515545953496,1.00000000454858,0.701718981828086
24799.9999999196,21.01069445522,1.00000000447758,0.687724459348044
24899.9999999181,21.1845804774417,1.00000000469617,0.698891059557725
24999.9999999167,21.3559331739063,1.00000000495876,0.712132915717724
25099.9999999152,21.516512352839,1.00000000450982,0.703364490915488
25199.9999999138,21.672475753466,1.00000000503196,0.711679049703412
25299.9999999123,21.8315221704792,1.00000000444573,0.712849433017609
25399.9999999109,21.9947504154994,1.00000000467681,0.712014962743144
25499.9999999094,22.1679759912794,1.00000000483314,0.70922458264201
25599.999999908,22.3538230580299,1.00000000467314,0.711054984910488
25699.9999999065,22.5590259756913,1.00000000439498,0.701199610153288
25799.9999999051,22.7810190901552,1.00000000458551,0.704004836132521
25899.9999999036,23.0146168924609,1.00000000460524,0.710917281926205
25999.9999999021,23.2506722950045,1.00000000456897,0.710715339766904
26099.9999999007,23.4929260493468,1.00000000491683,0.71589687436673
26199.9999998992,23.7248347905813,1.00000000530989,0.72230954922488
26299.9999998978,23.9429799995089,1.00000000446327,0.710206016031557
26399.9999998963,24.1689319458262,1.00000000454445,0.697107747282709
26499.9999998949,24.4062577731368,1.0000000045593,0.702686721687696
26599.9999998934,24.6438866724106,1.00000000488342,0.709144136358296
26699.999999892,24.8749361920846,1.00000000563274,0.706670896945705
26799.9999998905,25.1121261580725,1.00000000439647,0.704957127605809
26899.999999889,25.3481563928349,1.00000000483579,0.723874896156474
26999.9999998876,25.5828545721032,1.00000000504058,0.712697186462821
27099.9999998861,25.8165462524915,1.0000000046003,0.700414914029003
27199.9999998847,26.0685928841526,1.00000000463105,0.692429488029412
27299.9999998832,26.3345840631724,1.00000000504257,0.69407789305443
27399.9999998818,26.5933711686582,1.00000000526223,0.710518202191124
27499.9999998803,26.8394482705557,1.00000000544172,0.711668942797911
27599.9999998789,27.0824202898689,1.0000000046476,0.689071725879159
27699.9999998774,27.3373507127707,1.00000000492878,0.700701728531692
27799.9999998759,27.5841995520842,1.00000000485525,0.716506767828991
27899.9999998745,27.82519108078,1.00000000517193,0.715006999378616
27999.999999873,28.0607668095884,1.00000000555215,0.71305160941736
28099.9999998716,28.3010170358669,1.0000000048345,0.707076435020237
28199.9999998701,28.5519586195447,1.00000000511796,0.703506061975665
28299.9999998687,28.8098784320499,1.0000000047599,0.703104530596141
28399.9999998672,29.0646079973309,1.00000000490735,0.703705945978111
28499.9999998658,29.3270885216709,1.00000000496444,0.702762092928123
28599.9999998643,29.588453185328,1.00000000486336,0.721204170790462
28699.9999998629,29.8326660430254,1.00000000515375,0.710625163033003
28799.9999998614,30.0621434611628,1.00000000501715,0.708547432776442
28899.9999998599,30.2898187724796,1.00000000501867,0.699386830134185
28999.9999998585,30.5360507786667,1.00000000487013,0.683320014641346
29099.999999857,30.7968602949831,1.00000000472408,0.685233452191827
