Time,AGPnorm,Energy,Entropy
0,0,1,-1.2373234870985e-17
99.9999999999986,3.53939963259565e-05,1.00000000000184,0.00136763295688164
199.999999999993,0.00301105625386176,0.999999999998658,0.00219724752165304
300,0.00745191481157129,1.00000000000177,0.00392845832357505
400.000000000022,0.0102327600723772,1.00000000000022,0.00660293923686353
500.000000000045,0.01270852994768,0.999999999999407,0.00901384996235738
600.000000000068,0.0183100549905223,1.00000000000219,0.0124113807449405
700.000000000091,0.022718542213908,0.999999999998689,0.0158883575570326
800.000000000113,0.0285732294161299,1.00000000000135,0.0196999800838134
900.000000000136,0.0356145138601697,1.00000000000085,0.0240156066523008
1000.00000000016,0.0418986160843741,0.999999999998884,0.0284001182612608
1100.0000000001,0.0498780322469876,1.00000000000235,0.0332347186679229
1200,0.0583273492886788,0.999999999998962,0.0383011936314678
1299.99999999991,0.0668517548954102,1.00000000000075,0.0436938516773228
1399.99999999982,0.0764363421868602,1.00000000000149,0.049362474550194
1499.99999999973,0.0857836365120429,0.999999999998548,0.055320093704496
1599.99999999964,0.0954785764719223,1.00000000000225,0.0616285132200371
1699.99999999955,0.10619608939549,0.999999999999453,0.068182050006829
1799.99999999946,0.116953489960364,1.00000000000008,0.0752173006046476
1899.99999999937,0.128204531177179,1.00000000000201,0.0824757963530046
1999.99999999928,0.139525760842807,0.999999999998409,0.0901964227639086
2099.99999999919,0.150212176471028,1.0000000000019,0.0983980856726561
2199.99999999909,0.161998967901511,1.00000000000013,0.106931780074903
2299.999999999,0.17396143692329,0.999999999999534,0.116246337259949
2399.99999999891,0.185786273556653,1.0000000000023,0.126050360095403
2499.99999999882,0.197675613333298,0.999999999998578,0.136640305946209
2599.99999999873,0.208880714427277,1.00000000000187,0.148266409743898
2699.99999999864,0.220892705712593,1.00000000000252,0.160867195017834
2799.99999999855,0.232798101987284,1.00000000000442,0.175099632777955
2899.99999999846,0.244848366048899,1.00000000001522,0.190692520777398
2999.99999999837,0.25509867522832,1.00000000002681,0.207586019972823
3099.99999999828,0.267617962971667,1.00000000005424,0.225643596419524
3199.99999999819,0.28245119875764,1.00000000008815,0.243958570391986
3299.99999999809,0.295524824778214,1.00000000013013,0.262511457257852
3399.999999998,0.322959662237765,1.0000000001845,0.280749403496894
3499.99999999791,0.353600946237255,1.00000000024258,0.298433304705742
3599.99999999782,0.406778349234831,1.00000000029791,0.31607566679799
3699.99999999773,0.49473265715455,1.00000000035661,0.33291761324484
3799.99999999764,0.611798048294175,1.00000000042178,0.349379522819793
3899.99999999755,0.794682969248313,1.00000000048799,0.36520069411809
3999.99999999746,1.04406989731544,1.00000000055612,0.37993947915977
4099.99999999738,1.37999622501889,1.00000000061864,0.394773880264286
4199.99999999775,1.82871909829445,1.00000000063456,0.408627500668517
4299.99999999811,2.39700448996406,1.00000000072425,0.421618230599554
4399.99999999848,3.10699890110668,1.00000000076593,0.434370995414642
4499.99999999884,3.97907787287478,1.00000000080781,0.445909459614554
4599.9999999992,5.02586932475097,1.00000000083758,0.457457657598291
4699.99999999957,6.25489887772536,1.00000000091895,0.467789224859561
4799.99999999993,7.6965848568105,1.00000000090743,0.47745838511929
4900.00000000029,9.33798324045321,1.00000000098942,0.487051968937783
5000.00000000066,11.1961365630916,1.00000000096456,0.495667797053598
5100.00000000102,13.2934014873467,1.00000000099879,0.503845025231571
5200.00000000139,15.5916324444023,1.00000000098742,0.511745755167705
5300.00000000175,18.1387871660529,1.00000000100873,0.518204946905011
5400.00000000211,20.903911980325,1.00000000097992,0.525447782197888
5500.00000000248,23.8729843168238,1.00000000106702,0.531184875702359
5600.00000000284,27.0923373573325,1.00000000104021,0.536690135956246
5700.00000000321,30.4847919300488,1.00000000102339,0.542512361924426
5800.00000000357,34.0936529786626,1.00000000113575,0.546688376112371
5900.00000000393,37.9012123245626,1.00000000104715,0.551698990674394
6000.0000000043,41.8509542513769,1.00000000102511,0.555941937628996
6100.00000000466,46.0099327645434,1.0000000011064,0.558920363394424
6200.00000000502,50.2894145336477,1.00000000105039,0.563206629502496
6300.00000000539,54.7074671243168,1.00000000106723,0.566092006941119
6400.00000000575,59.2763740560871,1.0000000011346,0.568823247742705
6500.00000000612,63.9097754169142,1.00000000107239,0.572038170953121
6600.00000000648,68.6769097110453,1.00000000106148,0.573856440398708
6700.00000000684,73.5058617892713,1.00000000104238,0.576609912717326
6800.00000000721,78.3815829564282,1.0000000010434,0.578619363524789
6900.00000000757,83.3448840482965,1.00000000107427,0.579781164565006
7000.00000000793,88.3004790444241,1.00000000100817,0.582172770884616
7100.0000000083,93.3035707306963,1.00000000101205,0.582981026573825
7200.00000000866,98.3125764354049,1.00000000100793,0.58453677098524
7300.00000000903,103.287188226875,1.00000000100916,0.585930657115761
7400.00000000939,108.28231441319,1.00000000096917,0.586086120443382
7500.00000000975,113.212969570919,1.00000000096228,0.587506498552484
7600.00000001012,118.113631475528,1.00000000094404,0.587964095157484
7700.00000001048,122.972123591714,1.0000000009515,0.588445627451037
7800.00000001084,127.734442397657,1.00000000095065,0.589382344024688
7900.00000001121,132.458144857051,1.0000000009186,0.588903834685035
8000.00000001157,137.077727044027,1.00000000093986,0.589987426209571
8100.00000001194,141.607887363455,1.00000000089568,0.589805729989066
8200.0000000123,146.057569345011,1.00000000087436,0.590002897459242
8300.00000001266,150.372944471935,1.00000000089892,0.589889455221406
8400.00000001303,154.60392433027,1.00000000089735,0.589879452590491
8500.00000001339,158.706187101563,1.00000000084196,0.589517103307681
8600.00000001376,162.68084662922,1.00000000087079,0.59012774517149
8700.00000001412,166.548595422897,1.00000000083395,0.58847368944675
8800.00000001448,170.261086189076,1.00000000080638,0.590098485691417
8900.00000001485,173.860075065689,1.00000000079928,0.588098459478285
9000.00000001521,177.316267122396,1.00000000079792,0.588896522201193
9100.00000001557,180.625649687044,1.00000000080248,0.58811474031135
9200.00000001594,183.810244315882,1.00000000078765,0.587444614462828
9300.0000000163,186.835953718753,1.00000000077774,0.587832970859741
9400.00000001667,189.728918650814,1.00000000073974,0.586498506902833
9500.00000001703,192.479752513266,1.00000000073417,0.586970260393663
9600.00000001739,195.073995255842,1.00000000072991,0.585911979295739
9700.00000001776,197.541235365618,1.00000000075537,0.585965250616314
9800.00000001812,199.851108806727,1.00000000071169,0.584692035321456
9900.00000001848,202.024897602627,1.00000000070783,0.58532400025027
10000.0000000188,204.062119190183,1.00000000068531,0.584004110629237
10100.0000000192,205.946784993058,1.0000000006743,0.583488619341133
10200.0000000196,207.708306539429,1.00000000067297,0.583743247887619
10300.0000000199,209.324403054398,1.0000000006336,0.58241550533218
10400.0000000203,210.809187903368,1.00000000065641,0.582375191867251
10500.0000000207,212.167962119713,1.0000000006452,0.582403719955757
10600.000000021,213.387154936321,1.00000000062016,0.582278772400987
10700.0000000214,214.490384956533,1.00000000064325,0.581251645961985
10800.0000000218,215.463662400893,1.00000000063305,0.581408972867528
10900.0000000221,216.317140152303,1.00000000060504,0.581904039986645
11000.0000000225,217.058810123293,1.00000000060536,0.581347267210542
11100.0000000229,217.677783273208,1.00000000059413,0.579876679889241
11200.0000000232,218.192531434479,1.00000000059416,0.580650196728275
11300.0000000236,218.598348421782,1.00000000060832,0.582414301730098
11400.0000000239,218.903686707996,1.00000000056422,0.578815256580593
11500.0000000243,219.109827276697,1.00000000055919,0.575814911120615
11600.0000000247,219.213834826888,1.00000000058833,0.582670982679321
11700.000000025,219.243275277572,1.00000000061621,0.580434216925142
11800.0000000254,219.183095357853,1.00000000054002,0.571185210039935
11900.0000000258,219.031867534966,1.00000000055252,0.575477581749536
12000.0000000261,218.813260613007,1.00000000061328,0.583103107275847
12100.0000000265,218.526850687678,1.0000000005944,0.576059439450586
12200.0000000269,218.171693238846,1.00000000053306,0.566211510677873
12300.0000000272,217.739616410272,1.00000000053981,0.571730222221622
12400.0000000276,217.253646901683,1.00000000062622,0.582401200974843
12500.0000000279,216.72953123989,1.00000000060459,0.574487135135285
12600.0000000283,216.145074399819,1.00000000051259,0.560601293509743
12700.0000000287,215.500162940193,1.0000000005061,0.562730842639188
12800.000000029,214.812336169717,1.00000000064485,0.582423068115112
12900.0000000294,214.099869477413,1.00000000064642,0.576350733738593
13000.0000000298,213.355147060123,1.00000000051812,0.559364104500059
13100.0000000301,212.55309252569,1.0000000004897,0.549275042699479
13200.0000000305,211.714428106228,1.00000000061784,0.573918348122201
13300.0000000309,210.863209267456,1.00000000065781,0.582535592280881
13400.0000000312,209.99944504402,1.00000000062316,0.565315872612531
13500.0000000316,209.104359229915,1.00000000047373,0.544245164290233
13600.0000000319,208.1633636306,1.00000000052092,0.547397620026592
13700.0000000323,207.207427188272,1.00000000068676,0.579208602561326
13800.0000000327,206.254051204899,1.00000000071305,0.579734731015235
13900.000000033,205.29521254288,1.00000000057846,0.554414834904826
14000.0000000334,204.312095301361,1.00000000050659,0.536783167223524
14100.0000000338,203.29424233953,1.00000000053955,0.541152379293571
14200.0000000341,202.269162349368,1.00000000070273,0.575861853918253
14300.0000000345,201.254432793078,1.00000000077508,0.580271470167512
14400.0000000349,200.242665668624,1.00000000060066,0.549760688670744
14500.0000000352,199.218245471849,1.00000000050892,0.535000918579879
14600.0000000356,198.168333183376,1.00000000050742,0.529346503459437
14700.0000000359,197.108505466992,1.00000000064087,0.558927739706801
14800.0000000363,196.058142570361,1.00000000076458,0.581449968495835
14900.0000000367,195.020671663895,1.0000000007207,0.561304552484381
15000.000000037,193.985287101297,1.00000000053702,0.533496230107741
15100.0000000374,192.93562839947,1.00000000052236,0.527111458713531
15200.0000000378,191.873997568918,1.00000000054659,0.532019539684923
15300.0000000381,190.811937375141,1.00000000069861,0.558969630683473
15400.0000000385,189.761295773223,1.00000000078812,0.577262896398818
15500.0000000389,188.72590143551,1.000000000689,0.552289193038843
15600.0000000392,187.693034440542,1.00000000056112,0.527186130367323
15700.0000000396,186.654508431496,1.00000000051373,0.525389890980555
15800.0000000399,185.610455778807,1.00000000057008,0.531162335358621
15900.0000000403,184.565880536771,1.00000000065076,0.54455134362038
16000.0000000407,183.532484758029,1.00000000073444,0.566173142014296
16100.000000041,182.512448928861,1.00000000069407,0.559065870522358
16200.0000000414,181.500813108573,1.0000000006228,0.53010638426952
16300.0000000418,180.491831744638,1.00000000052721,0.520088013958988
16400.0000000418,179.481034675644,1.00000000056326,0.531379928496408
16500.0000000404,178.472924122072,1.00000000060114,0.534780122696322
16600.0000000389,177.469242272264,1.0000000006385,0.539071792460098
16700.0000000375,176.474598812192,1.00000000070115,0.554996624115226
16800.000000036,175.492573364905,1.00000000068439,0.550578557499039
16900.0000000346,174.518096229746,1.00000000062038,0.527539943723198
17000.0000000331,173.549496602833,1.00000000058059,0.520668186932897
17100.0000000317,172.585002038493,1.00000000058292,0.531486524217512
17200.0000000302,171.625210680365,1.00000000061235,0.536401140038749
17300.0000000287,170.671618608895,1.00000000060602,0.532100473602752
17400.0000000273,169.72485281913,1.00000000064289,0.534764904502666
17500.0000000258,168.787414404896,1.00000000065301,0.541512331680357
17600.0000000244,167.859448397928,1.00000000066015,0.538741413572206
17700.0000000229,166.939033647209,1.00000000063708,0.527944346045696
17800.0000000215,166.026647021479,1.00000000059475,0.524250747401798
17900.00000002,165.12078096736,1.00000000059229,0.53336500758243
18000.0000000186,164.222433174081,1.00000000058481,0.537717161343471
18100.0000000171,163.330861440346,1.00000000061058,0.531374923282956
18200.0000000156,162.446453620998,1.00000000058112,0.524227686382024
18300.0000000142,161.570466449819,1.00000000063435,0.52712571797273
18400.0000000127,160.702806425419,1.00000000064857,0.537125209520085
18500.0000000113,159.843495898386,1.00000000065424,0.538561654042135
18600.0000000098,158.992775119199,1.00000000059375,0.529691022380424
18700.0000000084,158.150194674747,1.00000000061913,0.531964038543132
18800.0000000069,157.316400999854,1.00000000059026,0.539182518814271
18900.0000000055,156.490430894414,1.00000000058361,0.537139239820637
19000.000000004,155.672566896893,1.00000000056945,0.526724596336743
19100.0000000026,154.862740433901,1.0000000005965,0.520362311859526
19200.0000000011,154.061082826327,1.00000000060529,0.523758061211863
19299.9999999996,153.268071670078,1.0000000006373,0.529417324683363
19399.9999999982,152.483369181377,1.00000000063062,0.540771152160835
19499.9999999967,151.706588791238,1.00000000063125,0.541219879174234
19599.9999999953,150.938109711091,1.00000000061273,0.535471229596478
19699.9999999938,150.177901985719,1.00000000063054,0.539628983179014
19799.9999999924,149.426550733453,1.00000000059465,0.541860678278599
19899.9999999909,148.684076534796,1.00000000054436,0.533568088627473
19999.9999999895,147.95110970987,1.00000000053201,0.52059244173863
20099.999999988,147.227349553,1.00000000055221,0.51617031281086
20199.9999999865,146.512383828237,1.0000000006038,0.521696368883928
20299.9999999851,145.805873748111,1.00000000058823,0.524539644556822
20399.9999999836,145.107137720912,1.00000000063653,0.535813400104224
20499.9999999822,144.415499977398,1.00000000061073,0.546139422572832
20599.9999999807,143.731088177923,1.00000000060775,0.542701558430092
20699.9999999793,143.053982372633,1.00000000063223,0.540800474261406
20799.9999999778,142.38390627869,1.0000000006987,0.547153003213317
20899.9999999764,141.721770831068,1.00000000063069,0.540992928652053
20999.9999999749,141.069929201304,1.00000000051202,0.527498955883269
21099.9999999734,140.429417339791,1.00000000051281,0.513919404926283
21199.999999972,139.799728788261,1.00000000054029,0.508330893881651
21299.9999999705,139.178678077642,1.00000000064024,0.518065664774157
21399.9999999691,138.564867155574,1.00000000062233,0.52400301449339
21499.9999999676,137.957689200676,1.00000000061956,0.526521708489317
21599.9999999662,137.357080276568,1.00000000062892,0.533552345254081
21699.9999999647,136.762279235193,1.00000000063157,0.545353579212147
21799.9999999633,136.172637681235,1.00000000065082,0.546795750750062
21899.9999999618,135.587993619846,1.00000000068396,0.546640358711493
21999.9999999603,135.008419141419,1.00000000067621,0.547413022576083
22099.9999999589,134.435962375627,1.00000000061324,0.536877827855013
22199.9999999574,133.874252254385,1.00000000052317,0.521910913428977
22299.999999956,133.325368391178,1.00000000049721,0.513992085699264
22399.9999999545,132.788666173071,1.00000000052562,0.507042804524439
22499.9999999531,132.261781512309,1.00000000061051,0.510071730294178
22599.9999999516,131.741255698253,1.00000000062827,0.517791981984748
22699.9999999502,131.22632514872,1.00000000063266,0.520880570036263
22799.9999999487,130.716730686741,1.00000000061824,0.517700837490906
22899.9999999473,130.212202265759,1.00000000062878,0.528612678948573
22999.9999999458,129.710906948845,1.00000000065525,0.545255937791687
23099.9999999443,129.211723535777,1.00000000065745,0.550040355692867
23199.9999999429,128.715610680446,1.0000000006421,0.547305576593097
23299.9999999414,128.223145337824,1.0000000006556,0.544191939196279
23399.99999994,127.735901898511,1.00000000061278,0.5395893445884
23499.9999999385,127.257362563792,1.00000000055013,0.526560369571181
23599.9999999371,126.790211440649,1.00000000052686,0.516556073391888
23699.9999999356,126.335905747207,1.00000000053854,0.513723291238614
23799.9999999342,125.892823491165,1.0000000005672,0.51254939335028
23899.9999999327,125.458803868065,1.00000000059016,0.507941774335935
23999.9999999312,125.032231438456,1.00000000062449,0.511631544063461
24099.9999999298,124.610235850737,1.00000000063734,0.5160550134664
24199.9999999283,124.192313338118,1.00000000060835,0.51976153256894
24299.9999999269,123.777413647763,1.00000000063312,0.524594848406482
24399.9999999254,123.363782029427,1.00000000067418,0.53248090121187
24499.999999924,122.950694508244,1.00000000065058,0.541216800692314
24599.9999999225,122.53783012037,1.00000000064945,0.548602092171826
24699.9999999211,122.126525356775,1.00000000067634,0.545837007676694
24799.9999999196,121.718438233623,1.00000000063371,0.540478475571965
24899.9999999181,121.315354288705,1.0000000006201,0.536536807165933
24999.9999999167,120.919157890596,1.00000000058901,0.532023131060233
25099.9999999152,120.531778936027,1.00000000057201,0.525714374593179
25199.9999999138,120.154945833143,1.00000000053409,0.519546872983555
25299.9999999123,119.789197826138,1.00000000055427,0.518280718042383
25399.9999999109,119.433536717979,1.00000000055479,0.515957287460776
25499.9999999094,119.08758198361,1.00000000058077,0.51148484111669
25599.999999908,118.748702166046,1.00000000061029,0.512432291615687
25699.9999999065,118.415325900918,1.00000000061208,0.517770233345148
25799.9999999051,118.084748149642,1.00000000062415,0.52289338969684
25899.9999999036,117.755664873792,1.00000000064018,0.527645181044916
25999.9999999021,117.427985970493,1.00000000062083,0.529619799783357
26099.9999999007,117.099678416238,1.00000000065655,0.535860049240011
26199.9999998992,116.769885767547,1.00000000065855,0.538721101188315
26299.9999998978,116.439897278006,1.00000000063837,0.544495434820251
26399.9999998963,116.110714256289,1.00000000063627,0.545103627585789
26499.9999998949,115.784842935493,1.00000000060206,0.540657150200697
26599.9999998934,115.463381608065,1.0000000005955,0.538737246225708
26699.999999892,115.1471171056,1.00000000061467,0.537413688634008
26799.9999998905,114.83658360354,1.000000000622,0.536824135713883
26899.999999889,114.532623903549,1.00000000058296,0.531954611598583
26999.9999998876,114.238126484678,1.00000000055098,0.523893767309664
27099.9999998861,113.954142200165,1.00000000053989,0.518759251290296
27199.9999998847,113.680915855126,1.0000000005504,0.517184493359438
27299.9999998832,113.417017792613,1.00000000059672,0.520558415755891
27399.9999998818,113.159245876993,1.00000000060366,0.520943720121969
27499.9999998803,112.907148724046,1.00000000059762,0.522663584722139
27599.9999998789,112.658901477871,1.00000000061795,0.524874740360687
27699.9999998774,112.412794717425,1.00000000064734,0.529166971461906
27799.9999998759,112.166991027176,1.00000000065303,0.538516402145222
27899.9999998745,111.920422361876,1.00000000066786,0.537564047736145
27999.999999873,111.672892403029,1.00000000064844,0.536848129043838
28099.9999998716,111.423390888558,1.00000000066222,0.542671942401281
28199.9999998701,111.172067157563,1.0000000006291,0.543428838001684
28299.9999998687,110.921046782649,1.00000000061747,0.543344468073818
28399.9999998672,110.671950036939,1.00000000059449,0.546030564504408
28499.9999998658,110.426076215812,1.0000000006087,0.544277394957629
28599.9999998643,110.18315281232,1.00000000063351,0.544937528395364
28699.9999998629,109.942762129551,1.00000000060611,0.543895409632869
28799.9999998614,109.705534367894,1.00000000064379,0.542015149564567
28899.9999998599,109.4717934598,1.00000000061902,0.540409139960206
