Time,AGPnorm,Energy,Entropy
0,0,1,3.6305500376569e-18
99.9999999999986,0.00897341289999752,1.00000000000234,0.0253302616058902
199.999999999993,0.0245227895820151,1.00000000000109,0.0744034327046373
300,0.0480126486529449,1.00000000000419,0.14988445392919
400.000000000022,0.0720122750766734,1.00000000019419,0.268029732196085
500.000000000045,0.132191902009506,1.00000000135086,0.412192528390191
600.000000000068,0.583836547066108,1.00000000264617,0.511233572732688
700.000000000091,1.77281706226362,1.0000000033885,0.561553397767918
800.000000000113,3.71013346879561,1.0000000036011,0.584977642356273
900.000000000136,6.1883565316004,1.00000000324658,0.589110794522965
1000.00000000016,8.73226984172072,1.00000000339271,0.586430928418955
1100.0000000001,11.1140724092961,1.00000000293398,0.578156722498026
1200,13.0454593981659,1.00000000250677,0.567409121500841
1299.99999999991,14.479678092248,1.00000000240953,0.561431499957575
1399.99999999982,15.3829734565271,1.00000000224076,0.552283416294734
1499.99999999973,15.8268032803321,1.00000000192522,0.532678540496136
1599.99999999964,15.9207677117312,1.0000000020398,0.562481591039916
1699.99999999955,15.6939133336958,1.00000000196487,0.545728092630694
1799.99999999946,15.3801249003447,1.00000000150609,0.491269688154715
1899.99999999937,14.8952221682638,1.0000000025211,0.566772260777299
1999.99999999928,14.4400023898162,1.0000000017258,0.462440679455849
2099.99999999919,13.8887828914319,1.0000000022636,0.504547897856162
2199.99999999909,13.3990085632025,1.00000000232605,0.544772490008721
2299.999999999,12.9099112229883,1.00000000131352,0.394058527790147
2399.99999999891,12.404074315931,1.00000000228837,0.527379560324959
2499.99999999882,11.9501176118043,1.00000000270476,0.55220020572537
2599.99999999873,11.533735829006,1.00000000134888,0.397248962495881
2699.99999999864,11.1351985039521,1.00000000203174,0.485053938778998
2799.99999999855,10.7466930786298,1.00000000230911,0.528964948518148
2899.99999999846,10.3798944411784,1.00000000274815,0.561316579237269
2999.99999999837,10.0556982151327,1.00000000134783,0.440175370192679
3099.99999999828,9.80387041993729,1.00000000154792,0.4233807774921
3199.99999999819,9.54418584421267,1.00000000248219,0.530370576811766
3299.99999999809,9.29389343357093,1.00000000198063,0.523445895694215
3399.999999998,9.04653648515389,1.00000000263082,0.5377203514448
3499.99999999791,8.79498893195654,1.00000000259591,0.558771944112877
3599.99999999782,8.58884606060983,1.00000000135643,0.450121181891886
3699.99999999773,8.47261582889963,1.00000000156533,0.434832792103361
3799.99999999764,8.37351411247813,1.00000000252682,0.51504266022765
3899.99999999755,8.25613582573394,1.00000000210071,0.533203825633016
3999.99999999746,8.1351182152993,1.00000000233057,0.552454713267125
4099.99999999738,8.00010973897146,1.00000000220956,0.576271999284248
4199.99999999775,7.86069996025878,1.00000000215028,0.555430689441887
4299.99999999811,7.70960485308094,1.00000000260632,0.566530416138272
4399.99999999848,7.55232488876746,1.0000000024188,0.56469235387686
4499.99999999884,7.44170425426523,1.00000000151673,0.472834897952811
4599.9999999992,7.4336504215178,1.00000000141027,0.442921383562447
4699.99999999957,7.46586933166927,1.00000000224124,0.493413572112875
4799.99999999993,7.47886573421215,1.00000000223198,0.532118308594494
4900.00000000029,7.46932997803009,1.00000000233021,0.564413116202629
5000.00000000066,7.44109332278572,1.00000000218845,0.57933804401058
5100.00000000102,7.40510619325089,1.00000000207285,0.582605482753213
5200.00000000139,7.36225386468795,1.00000000212905,0.583801714688469
5300.00000000175,7.30349960110281,1.00000000225036,0.571885420854431
5400.00000000211,7.2294485645718,1.00000000219424,0.589542560536783
5500.00000000248,7.15290187871563,1.00000000204002,0.59720699829799
5600.00000000284,7.07017320252581,1.00000000221374,0.593869301967971
5700.00000000321,6.97713232371349,1.00000000268834,0.608773233485539
5800.00000000357,6.87781869401189,1.00000000267192,0.588709519001887
5900.00000000393,6.77899628194594,1.00000000197874,0.560591609356885
6000.0000000043,6.72371955202456,1.00000000152065,0.494795641944027
6100.00000000466,6.76317349689105,1.00000000138365,0.460006192319754
6200.00000000502,6.87637576352864,1.00000000199005,0.488147462446477
6300.00000000539,6.98873907890567,1.00000000249531,0.530367861150424
6400.00000000575,7.0813245826994,1.00000000228113,0.55360979529754
6500.00000000612,7.15533458250556,1.00000000224699,0.576674492730814
6600.00000000648,7.21179763241766,1.00000000226569,0.599090504983807
6700.00000000684,7.2443013868336,1.00000000228939,0.612392364908336
6800.00000000721,7.26004546914708,1.00000000218464,0.629306073545701
6900.00000000757,7.25710943435484,1.0000000025832,0.629030326068689
7000.00000000793,7.23730507714074,1.00000000244926,0.633185111037976
7100.0000000083,7.21408448078481,1.00000000221979,0.619641405526728
7200.00000000866,7.1968303410556,1.00000000204916,0.612719098037469
7300.00000000903,7.18199569594406,1.0000000025039,0.598528121917505
7400.00000000939,7.15058564299712,1.00000000230942,0.612168617878966
7500.00000000975,7.11829301482684,1.00000000223775,0.615636351523957
7600.00000001012,7.09131862692356,1.0000000023007,0.630454260366541
7700.00000001048,7.05780965189405,1.00000000216371,0.634805176542503
7800.00000001084,7.0200902375163,1.00000000232651,0.628972006099719
7900.00000001121,6.98080333538056,1.00000000235563,0.606346615369054
8000.00000001157,6.93618860040943,1.00000000250175,0.630937434776456
8100.00000001194,6.88102948763012,1.00000000223532,0.640722954415107
8200.0000000123,6.81920354169555,1.00000000247617,0.640496447897354
8300.00000001266,6.75640449782148,1.00000000209835,0.642752319296045
8400.00000001303,6.69241429260698,1.00000000254414,0.649880223557856
8500.00000001339,6.62789016209202,1.00000000273939,0.65673919786413
8600.00000001376,6.56534714811892,1.00000000280856,0.671928260216923
8700.00000001412,6.50334079406779,1.00000000265863,0.651833942955255
8800.00000001448,6.43633712022631,1.00000000253331,0.625023135281317
8900.00000001485,6.3718098534241,1.0000000020726,0.578163102863775
9000.00000001521,6.34072196897959,1.00000000156987,0.525421322254964
9100.00000001557,6.38008774296264,1.00000000153836,0.489728866973009
9200.00000001594,6.50283829863638,1.00000000190854,0.488401267292947
9300.0000000163,6.68005472089235,1.00000000215462,0.507980403787688
9400.00000001667,6.86406627909808,1.00000000243302,0.533807772015636
9500.00000001703,7.03608360543591,1.00000000281999,0.544346561761683
9600.00000001739,7.19036475146668,1.00000000240656,0.562570433627068
9700.00000001776,7.32765362773394,1.00000000263921,0.574203471423986
9800.00000001812,7.44751752920311,1.00000000255077,0.583685610050296
9900.00000001848,7.55520189364658,1.00000000267601,0.606672675654797
10000.0000000188,7.64368247985517,1.00000000260406,0.621874099098452
10100.0000000192,7.71760158242292,1.00000000267774,0.618957474450562
10200.0000000196,7.77566975218495,1.00000000256692,0.616481202045406
10300.0000000199,7.81738008052713,1.00000000265483,0.644915197684605
10400.0000000203,7.84309602520643,1.00000000266217,0.65013654574743
10500.0000000207,7.86028512251021,1.00000000254191,0.653387669582065
10600.000000021,7.87772574414196,1.00000000247955,0.641001060775004
10700.0000000214,7.89410274137122,1.00000000273841,0.64865896043293
10800.0000000218,7.90134065440979,1.00000000251585,0.653208357568121
10900.0000000221,7.90878394201791,1.00000000285592,0.658305915623374
11000.0000000225,7.9060881016055,1.00000000287396,0.660353619198908
11100.0000000229,7.89986158120888,1.00000000258202,0.659046424924516
11200.0000000232,7.88978872574449,1.00000000294683,0.655009235636935
11300.0000000236,7.87570155117283,1.00000000254501,0.659298028058476
11400.0000000239,7.85613448503355,1.00000000281798,0.67002843220693
11500.0000000243,7.83392648801915,1.00000000265307,0.660834332523999
11600.0000000247,7.81079817031982,1.00000000287322,0.659518497865215
11700.000000025,7.78939733005313,1.00000000262317,0.650505312802774
11800.0000000254,7.77291431786786,1.00000000269818,0.632923966636859
11900.0000000258,7.76814911889275,1.00000000264393,0.617200480002516
12000.0000000261,7.77780384535854,1.00000000270016,0.627027773702643
12100.0000000265,7.79578756943774,1.00000000261432,0.643415648449648
12200.0000000269,7.81160621106343,1.00000000273463,0.629282859928994
12300.0000000272,7.8219133724965,1.00000000299096,0.635414391096011
12400.0000000276,7.82827612642087,1.00000000255821,0.622981821094163
12500.0000000279,7.84175771874299,1.00000000324037,0.63173332472646
12600.0000000283,7.85103466215636,1.00000000285823,0.622514400390108
12700.0000000287,7.86168183344583,1.00000000273466,0.648019257321631
12800.000000029,7.87788720791137,1.00000000279996,0.658108513676944
12900.0000000294,7.89080576427612,1.00000000325565,0.664506390968614
13000.0000000298,7.89504598369152,1.00000000289553,0.654108386398882
13100.0000000301,7.90056481962427,1.00000000276549,0.65475670276041
13200.0000000305,7.91186059618759,1.00000000309771,0.659156566589713
13300.0000000309,7.93062820712681,1.00000000271169,0.646298037674989
13400.0000000312,7.95466349881733,1.00000000298642,0.653516671813408
13500.0000000316,7.97196418830148,1.00000000302669,0.660985905775259
13600.0000000319,7.98400790420034,1.00000000311841,0.653965093521999
13700.0000000323,7.99795448929005,1.00000000284692,0.675000332091138
13800.0000000327,8.01145179971127,1.00000000310391,0.669725196000339
13900.000000033,8.02331365475836,1.00000000285556,0.659368970332718
14000.0000000334,8.03820672397337,1.00000000310256,0.676006952931098
14100.0000000338,8.04599869016605,1.00000000325282,0.673001010959958
14200.0000000341,8.05699196015725,1.00000000278007,0.658333758825579
14300.0000000345,8.06923619008607,1.00000000308552,0.665668828991783
14400.0000000349,8.07742254939925,1.00000000294632,0.674270095191482
14500.0000000352,8.08392477887275,1.0000000028775,0.671304944971019
14600.0000000356,8.09188813683467,1.00000000292828,0.670865707772098
14700.0000000359,8.09541588609061,1.00000000316037,0.67968949093148
14800.0000000363,8.09391704013755,1.00000000317416,0.668136257136579
14900.0000000367,8.09555891076438,1.00000000297285,0.655020744931492
15000.000000037,8.09430465730633,1.00000000325272,0.673183026364138
15100.0000000374,8.09796622087862,1.0000000031053,0.661650716163479
15200.0000000378,8.10213023695076,1.00000000300826,0.675232550094521
15300.0000000381,8.09605768509284,1.00000000318144,0.683422507497121
15400.0000000385,8.08889856389008,1.00000000282436,0.664589790215802
15500.0000000389,8.08447801902227,1.00000000295863,0.659336049002623
15600.0000000392,8.07798380527256,1.00000000314475,0.675502256597936
15700.0000000396,8.06779725541444,1.00000000338609,0.685689454647234
15800.0000000399,8.04955193935039,1.00000000318031,0.681590469896692
15900.0000000403,8.02939731634567,1.00000000289895,0.664806760137499
16000.0000000407,8.0090604537127,1.00000000321721,0.676121451760819
16100.000000041,7.98355560419546,1.0000000031601,0.673178050090447
16200.0000000414,7.95330228566811,1.00000000314605,0.681472888284521
16300.0000000418,7.92018781360194,1.00000000306708,0.67550686767275
16400.0000000418,7.88516700293925,1.00000000297556,0.680617120143504
16500.0000000404,7.84923331634201,1.00000000304827,0.674398444602403
16600.0000000389,7.81313179179603,1.00000000292409,0.681954521447245
16700.0000000375,7.77675395940109,1.00000000319703,0.670083515935971
16800.000000036,7.74045471312881,1.00000000299087,0.664606901944539
16900.0000000346,7.70510224847079,1.00000000313393,0.661231001202779
17000.0000000331,7.67055835168601,1.00000000391069,0.661653248867876
17100.0000000317,7.63778009181971,1.00000000339431,0.679856120445748
17200.0000000302,7.60819706718689,1.00000000369859,0.677699059141143
17300.0000000287,7.57957331183618,1.00000000365426,0.691539679781217
17400.0000000273,7.5534939242742,1.00000000351928,0.685274638108897
17500.0000000258,7.52247385429274,1.0000000034609,0.680055535809671
17600.0000000244,7.48928162024291,1.00000000357394,0.6621506267268
17700.0000000229,7.45027443756328,1.00000000305289,0.628269073009353
17800.0000000215,7.4124729541965,1.00000000307534,0.605358190329385
17900.00000002,7.39067704448282,1.0000000026296,0.583331302645487
18000.0000000186,7.39932380165712,1.00000000263236,0.568254217458112
18100.0000000171,7.46242452666413,1.000000002306,0.548479795570017
18200.0000000156,7.59417548322312,1.00000000235442,0.528613210518451
18300.0000000142,7.81312240145778,1.00000000237879,0.525734032495208
18400.0000000127,8.10626426761514,1.00000000269992,0.530274679124521
18500.0000000113,8.48410123647728,1.00000000289497,0.53921732204074
18600.0000000098,8.88652037841818,1.00000000340365,0.542730374411318
18700.0000000084,9.33505625094011,1.00000000355845,0.555626990859996
18800.0000000069,9.7628991912047,1.00000000326069,0.562773021445261
18900.0000000055,10.211782206084,1.00000000335702,0.56815338739629
19000.000000004,10.6320990288563,1.00000000337362,0.577806935682928
19100.0000000026,11.0514593421488,1.00000000349277,0.582500902788959
19200.0000000011,11.4566423009945,1.00000000359656,0.593098185474848
19299.9999999996,11.8462103757232,1.00000000360729,0.59172053539017
19399.9999999982,12.2361348529645,1.00000000361916,0.593776597795025
19499.9999999967,12.609191307236,1.00000000338893,0.605111876213536
19599.9999999953,12.9869302278535,1.00000000337568,0.61033322372689
19699.9999999938,13.3429997688467,1.00000000348316,0.635215135936034
19799.9999999924,13.6967872164036,1.00000000380494,0.642990093141685
19899.9999999909,14.0385254422938,1.00000000379073,0.651309935789535
19999.9999999895,14.3587687022885,1.00000000382885,0.650963957199734
20099.999999988,14.6697077908446,1.00000000376345,0.658555494004137
20199.9999999865,14.953574482395,1.0000000038242,0.669745317542753
20299.9999999851,15.2361094761352,1.00000000345544,0.666787203727191
20399.9999999836,15.481567020768,1.00000000395035,0.651918694070839
20499.9999999822,15.7080122974959,1.00000000385857,0.680790864708178
20599.9999999807,15.9231426878975,1.00000000336483,0.680095188046282
20699.9999999793,16.1303108099079,1.00000000360658,0.683915322742965
20799.9999999778,16.3223544960781,1.00000000374181,0.68692027105705
20899.9999999764,16.4927737124181,1.0000000038303,0.674801654702471
20999.9999999749,16.6587953522569,1.00000000353707,0.678105237404721
21099.9999999734,16.8096124888177,1.00000000359637,0.674912817475222
21199.999999972,16.9580515289203,1.00000000384949,0.68238581952693
21299.9999999705,17.103278982288,1.0000000037385,0.692515009489076
21399.9999999691,17.2366515721133,1.00000000412737,0.702595117578192
21499.9999999676,17.3571316517284,1.0000000034409,0.697966823555279
21599.9999999662,17.4672178176101,1.00000000352374,0.702941146373519
21699.9999999647,17.586024410083,1.00000000361111,0.699082507231981
21799.9999999633,17.712614350842,1.00000000359209,0.689138112551074
21899.9999999618,17.8448187446293,1.00000000359749,0.684554654495779
21999.9999999603,17.9641289159382,1.00000000386572,0.676612191239458
22099.9999999589,18.0701094843634,1.00000000390336,0.698231192118874
22199.9999999574,18.168788797147,1.00000000376891,0.694220680585201
22299.999999956,18.2630106034885,1.00000000336959,0.676533619204736
22399.9999999545,18.3738955782746,1.00000000316132,0.673733381481266
22499.9999999531,18.4899742050793,1.00000000338019,0.688949575657575
22599.9999999516,18.59451378001,1.00000000375845,0.673505526022441
22699.9999999502,18.6799431830097,1.00000000369202,0.688787270566416
22799.9999999487,18.7598433550654,1.00000000347208,0.691939103424821
22899.9999999473,18.8449637847129,1.00000000364955,0.683017950714524
22999.9999999458,18.9321919158386,1.00000000371542,0.673535377110362
23099.9999999443,19.0197215469039,1.00000000377342,0.689779505361934
23199.9999999429,19.0968675904626,1.00000000346713,0.687670795967214
23299.9999999414,19.1699041690803,1.00000000353822,0.68823585587764
23399.99999994,19.2510573475702,1.00000000365286,0.667134606642328
23499.9999999385,19.3449891026372,1.00000000411824,0.665167013743688
23599.9999999371,19.4360456589032,1.00000000394718,0.682364695449766
23699.9999999356,19.5231898766049,1.00000000376116,0.671715073543607
23799.9999999342,19.6141084425378,1.00000000362761,0.66753210906554
23899.9999999327,19.7002082656271,1.00000000353046,0.681121579049564
23999.9999999312,19.782274937702,1.00000000379847,0.690331455101436
24099.9999999298,19.8564977383866,1.00000000389686,0.687836755155976
24199.9999999283,19.9299772143225,1.00000000362505,0.679914718186376
24299.9999999269,20.0082487835239,1.00000000416203,0.685617825678149
24399.9999999254,20.0782673691121,1.00000000393936,0.682115655535258
24499.999999924,20.1557436541005,1.00000000361946,0.681302404333077
24599.9999999225,20.2343329395461,1.00000000408589,0.673050189765393
24699.9999999211,20.3150311329982,1.00000000337042,0.675834789710404
24799.9999999196,20.3980513726952,1.00000000363133,0.66746902266355
24899.9999999181,20.4773897660107,1.00000000405957,0.679305556415067
24999.9999999167,20.5497537169317,1.00000000388616,0.696360273142236
25099.9999999152,20.6227202592328,1.00000000364858,0.688795802667655
25199.9999999138,20.697498837201,1.00000000396578,0.685437941656947
25299.9999999123,20.7723147615695,1.00000000387665,0.690729328193426
25399.9999999109,20.85432290965,1.00000000351024,0.686077198219306
25499.9999999094,20.9403488342802,1.00000000379195,0.685451105641349
25599.999999908,21.0278346841291,1.00000000391914,0.692460592828836
25699.9999999065,21.1094988068626,1.00000000387299,0.68676836923348
25799.9999999051,21.1758329604032,1.00000000426225,0.667291271296271
25899.9999999036,21.2340811348128,1.00000000410171,0.678960886150279
25999.9999999021,21.2894629232873,1.00000000372299,0.678810427807937
26099.9999999007,21.3491129241155,1.00000000367487,0.687241726289906
26199.9999998992,21.4133836304382,1.00000000395743,0.69184234097783
26299.9999998978,21.4845607163995,1.00000000406506,0.680133813970554
26399.9999998963,21.5627393404957,1.00000000387747,0.676801936650359
26499.9999998949,21.6482465225534,1.00000000393156,0.678672736774268
26599.9999998934,21.7454399739634,1.00000000356743,0.681108047776547
26699.999999892,21.8537670951429,1.00000000386553,0.689408000201879
26799.9999998905,21.9704708599378,1.00000000422099,0.701668465093926
26899.999999889,22.0827316763964,1.00000000401658,0.69399121858032
26999.9999998876,22.1887141039265,1.00000000362813,0.695758246617625
27099.9999998861,22.2869468652862,1.00000000417127,0.696798157311876
27199.9999998847,22.3847702881238,1.00000000372962,0.695873892146749
27299.9999998832,22.4824603776707,1.00000000412356,0.690349507246341
27399.9999998818,22.5757039521726,1.0000000039093,0.689072609589155
27499.9999998803,22.6712964415156,1.00000000377352,0.686243820911743
27599.9999998789,22.7638971982646,1.00000000377957,0.678271231120164
27699.9999998774,22.8693215594281,1.00000000350771,0.670091441685562
27799.9999998759,22.9850456616147,1.00000000404698,0.681884023267369
27899.9999998745,23.1100893615554,1.00000000370027,0.681003537280326
27999.999999873,23.2433211031348,1.00000000368485,0.68992612357272
28099.9999998716,23.375082845565,1.00000000386052,0.692577600745221
28199.9999998701,23.4988577672534,1.00000000455784,0.694447280728119
28299.9999998687,23.6127271230992,1.00000000427813,0.69680505775344
28399.9999998672,23.7264655864064,1.00000000390666,0.674174082547255
28499.9999998658,23.8426403037573,1.00000000410657,0.666900512294288
28599.9999998643,23.9584839608134,1.00000000424352,0.669578604548204
28699.9999998629,24.0748184627353,1.00000000415116,0.68098181361535
28799.9999998614,24.1802407687199,1.00000000394166,0.696736306550908
28899.9999998599,24.2842925790381,1.00000000407421,0.686273938120461
28999.9999998585,24.3916451815822,1.00000000412838,0.692000771314029
29099.999999857,24.4950081676671,1.00000000436319,0.697011549953443
