Time,AGPnorm,Energy,Entropy
0,0,1,-7.76373294817441e-17
99.9999999999986,0.000529141334727339,0.99999999999933,0.00200708050906794
199.999999999993,0.00365765265230395,0.999999999998013,0.00599204221115751
300,0.0076157809070051,0.999999999998359,0.0110967157438758
400.000000000022,0.0116179993636975,0.99999999999979,0.0175430364664244
500.000000000045,0.0166162916624889,0.99999999999967,0.0254139773791419
600.000000000068,0.0230543364778836,0.999999999998389,0.0344094548313401
700.000000000091,0.030448966033851,0.999999999998081,0.0441706471369235
800.000000000113,0.0380113163559998,0.999999999999318,0.0548045640740447
900.000000000136,0.0462367004857864,0.999999999999981,0.0666762449428476
1000.00000000016,0.0550873220036382,0.999999999998727,0.079670475986539
1100.0000000001,0.0651276657084874,0.999999999998109,0.0937319479969504
1200,0.0744066057662922,0.999999999998872,0.10899643744598
1299.99999999991,0.0842488782337587,1.00000000000014,0.125922076938373
1399.99999999982,0.0942618395017104,0.99999999999966,0.144975778119431
1499.99999999973,0.104499792923309,1.00000000000016,0.166331717828738
1599.99999999964,0.115261190803281,1.00000000000533,0.190697412038827
1699.99999999955,0.126409975274876,1.00000000002018,0.218436803599988
1799.99999999946,0.13731877606748,1.00000000005098,0.249501561555616
1899.99999999937,0.151724407788613,1.0000000001013,0.281952857687128
1999.99999999928,0.191421053510444,1.00000000015853,0.314145836150341
2099.99999999919,0.275497423372856,1.00000000024144,0.344552131625179
2199.99999999909,0.422887155548488,1.00000000029983,0.372646414115603
2299.999999999,0.683092556870423,1.00000000037732,0.398101666389618
2399.99999999891,1.13468106136829,1.0000000004637,0.420505737625902
2499.99999999882,1.83604831613077,1.00000000055413,0.440330708431985
2599.99999999873,2.8194727018573,1.00000000058619,0.458104066912131
2699.99999999864,4.1429282752094,1.00000000065321,0.473923335429115
2799.99999999855,5.87657068098178,1.00000000067391,0.487487541696876
2899.99999999846,8.04928853809225,1.00000000074426,0.499054140883765
2999.99999999837,10.6541989177534,1.00000000082421,0.509126185853488
3099.99999999828,13.6969426955602,1.00000000081398,0.51820320779928
3199.99999999819,17.199062430998,1.00000000084216,0.525670708501564
3299.99999999809,21.1352155101457,1.00000000077706,0.531965471305891
3399.999999998,25.4530259591915,1.00000000076248,0.537100557578743
3499.99999999791,30.1163396755169,1.00000000079629,0.54182641727079
3599.99999999782,35.1042584573223,1.00000000078238,0.545435535049617
3699.99999999773,40.371556059727,1.0000000008121,0.547820877017793
3799.99999999764,45.8449259720674,1.00000000077377,0.549754358620276
3899.99999999755,51.4708916475986,1.0000000008263,0.551672237143503
3999.99999999746,57.2123609460426,1.00000000078439,0.55330925135906
4099.99999999738,63.0314492431652,1.00000000075205,0.552790006789029
4199.99999999775,68.8639703685242,1.00000000072437,0.553133921142916
4299.99999999811,74.6509393492669,1.00000000072189,0.553743057865127
4399.99999999848,80.3656700134656,1.00000000071273,0.552958411109044
4499.99999999884,85.9838322539732,1.00000000070189,0.551422105006529
4599.9999999992,91.4631661647942,1.0000000006807,0.551221951611692
4699.99999999957,96.7578308127682,1.00000000068936,0.54968387733403
4799.99999999993,101.845839159367,1.00000000068184,0.548437504781364
4900.00000000029,106.718910398293,1.00000000064901,0.547366208309978
5000.00000000066,111.357572383768,1.00000000061794,0.545813007854778
5100.00000000102,115.738745443201,1.00000000061049,0.54388894383528
5200.00000000139,119.843384490651,1.00000000063716,0.544080440041871
5300.00000000175,123.675938064624,1.00000000059106,0.542118065794218
5400.00000000211,127.232308030148,1.00000000058925,0.539674489430701
5500.00000000248,130.508520080961,1.00000000058224,0.538800381455516
5600.00000000284,133.493648926153,1.00000000055385,0.538293459408143
5700.00000000321,136.190663176119,1.00000000054946,0.533751638182339
5800.00000000357,138.604691868934,1.00000000052485,0.532353356642491
5900.00000000393,140.746982057262,1.00000000051524,0.53613403014406
6000.0000000043,142.621093254183,1.00000000050879,0.533713540486323
6100.00000000466,144.221323826167,1.00000000049934,0.524058291677841
6200.00000000502,145.55100810356,1.0000000004683,0.524800111888338
6300.00000000539,146.643692836783,1.00000000050627,0.537064231349261
6400.00000000575,147.527252473878,1.0000000004555,0.535601543223279
6500.00000000612,148.184002895437,1.00000000042875,0.515261307798435
6600.00000000648,148.588750337646,1.00000000038586,0.509948252385274
6700.00000000684,148.784903153807,1.00000000044751,0.534032588311588
6800.00000000721,148.848499157099,1.00000000050633,0.549119831474344
6900.00000000757,148.789895894843,1.00000000046161,0.527551179776066
7000.00000000793,148.543650028394,1.0000000003384,0.491419041694604
7100.0000000083,148.086035502265,1.00000000033975,0.497946854452031
7200.00000000866,147.501761843462,1.00000000047917,0.541283508567786
7300.00000000903,146.885519655923,1.00000000053855,0.560295689546181
7400.00000000939,146.240378942226,1.00000000048357,0.533648742330896
7500.00000000975,145.48089781723,1.00000000030955,0.476701958509305
7600.00000001012,144.54859867088,1.0000000002505,0.460418160301415
7700.00000001048,143.502678030459,1.00000000043208,0.513917972814399
7800.00000001084,142.451031179967,1.0000000006025,0.558946545657177
7900.00000001121,141.44663976529,1.00000000060519,0.563395977806103
8000.00000001157,140.453557611909,1.00000000048602,0.519623136460567
8100.00000001194,139.384083370838,1.00000000028488,0.444593660126281
8200.0000000123,138.19119623886,1.00000000022505,0.421843166594956
8300.00000001266,136.920634256529,1.00000000040004,0.485524751667647
8400.00000001303,135.657454441774,1.00000000060385,0.546750989806697
8500.00000001339,134.457895297835,1.00000000067677,0.565060999415283
8600.00000001376,133.323531982817,1.00000000059347,0.547557338113906
8700.00000001412,132.203504355916,1.00000000044496,0.486049626130183
8800.00000001448,131.029737351544,1.00000000024462,0.403616847733831
8900.00000001485,129.778483095681,1.00000000021104,0.386101361705095
9000.00000001521,128.486054450662,1.00000000036945,0.449997633179999
9100.00000001557,127.206488174731,1.00000000058181,0.520720018667157
9200.00000001594,125.976383958483,1.00000000067314,0.551919902673343
9300.0000000163,124.808786845104,1.00000000065508,0.55452100390878
9400.00000001667,123.68938748719,1.00000000056643,0.528986596526374
9500.00000001703,122.581831620778,1.00000000041316,0.468767835949217
9600.00000001739,121.45072381952,1.00000000027632,0.394234036160552
9700.00000001776,120.286952388467,1.00000000022125,0.365768008740822
9800.00000001812,119.106738485077,1.00000000028895,0.403815364642224
9900.00000001848,117.933319090155,1.00000000045183,0.473261379216268
10000.0000000188,116.7841392516,1.00000000056846,0.520968994643515
10100.0000000192,115.670203506465,1.00000000066884,0.53760997197999
10200.0000000196,114.596096094414,1.00000000064712,0.542601497601852
10300.0000000199,113.556024331457,1.00000000056741,0.52905127345637
10400.0000000203,112.534672480301,1.00000000047545,0.48946009405974
10500.0000000207,111.516961888548,1.00000000036361,0.436398976440003
10600.000000021,110.49874770121,1.00000000028781,0.391734783297796
10700.0000000214,109.486453187115,1.00000000027635,0.380986250197485
10800.0000000218,108.487548592767,1.00000000033053,0.40948272962891
10900.0000000221,107.505692390011,1.00000000040872,0.453891055757201
11000.0000000225,106.540166561304,1.00000000047489,0.497144755867846
11100.0000000229,105.58959056981,1.00000000054158,0.515347098051709
11200.0000000232,104.654511430703,1.00000000057891,0.518997860558376
11300.0000000236,103.736785127631,1.00000000060136,0.529390012554785
11400.0000000239,102.837469115942,1.00000000059412,0.536113986925842
11500.0000000243,101.954780113108,1.00000000049235,0.514696340996679
11600.0000000247,101.086217241195,1.00000000036039,0.467994713040083
11700.000000025,100.23334363581,1.00000000027383,0.42463520898421
11800.0000000254,99.4020963772748,1.00000000028572,0.402891788388859
11900.0000000258,98.5974283204742,1.00000000034235,0.402993655305748
12000.0000000261,97.8197657484267,1.00000000040556,0.428421206608911
12100.0000000265,97.0641573736924,1.00000000042297,0.454199689157535
12200.0000000269,96.3238190311229,1.00000000043969,0.475969790002848
12300.0000000272,95.5948794236256,1.00000000046534,0.495942958012626
12400.0000000276,94.8771624619419,1.0000000004399,0.501326662275706
12500.0000000279,94.1698784048104,1.00000000045286,0.495433465810805
12600.0000000283,93.4676848780694,1.00000000053968,0.504932602738424
12700.0000000287,92.7650792191667,1.00000000063868,0.523935574026804
12800.000000029,92.062672658533,1.00000000064428,0.539868897849547
12900.0000000294,91.3658027308395,1.00000000056233,0.531687874969441
13000.0000000298,90.681512812597,1.00000000041779,0.496352632306007
13100.0000000301,90.0194045826614,1.00000000031602,0.448750173662812
13200.0000000305,89.3898813050331,1.0000000002626,0.415216124790953
13300.0000000309,88.7972888611432,1.00000000031006,0.402257099050232
13400.0000000312,88.2365183476238,1.00000000039693,0.412223522266707
13500.0000000316,87.6993450898226,1.00000000045396,0.431293452670278
13600.0000000319,87.1774219274105,1.00000000045605,0.458126044890265
13700.0000000323,86.6639263048635,1.00000000049086,0.478599126789249
13800.0000000327,86.1555466644366,1.00000000049055,0.488728509345555
13900.000000033,85.6522887184823,1.00000000045956,0.494222063583916
14000.0000000334,85.1576800342766,1.00000000041519,0.49724347133494
14100.0000000338,84.6757610154192,1.00000000038304,0.494584707195821
14200.0000000341,84.2046121944282,1.00000000041145,0.49219814072437
14300.0000000345,83.7355349749227,1.00000000049535,0.495482093747644
14400.0000000349,83.2577496704191,1.00000000057163,0.507890340974624
14500.0000000352,82.7657804090185,1.0000000006543,0.523264121053765
14600.0000000356,82.2624127984851,1.00000000062103,0.534875081206618
14700.0000000359,81.7553973150847,1.00000000054048,0.534214554810852
14800.0000000363,81.2541834012578,1.00000000048312,0.516180948314414
14900.0000000367,80.7698156398911,1.00000000038107,0.484113698893127
15000.000000037,80.3134705515178,1.00000000032254,0.449772470181339
15100.0000000374,79.893953969123,1.00000000030189,0.428668675849195
15200.0000000378,79.5151658581604,1.00000000029944,0.419301430859742
15300.0000000381,79.1731522356369,1.00000000034967,0.416270081389098
15400.0000000385,78.8570194629698,1.00000000041519,0.431745939581644
15500.0000000389,78.5540436494864,1.00000000046775,0.456419776835137
15600.0000000392,78.257441167136,1.00000000047881,0.470430789142073
15700.0000000396,77.9657253597283,1.00000000047184,0.478778279997685
15800.0000000399,77.6803627029907,1.00000000046509,0.485174284349793
15900.0000000403,77.3981467488717,1.00000000047893,0.492795151548901
16000.0000000407,77.1154026038556,1.00000000050639,0.505666391493038
16100.000000041,76.8270115427013,1.00000000049382,0.518878071846849
16200.0000000414,76.5330101685608,1.00000000046334,0.526514227933831
16300.0000000418,76.237240702897,1.00000000041845,0.531670004145818
16400.0000000418,75.9444651347891,1.00000000039636,0.527330362535904
16500.0000000404,75.6550554583318,1.00000000041428,0.519128357392138
16600.0000000389,75.3667867441702,1.00000000044406,0.510617239778668
16700.0000000375,75.0759333503816,1.00000000045259,0.499810711236828
16800.000000036,74.7785144568244,1.00000000050315,0.503048674984225
16900.0000000346,74.4699188246696,1.00000000059309,0.516910953357142
17000.0000000331,74.1469616811289,1.00000000059492,0.534221267068056
17100.0000000317,73.8118511407581,1.00000000056393,0.544482649865052
17200.0000000302,73.4725126197599,1.00000000049739,0.541982382959822
17300.0000000287,73.1409049278173,1.00000000045743,0.522031881016743
17400.0000000273,72.8296106121503,1.00000000036788,0.493734935465089
17500.0000000258,72.550168461004,1.00000000031204,0.464179351490281
17600.0000000244,72.3086188963615,1.00000000028286,0.446172183552243
17700.0000000229,72.1048498120537,1.00000000033821,0.438265571840474
17800.0000000215,71.933752933781,1.00000000038297,0.439147108345373
17900.00000002,71.7879599318053,1.00000000039971,0.44406453646406
18000.0000000186,71.6591508998329,1.00000000042363,0.447744943095816
18100.0000000171,71.5391130311142,1.00000000047237,0.456734912975814
18200.0000000156,71.4214505653238,1.00000000048279,0.473470974083495
18300.0000000142,71.3018644746464,1.00000000049657,0.487879596307618
18400.0000000127,71.1819771429623,1.00000000047776,0.496526124126034
18500.0000000113,71.06975475414,1.0000000004292,0.497637063827373
18600.0000000098,70.9718512434601,1.00000000036985,0.495306353598995
18700.0000000084,70.888685818661,1.00000000038928,0.497443437175175
18800.0000000069,70.81236617989,1.00000000041928,0.505967333636393
18900.0000000055,70.7295246729904,1.00000000048208,0.518799820861058
19000.000000004,70.6286549636893,1.00000000053045,0.52733945992417
19100.0000000026,70.5026874937997,1.00000000054817,0.534269225180949
19200.0000000011,70.3518376399949,1.00000000057635,0.53879716944735
19299.9999999996,70.1811525971137,1.00000000054503,0.542158361240491
19399.9999999982,69.9988384468279,1.00000000049657,0.546950722573796
19499.9999999967,69.8130456122573,1.00000000041608,0.545232076115193
19599.9999999953,69.6306053578581,1.00000000041346,0.535382801753842
19699.9999999938,69.4560738570663,1.00000000037364,0.524605248003343
19799.9999999924,69.289756051277,1.000000000385,0.520719700992305
19899.9999999909,69.1281551337579,1.00000000041323,0.520556268981409
19999.9999999895,68.9651956546946,1.00000000048365,0.51715955301975
20099.999999988,68.795885974563,1.00000000052116,0.517283932614549
20199.9999999865,68.6164726721801,1.00000000053004,0.52088303900276
20299.9999999851,68.4243082981267,1.00000000055239,0.529658859255563
20399.9999999836,68.2181500413478,1.00000000060934,0.540227933962162
20499.9999999822,68.0000574087528,1.00000000057763,0.550193203491985
20599.9999999807,67.7760986487812,1.00000000050986,0.551237447484533
20699.9999999793,67.5545270839877,1.00000000046018,0.542842153043543
20799.9999999778,67.3453210565636,1.00000000040359,0.527599154842307
20899.9999999764,67.1576763325321,1.00000000036109,0.502996330399911
20999.9999999749,66.9989913121006,1.00000000033014,0.482696579775735
21099.9999999734,66.872891645802,1.00000000033453,0.466972059992608
21199.999999972,66.7804091957239,1.00000000034004,0.457316689463806
21299.9999999705,66.7200592889073,1.00000000033477,0.456651007745377
21399.9999999691,66.6874916096907,1.00000000038289,0.456741305436486
21499.9999999676,66.6764327004386,1.00000000043267,0.454540742444687
21599.9999999662,66.6775240497906,1.0000000004677,0.454555789213998
21699.9999999647,66.6824681255417,1.00000000050759,0.460925158539456
21799.9999999633,66.6889296786148,1.00000000044866,0.464618587844806
21899.9999999618,66.6995438359041,1.00000000043667,0.462958098262691
21999.9999999603,66.7182899249284,1.00000000042691,0.463323093835503
22099.9999999589,66.7454158396555,1.00000000043181,0.475045003509593
22199.9999999574,66.7775378129611,1.00000000043135,0.491902963639799
22299.999999956,66.8090099238086,1.00000000047997,0.504229701440244
22399.9999999545,66.83428627928,1.00000000048565,0.514238800257147
22499.9999999531,66.8498004561365,1.00000000048593,0.525153819597003
22599.9999999516,66.8562936386925,1.00000000050336,0.53624201851846
22699.9999999502,66.8577537863377,1.00000000046754,0.540590312923902
22799.9999999487,66.8572670093443,1.00000000045392,0.539372113483672
22899.9999999473,66.8557063505298,1.00000000043612,0.538608314571027
22999.9999999458,66.8522079999589,1.00000000044302,0.540246388110184
23099.9999999443,66.8449331952293,1.0000000004314,0.5458022632711
23199.9999999429,66.8313270257333,1.00000000046925,0.54939686146652
23299.9999999414,66.8086466289758,1.00000000048457,0.549202297891452
23399.99999994,66.7744262765282,1.00000000048864,0.546689381668626
23499.9999999385,66.7274508020798,1.00000000047651,0.542801967140883
23599.9999999371,66.6659908693586,1.00000000049732,0.540637566638219
23699.9999999356,66.5893202955712,1.0000000004934,0.536291113349869
23799.9999999342,66.4989577614146,1.00000000049861,0.529571066026131
23899.9999999327,66.397727071813,1.00000000050666,0.530999182802825
23999.9999999312,66.288078549508,1.00000000051236,0.538237129706529
24099.9999999298,66.1723676115127,1.00000000049742,0.544227435091367
24199.9999999283,66.0521818249887,1.00000000045251,0.548010388779148
24299.9999999269,65.92953833092,1.00000000041594,0.549286958615982
24399.9999999254,65.8077041047348,1.00000000041696,0.546745547515331
24499.999999924,65.6899017833272,1.00000000040652,0.542873973184165
24599.9999999225,65.5777670218779,1.00000000039828,0.54265938704614
24699.9999999211,65.4702054638873,1.00000000039073,0.544279242864664
24799.9999999196,65.3647228360673,1.00000000040344,0.542720046925254
24899.9999999181,65.2591777735037,1.00000000043114,0.54134979122003
24999.9999999167,65.1508338515647,1.00000000044543,0.541804553590312
25099.9999999152,65.0377047049606,1.00000000048563,0.540833622527768
25199.9999999138,64.9184119818807,1.0000000005248,0.536830323482657
25299.9999999123,64.7917059282507,1.0000000005722,0.53239574215715
25399.9999999109,64.6570205449767,1.00000000056691,0.530173441892683
25499.9999999094,64.5131817992027,1.00000000057103,0.533843161588845
25599.999999908,64.3601614582097,1.00000000059183,0.540277006790152
25699.9999999065,64.2005812853325,1.00000000052201,0.546479749249175
25799.9999999051,64.0391213625556,1.000000000493,0.547262274228329
25899.9999999036,63.8820198285906,1.00000000043746,0.543778249535977
25999.9999999021,63.7359757024372,1.00000000038893,0.533451270771985
26099.9999999007,63.6073592579786,1.00000000038253,0.518319990737619
26199.9999998992,63.5013947146356,1.00000000035451,0.504266069301181
26299.9999998978,63.4212759534278,1.00000000033465,0.494503273832694
26399.9999998963,63.3692328476312,1.00000000034223,0.483420446204043
26499.9999998949,63.3454033448395,1.00000000033279,0.476246081745844
26599.9999998934,63.3486488030674,1.00000000038002,0.471011016175339
26699.999999892,63.3765356686793,1.0000000003766,0.465955220661762
26799.9999998905,63.4242469573553,1.00000000041514,0.463975542340322
26899.999999889,63.4848920901803,1.00000000044718,0.466812343412306
26999.9999998876,63.5528806959857,1.00000000047553,0.473492844198226
27099.9999998861,63.6264989134731,1.00000000046023,0.477768251570485
27199.9999998847,63.7060709466896,1.00000000046005,0.476056644087258
27299.9999998832,63.7926630347334,1.00000000044592,0.471815021708293
27399.9999998818,63.8851343008089,1.00000000044562,0.473158716273625
27499.9999998803,63.9808603284856,1.00000000044105,0.479521327227157
27599.9999998789,64.0784556081625,1.00000000044818,0.487183091295162
27699.9999998774,64.1789015125233,1.00000000042803,0.495442369848476
27799.9999998759,64.2822450947773,1.00000000041249,0.502991845091554
27899.9999998745,64.387158914334,1.00000000046802,0.513600099433877
27999.999999873,64.4911938474242,1.00000000049565,0.523016626529409
28099.9999998716,64.5916540842713,1.0000000004811,0.530836867202688
28199.9999998701,64.6860077217506,1.00000000046285,0.538562745058031
28299.9999998687,64.7729931734716,1.00000000045431,0.546229799387446
28399.9999998672,64.8526935453241,1.00000000046827,0.554450439764345
28499.9999998658,64.9253077967395,1.00000000047487,0.560868168997177
28599.9999998643,64.9905066679998,1.00000000047516,0.563460387843283
28699.9999998629,65.0467090154747,1.0000000004729,0.562362495464711
28799.9999998614,65.0926425608774,1.0000000004769,0.563808973844857
28899.9999998599,65.1276639125806,1.00000000049793,0.568596405981561
28999.9999998585,65.151909766342,1.00000000049556,0.570158644831752
