Time,AGPnorm,Energy,Entropy
0,0,1,-1.23131706240385e-17
99.9999999999986,1.4643392812399e-05,0.999999999998878,0.000648897793928129
199.999999999993,0.00128008145153036,0.999999999997803,0.00105653238890359
300,0.00323107100645299,1.00000000000061,0.00184720695723023
400.000000000022,0.00443832630758814,0.999999999997392,0.00319072097447792
500.000000000045,0.00531645903639285,0.999999999999469,0.00435603615888651
600.000000000068,0.00778574871073742,0.999999999999512,0.0060213742791524
700.000000000091,0.00984114573045078,0.999999999997384,0.00778190094731952
800.000000000113,0.0123733075076054,1.00000000000062,0.00959337797218423
900.000000000136,0.015270341024193,0.999999999997762,0.0118038847882229
1000.00000000016,0.0178600835285647,0.999999999998852,0.0139811724558757
1100.0000000001,0.0218111410871866,1.00000000000011,0.0163292198926768
1200,0.0258160583916743,0.999999999997154,0.0189138433148859
1299.99999999991,0.0294175760789635,1.00000000000036,0.021498082523804
1399.99999999982,0.0335993312693078,0.999999999998315,0.0243202855778095
1499.99999999973,0.0379830989214347,0.999999999998275,0.0272531778823896
1599.99999999964,0.0431039833719888,1.00000000000054,0.0302173514543288
1699.99999999955,0.048314761575581,0.999999999997109,0.033450666349852
1799.99999999946,0.0530661560700936,0.999999999999875,0.0367100092166644
1899.99999999937,0.0586941332434765,0.999999999999005,0.0400733840605869
1999.99999999928,0.0646822584641472,0.999999999997809,0.043671494367331
2099.99999999919,0.0705104366936796,1.00000000000069,0.0472663304661123
2199.99999999909,0.0763830745444629,0.999999999997286,0.05107930625072
2299.999999999,0.0822997679817483,0.999999999999311,0.0550031326767521
2399.99999999891,0.0892076715023224,0.999999999999725,0.0589562551250443
2499.99999999882,0.0963664010236178,0.999999999997425,0.063220662247152
2599.99999999873,0.10262845583992,1.00000000000052,0.0674972918867768
2699.99999999864,0.109046153408949,0.999999999997726,0.0719139854193785
2799.99999999855,0.11605120226461,0.999999999998821,0.0765785094042747
2899.99999999846,0.123707296951773,1.00000000000032,0.0812560604752464
2999.99999999837,0.131360731561883,0.999999999997125,0.0862766674747155
3099.99999999828,0.137969903729555,1.00000000000009,0.0913543948023264
3199.99999999819,0.145091966673442,0.999999999998387,0.0965432100025477
3299.99999999809,0.152969031302041,0.999999999998453,0.102133641831733
3399.999999998,0.160794204360371,1.00000000000064,0.107779723496281
3499.99999999791,0.168282040528449,0.999999999997055,0.11376663535991
3599.99999999782,0.175254326129317,0.999999999999568,0.119957161163721
3699.99999999773,0.183073025741076,0.999999999999175,0.126326708987644
3799.99999999764,0.191403297336541,0.999999999998177,0.13328387835096
3899.99999999755,0.198977680228757,1.00000000000076,0.140412526991655
3999.99999999746,0.206082820996283,0.999999999997618,0.147964342846328
4099.99999999738,0.213396992753469,0.999999999999727,0.156046390963594
4199.99999999775,0.221722086213198,1.00000000000111,0.164538044932322
4299.99999999811,0.229722621641806,1.00000000000002,0.173890223939933
4399.99999999848,0.237073188466378,1.00000000000454,0.183596542077052
4499.99999999884,0.244300605849001,1.00000000000509,0.193833823317402
4599.9999999992,0.25171536838523,1.0000000000109,0.204771457791547
4699.99999999957,0.261926561202171,1.00000000001901,0.21602247798257
4799.99999999993,0.269932612090279,1.000000000023,0.227787802943
4900.00000000029,0.280239584625675,1.00000000003544,0.239529710133735
5000.00000000066,0.295062730590946,1.00000000004655,0.251209853261809
5100.00000000102,0.310681508898228,1.00000000005888,0.263144745261219
5200.00000000139,0.339111752616807,1.0000000000761,0.274759697055323
5300.00000000175,0.372568672378282,1.00000000008939,0.286256126002836
5400.00000000211,0.419670956946291,1.00000000010329,0.297545016297584
5500.00000000248,0.493511544359637,1.00000000012085,0.308376819151632
5600.00000000284,0.584138757026389,1.00000000013884,0.319419111067187
5700.00000000321,0.714302066808624,1.00000000016273,0.329824344380689
5800.00000000357,0.885549403867078,1.00000000017733,0.339953712953022
5900.00000000393,1.10034134729132,1.00000000019499,0.350022969899432
6000.0000000043,1.38754899759914,1.00000000020717,0.359609740372617
6100.00000000466,1.73799588242609,1.00000000022819,0.36925342114994
6200.00000000502,2.1712777531617,1.00000000024162,0.378334386384877
6300.00000000539,2.70890147131713,1.00000000025343,0.38694005833323
6400.00000000575,3.34021480532769,1.00000000027569,0.395721080964271
6500.00000000612,4.10020935996631,1.00000000029736,0.403838107730463
6600.00000000648,4.99368887658443,1.00000000031043,0.41188807528778
6700.00000000684,6.01909271786082,1.0000000003381,0.419554147279691
6800.00000000721,7.21595086033939,1.00000000033901,0.42675134857405
6900.00000000757,8.56734908988205,1.00000000034375,0.434355551025133
7000.00000000793,10.0949387339071,1.0000000003603,0.441073156771623
7100.0000000083,11.8262401897963,1.0000000003664,0.447509935286741
7200.00000000866,13.7325517657885,1.00000000036196,0.454102390602753
7300.00000000903,15.8572822219682,1.0000000003837,0.460003565362443
7400.00000000939,18.1938990822614,1.00000000039435,0.466071521994602
7500.00000000975,20.7328552917238,1.00000000039519,0.4716512715345
7600.00000001012,23.5225553621413,1.00000000040706,0.476741974726131
7700.00000001048,26.5177946344086,1.00000000042577,0.482195407222019
7800.00000001084,29.7469531019169,1.00000000041869,0.486985664854231
7900.00000001121,33.2274933234003,1.00000000043241,0.491519747064322
8000.00000001157,36.9139150796067,1.0000000004391,0.49616220088936
8100.00000001194,40.8629503799682,1.00000000043961,0.500161299722061
8200.0000000123,45.0325763325357,1.0000000004505,0.504558297918726
8300.00000001266,49.4217773066884,1.00000000045134,0.508271387766274
8400.00000001303,54.0743969079977,1.00000000045705,0.511686654721816
8500.00000001339,58.9189377451151,1.00000000045499,0.515470144957761
8600.00000001376,64.0035781156891,1.00000000045797,0.518543440451961
8700.00000001412,69.3084140025859,1.00000000046046,0.521803427976467
8800.00000001448,74.7969261277222,1.00000000046191,0.524807250925754
8900.00000001485,80.5305844075578,1.00000000045929,0.527337656642426
9000.00000001521,86.4317120964118,1.0000000004751,0.530229399538833
9100.00000001557,92.5257455156828,1.00000000047283,0.532579719119752
9200.00000001594,98.822773421489,1.00000000045214,0.534967581252608
9300.0000000163,105.256995681395,1.00000000046801,0.537337418048515
9400.00000001667,111.89279367366,1.00000000047473,0.539062733929796
9500.00000001703,118.666411949513,1.00000000047579,0.541309693294647
9600.00000001739,125.572727533293,1.00000000045904,0.543168251181426
9700.00000001776,132.648873659809,1.00000000045632,0.544649169446148
9800.00000001812,139.81393340877,1.00000000045066,0.546477381989408
9900.00000001848,147.121076762315,1.00000000045646,0.547784888259547
10000.0000000188,154.533052026057,1.00000000047507,0.549313537849105
10100.0000000192,162.01550611707,1.00000000045103,0.550675735067813
10200.0000000196,169.622011485069,1.00000000044501,0.551615361260259
10300.0000000199,177.273397877048,1.0000000004514,0.552960503216402
10400.0000000203,185.000801660462,1.00000000045631,0.553776536910742
10500.0000000207,192.796981918807,1.00000000044859,0.554918053793484
10600.000000021,200.606586700198,1.00000000044719,0.555713679760164
10700.0000000214,208.488648064096,1.0000000004434,0.556299817027784
10800.0000000218,216.376093551907,1.0000000004388,0.55743514285618
10900.0000000221,224.276425083678,1.00000000042988,0.558028940682664
11000.0000000225,232.207433129642,1.00000000043541,0.558614649693551
11100.0000000229,240.104459498582,1.00000000043295,0.559025880074369
11200.0000000232,248.01979547849,1.0000000004295,0.559496338253534
11300.0000000236,255.907731540497,1.00000000042652,0.560144476905569
11400.0000000239,263.754207219976,1.00000000042192,0.560038084558748
11500.0000000243,271.591520481691,1.00000000041457,0.560485390875002
11600.0000000247,279.358679931036,1.00000000042153,0.560937543742344
11700.000000025,287.0934846871,1.00000000043037,0.560560793659554
11800.0000000254,294.771519750166,1.00000000040805,0.561265578882447
11900.0000000258,302.364472642441,1.0000000004091,0.561494428236913
12000.0000000261,309.912753967783,1.0000000004168,0.561077111943968
12100.0000000265,317.361747849009,1.00000000039489,0.561814254009757
12200.0000000269,324.736123444349,1.000000000408,0.561306270759739
12300.0000000272,332.028515068875,1.00000000039127,0.561346921637346
12400.0000000276,339.203744466089,1.00000000039518,0.56167743148517
12500.0000000279,346.303093533607,1.00000000039338,0.560907863811568
12600.0000000283,353.282546001311,1.00000000037684,0.56134349054839
12700.0000000287,360.152935502384,1.00000000039886,0.561224483590199
12800.000000029,366.921991702852,1.00000000037663,0.560688940852829
12900.0000000294,373.551055733617,1.00000000037478,0.561262201690976
13000.0000000298,380.078742001001,1.00000000037594,0.560403938830968
13100.0000000301,386.472704853218,1.0000000003605,0.560156418490234
13200.0000000305,392.732304015589,1.00000000036941,0.560676099151213
13300.0000000309,398.876552735198,1.00000000036428,0.559589964783725
13400.0000000312,404.866144104576,1.00000000036511,0.559867849157826
13500.0000000316,410.733900138185,1.00000000035405,0.559721595973847
13600.0000000319,416.461946301019,1.00000000035318,0.558836444930984
13700.0000000323,422.036558160353,1.00000000034773,0.558936426304004
13800.0000000327,427.485363139646,1.00000000034744,0.558898071315333
13900.000000033,432.775587645364,1.00000000034993,0.558225967261315
14000.0000000334,437.928627094644,1.00000000034282,0.557772047367913
14100.0000000338,442.937629151504,1.00000000033531,0.557816750369262
14200.0000000341,447.787783144044,1.00000000033519,0.557371035144435
14300.0000000345,452.503654038712,1.00000000032254,0.556708381377719
14400.0000000349,457.06058728577,1.00000000033108,0.556890322287299
14500.0000000352,461.47372536798,1.00000000033771,0.556487641718439
14600.0000000356,465.74252164286,1.00000000031665,0.555840753945061
14700.0000000359,469.849177222944,1.00000000030899,0.555826542020738
14800.0000000363,473.819865659082,1.00000000031713,0.555363370725901
14900.0000000367,477.636528750658,1.00000000031841,0.555158646888794
15000.000000037,481.303732901661,1.00000000030875,0.554841022751087
15100.0000000374,484.831235163304,1.00000000030144,0.554508864214737
15200.0000000378,488.199942677379,1.0000000003123,0.553855507723201
15300.0000000381,491.433236815283,1.00000000030162,0.553159752217651
15400.0000000385,494.517683769193,1.00000000029921,0.553410271237342
15500.0000000389,497.45537093859,1.0000000002941,0.553964017564835
15600.0000000392,500.259789888852,1.00000000029945,0.553447807716885
15700.0000000396,502.912139885393,1.00000000029444,0.552472039250671
15800.0000000399,505.434290478446,1.00000000028667,0.551116134766575
15900.0000000403,507.814862749765,1.00000000028735,0.551371293710243
16000.0000000407,510.055914801895,1.00000000028188,0.551767178219387
16100.000000041,512.16876204492,1.00000000029187,0.553458396121654
16200.0000000414,514.145157660525,1.0000000002797,0.552797629309959
16300.0000000418,515.99645323973,1.00000000028031,0.551230402313654
16400.0000000418,517.719153810497,1.00000000026341,0.547712178250338
16500.0000000404,519.304278693945,1.00000000026893,0.547633862478874
16600.0000000389,520.768252381649,1.00000000026943,0.549916988284324
16700.0000000375,522.10465027226,1.00000000027219,0.553413379143816
16800.000000036,523.328269453764,1.00000000026928,0.554263076192707
16900.0000000346,524.440726212628,1.00000000026583,0.551211774055746
17000.0000000331,525.431165377765,1.00000000026039,0.546388927036681
17100.0000000317,526.307532644605,1.00000000024469,0.542842681241813
17200.0000000302,527.058449702689,1.00000000024417,0.544175505270326
17300.0000000287,527.696511198908,1.00000000025159,0.550793844682709
17400.0000000273,528.23611265948,1.00000000026304,0.556193892334176
17500.0000000258,528.680807047195,1.00000000027807,0.557072050795267
17600.0000000244,529.040975034982,1.000000000255,0.549894213558722
17700.0000000229,529.299507858225,1.00000000024991,0.540707723141282
17800.0000000215,529.447631727561,1.00000000021985,0.535389178069291
17900.00000002,529.486810553074,1.000000000221,0.539098659526207
18000.0000000186,529.424229306326,1.00000000024211,0.54990539769859
18100.0000000171,529.289308104,1.00000000027468,0.559187625081557
18200.0000000156,529.092963737502,1.00000000028301,0.560506312078577
18300.0000000142,528.834603297749,1.00000000026435,0.552713080370064
18400.0000000127,528.505719547364,1.00000000023717,0.538626652725541
18500.0000000113,528.080357801747,1.0000000002014,0.527138562043009
18600.0000000098,527.55739970116,1.00000000019991,0.527053027945054
18700.0000000084,526.943720894596,1.00000000022064,0.539513077173504
18800.0000000069,526.264158870858,1.00000000026214,0.556248745708762
18900.0000000055,525.549384376302,1.0000000002985,0.564771413813098
19000.000000004,524.804584562584,1.00000000029537,0.561729880215252
19100.0000000026,524.025866946263,1.00000000026567,0.547018949507946
19200.0000000011,523.188219022971,1.0000000002171,0.526739273015064
19299.9999999996,522.267441804208,1.00000000017894,0.512793501416104
19399.9999999982,521.261008509677,1.00000000017554,0.514045703292654
19499.9999999967,520.178954570862,1.00000000022115,0.533615218432609
19599.9999999953,519.057172538668,1.00000000027439,0.556115954789928
19699.9999999938,517.922584524079,1.00000000031626,0.568115287609982
19799.9999999924,516.785538110745,1.00000000032932,0.56581814798551
19899.9999999909,515.641584688858,1.0000000002809,0.550108652354437
19999.9999999895,514.463061950694,1.0000000002293,0.525061489973065
20099.999999988,513.225749695963,1.000000000175,0.501134765611567
20199.9999999865,511.912576621381,1.00000000015348,0.493126973264955
20299.9999999851,510.528187976925,1.00000000018941,0.510078624287014
20399.9999999836,509.104912883708,1.00000000025445,0.540220810728949
20499.9999999822,507.671014212849,1.00000000031756,0.563550815419777
20599.9999999807,506.250444963354,1.00000000034805,0.571405508294931
20699.9999999793,504.849270353183,1.00000000033705,0.565545923894371
20799.9999999778,503.451215754482,1.00000000029271,0.545407644538787
20899.9999999764,502.034826358326,1.00000000022958,0.514346696570546
20999.9999999749,500.568880441644,1.00000000017266,0.485561173082315
21099.9999999734,499.040180649516,1.0000000001418,0.475653419600182
21199.999999972,497.455996835896,1.00000000018002,0.493201276896634
21299.9999999705,495.83695329498,1.00000000023997,0.528628818026755
21399.9999999691,494.216788992622,1.00000000031121,0.558142090657692
21499.9999999676,492.616711420731,1.00000000035773,0.572963393269332
21599.9999999662,491.046160009805,1.00000000035702,0.5728430353697
21699.9999999647,489.501684938643,1.00000000033462,0.558339264783822
21799.9999999633,487.960992904899,1.00000000026738,0.531158656722607
21899.9999999618,486.402515009898,1.00000000020469,0.49581402081818
21999.9999999603,484.802533364932,1.00000000015324,0.467936363244743
22099.9999999589,483.152053506605,1.00000000013355,0.462363422821082
22199.9999999574,481.462086548645,1.00000000017699,0.484477730725429
22299.999999956,479.750485843615,1.00000000024944,0.522948827390734
22399.9999999545,478.044833557366,1.00000000031812,0.555617215296977
22499.9999999531,476.363501239638,1.00000000037009,0.57161041969063
22599.9999999516,474.71426050272,1.00000000038585,0.573488556001117
22699.9999999502,473.096798780784,1.00000000035561,0.562690598722759
22799.9999999487,471.496597425532,1.00000000031598,0.541179080560604
22899.9999999473,469.896265824419,1.00000000024823,0.508627672061955
22999.9999999458,468.276355128589,1.00000000018061,0.474147354322096
23099.9999999443,466.622146186816,1.00000000014431,0.453776684541602
23199.9999999429,464.935454627533,1.00000000014326,0.455778788926249
23299.9999999414,463.222311152749,1.00000000018988,0.481734593375368
23399.99999994,461.501553281328,1.00000000025793,0.520239279884663
23499.9999999385,459.791045384611,1.00000000031461,0.55070864192865
23599.9999999371,458.102730657033,1.00000000035722,0.56703178466979
23699.9999999356,456.445175535158,1.00000000038797,0.568909639993212
23799.9999999342,454.816963541231,1.00000000037422,0.560715803083443
23899.9999999327,453.210399908669,1.00000000032635,0.543862971597227
23999.9999999312,451.614486668905,1.00000000027547,0.519048867036625
24099.9999999298,450.013652252508,1.00000000022157,0.487917922491888
24199.9999999283,448.399033580349,1.0000000001739,0.46079438491163
24299.9999999269,446.763428276949,1.00000000015122,0.448782182611141
24399.9999999254,445.108624706488,1.00000000016048,0.455584340421277
24499.999999924,443.442849738978,1.00000000020476,0.477736366874118
24599.9999999225,441.774630319859,1.00000000025771,0.510169939428284
24699.9999999211,440.117001020835,1.00000000031598,0.539473064708789
24799.9999999196,438.477859701422,1.00000000034857,0.555285090407926
24899.9999999181,436.8616497954,1.00000000037005,0.560564391169577
24999.9999999167,435.270239445991,1.00000000036321,0.553989571871495
25099.9999999152,433.699489623605,1.00000000033772,0.542912713291373
25199.9999999138,432.143750210219,1.00000000029458,0.525268513781971
25299.9999999123,430.595045329579,1.00000000025745,0.505385560771394
25399.9999999109,429.045516705075,1.00000000021915,0.48247876235358
25499.9999999094,427.491131092793,1.00000000018814,0.463431116243618
25599.999999908,425.928089046509,1.00000000017853,0.453429617023435
25699.9999999065,424.358873815007,1.00000000017482,0.455705864113617
25799.9999999051,422.786309958995,1.00000000020078,0.469576036469073
25899.9999999036,421.214806141017,1.00000000023478,0.491666364375624
25999.9999999021,419.651038092899,1.0000000002721,0.515326620511102
26099.9999999007,418.099170974967,1.00000000032813,0.534886553283786
26199.9999998992,416.562900897338,1.00000000033018,0.544155639306882
26299.9999998978,415.044209990095,1.00000000033904,0.54362274408959
26399.9999998963,413.542171229137,1.00000000033609,0.538293365142056
26499.9999998949,412.055211244286,1.00000000031265,0.528297770914924
26599.9999998934,410.580194998135,1.00000000030166,0.518231247168693
26699.999999892,409.113281864961,1.00000000026381,0.505928269621079
26799.9999998905,407.651829644421,1.00000000023695,0.494185128953779
26899.999999889,406.192818490817,1.00000000021778,0.480481992353402
26999.9999998876,404.736191442958,1.00000000019457,0.469420765679621
27099.9999998861,403.281079133831,1.0000000002061,0.463442627361354
27199.9999998847,401.828639935191,1.00000000019529,0.463710186081744
27299.9999998832,400.380441483282,1.00000000021423,0.472097134082774
27399.9999998818,398.937556252325,1.0000000002415,0.48573005192419
27499.9999998803,397.502794527858,1.00000000026187,0.501718521438922
27599.9999998789,396.077651996198,1.00000000029203,0.515188258359895
27699.9999998774,394.663163623868,1.00000000031867,0.52512163686817
27799.9999998759,393.260638860859,1.00000000032804,0.526939117121392
27899.9999998745,391.869743938958,1.00000000032151,0.525991182454806
27999.999999873,390.489909866577,1.0000000003046,0.522992689018758
28099.9999998716,389.120698117421,1.00000000028635,0.516202701239343
28199.9999998701,387.760258591752,1.00000000028341,0.512167337958473
28299.9999998687,386.408439450481,1.00000000026182,0.506442617261957
28399.9999998672,385.063961750363,1.00000000025702,0.502629471538501
28499.9999998658,383.726883809021,1.0000000002396,0.498499899096829
28599.9999998643,382.397196010471,1.00000000022486,0.490880038614883
28699.9999998629,381.074647578213,1.00000000022264,0.483725017655321
28799.9999998614,379.760195548713,1.0000000002094,0.477554951069243
28899.9999998599,378.453177401959,1.00000000020823,0.474533278019953
