Time,AGPnorm,Energy,Entropy
0,0,1,-1.38548196289994e-17
99.9999999999986,1.32360639748333e-05,1.00000000000345,0.000624336083039999
199.999999999993,0.00112363634608519,1.00000000000202,0.000951782424748013
300,0.00285853645027625,1.0000000000008,0.00174510880576964
400.000000000022,0.00394547729142525,1.00000000000411,0.002955114116503
500.000000000045,0.00488097739346371,1.00000000000022,0.0039453213376878
600.000000000068,0.00696388780310497,1.00000000000287,0.00559753534602481
700.000000000091,0.00851961649518011,1.00000000000267,0.00709150908380101
800.000000000113,0.0110835040820453,1.00000000000038,0.00882826706402171
900.000000000136,0.0139735186168497,1.00000000000412,0.0108666157369807
1000.00000000016,0.01640946191273,1.00000000000061,0.0127140175665365
1100.0000000001,0.0195772406513515,1.00000000000222,0.0150561942720579
1200,0.0227177391247531,1.00000000000326,0.0172930614907954
1299.99999999991,0.0264664434450244,1.00000000000015,0.0196873459707417
1399.99999999982,0.0305600101312948,1.00000000000391,0.0223621161051226
1499.99999999973,0.0344218944095591,1.00000000000114,0.0248484932880782
1599.99999999964,0.0388344927487291,1.00000000000158,0.0277563058417598
1699.99999999955,0.0433403418162169,1.00000000000371,0.0306064476483419
1799.99999999946,0.0481525604768895,1.00000000000014,0.0335517295808287
1899.99999999937,0.0531262530359261,1.0000000000035,0.0367961104059013
1999.99999999928,0.0580894490028082,1.00000000000174,0.0398541398099883
2099.99999999919,0.0636430509701542,1.00000000000103,0.0432851217592777
2199.99999999909,0.069383820187297,1.00000000000398,0.0467186539205009
2299.999999999,0.0751530886471731,1.00000000000032,0.0501868278779204
2399.99999999891,0.080808250223923,1.00000000000296,0.0539946123521253
2499.99999999882,0.0865558671266799,1.00000000000237,0.057630325530239
2599.99999999873,0.0929643572465341,1.00000000000064,0.0616066157542991
2699.99999999864,0.0996000792220291,1.00000000000401,0.0656643989403857
2799.99999999855,0.106150637183065,1.00000000000061,0.0696977988410391
2899.99999999846,0.112422753382136,1.00000000000234,0.0741174154818919
2999.99999999837,0.118840997142303,1.00000000000296,0.0784092676203653
3099.99999999828,0.125812966972131,1.00000000000049,0.0830113112159234
3199.99999999819,0.132875519712904,1.00000000000385,0.0878007378321789
3299.99999999809,0.139864184155261,1.00000000000099,0.0925337426733106
3399.999999998,0.14666627886049,1.00000000000171,0.0976984822125327
3499.99999999791,0.153701081124542,1.00000000000343,0.102829366593491
3599.99999999782,0.161036745529612,1.00000000000054,0.108246758930843
3699.99999999773,0.168167456820352,1.00000000000353,0.113990839992521
3799.99999999764,0.175203363075773,1.00000000000153,0.119687477788024
3899.99999999755,0.182355221269883,1.00000000000123,0.125913329799523
3999.99999999746,0.189784503629924,1.00000000000373,0.132284570771623
4099.99999999738,0.197280392241196,1.00000000000081,0.138966217781541
4199.99999999775,0.204343479506594,1.00000000000332,0.146185149969412
4299.99999999811,0.21121248669724,1.00000000000259,0.153492567235087
4399.99999999848,0.218626908310598,1.00000000000183,0.161515758241806
4499.99999999884,0.226075864259268,1.00000000000543,0.170005193395701
4599.9999999992,0.233351598021776,1.00000000000383,0.178894308939631
4699.99999999957,0.240856916428395,1.00000000000761,0.188538765565949
4799.99999999993,0.247237256648517,1.00000000001074,0.198362992162647
4900.00000000029,0.255841079838934,1.00000000001391,0.208822742978059
5000.00000000066,0.264409444427164,1.00000000002192,0.219723710210028
5100.00000000102,0.272317543002192,1.00000000002609,0.230590046390985
5200.00000000139,0.285833157046872,1.00000000003623,0.241890686012064
5300.00000000175,0.297235394959268,1.00000000004865,0.252938419360576
5400.00000000211,0.318107310810884,1.00000000005672,0.264029028687904
5500.00000000248,0.346053522429679,1.00000000007044,0.275178683433243
5600.00000000284,0.37819966808552,1.00000000007856,0.285806584826391
5700.00000000321,0.434948826877609,1.00000000009668,0.296547373127596
5800.00000000357,0.500549229919077,1.00000000011136,0.306937044937675
5900.00000000393,0.597322609928368,1.00000000012193,0.317063346362892
6000.0000000043,0.728794251176643,1.00000000014142,0.327161772841573
6100.00000000466,0.88739174579158,1.00000000016159,0.336608115792936
6200.00000000502,1.1108808808871,1.00000000017304,0.346145355460181
6300.00000000539,1.37800495003174,1.00000000018967,0.355408708078419
6400.00000000575,1.71766162066421,1.00000000019288,0.364289080884297
6500.00000000612,2.14304357555274,1.00000000021039,0.373152586572193
6600.00000000648,2.63907019435745,1.00000000022734,0.381402524945467
6700.00000000684,3.25697794475429,1.00000000024299,0.389573807340481
6800.00000000721,3.97265019791144,1.00000000026488,0.39756197441944
6900.00000000757,4.8141633446055,1.00000000027219,0.40508823885002
7000.00000000793,5.80410620625828,1.00000000028593,0.412632328916849
7100.0000000083,6.91704552734025,1.00000000028962,0.419747355923778
7200.00000000866,8.211279633573,1.00000000030542,0.42662273246826
7300.00000000903,9.66088673902071,1.00000000031092,0.433465806978615
7400.00000000939,11.2864374644637,1.00000000032359,0.439654064876484
7500.00000000975,13.1181927184484,1.00000000033092,0.445947148384687
7600.00000001012,15.1188343622225,1.00000000033667,0.451911490134727
7700.00000001048,17.3479295314313,1.00000000034795,0.457524669311273
7800.00000001084,19.778527923547,1.00000000034368,0.463308463455651
7900.00000001121,22.4185654150621,1.00000000035634,0.468350238018011
8000.00000001157,25.3048593502816,1.00000000037248,0.473451697704717
8100.00000001194,28.3887586349891,1.00000000038564,0.478388327174855
8200.0000000123,31.7263667488836,1.00000000039428,0.482828751985449
8300.00000001266,35.2920225211025,1.0000000003788,0.487559054619713
8400.00000001303,39.0772716172864,1.00000000039353,0.491694945829559
8500.00000001339,43.1255791227881,1.00000000039449,0.495756157254004
8600.00000001376,47.3787208293705,1.00000000039759,0.499834360860432
8700.00000001412,51.8861855672875,1.00000000039462,0.503248697841574
8800.00000001448,56.6270575708508,1.00000000040908,0.506934739118067
8900.00000001485,61.5746973077079,1.00000000041915,0.510274466434351
9000.00000001521,66.7792943743441,1.00000000041267,0.513416436787249
9100.00000001557,72.1769324232932,1.00000000040865,0.516715247827074
9200.00000001594,77.8056034898627,1.00000000041181,0.51935822000272
9300.0000000163,83.6541638860792,1.00000000041804,0.522182377091538
9400.00000001667,89.6787472246139,1.00000000041115,0.524939452449287
9500.00000001703,95.9347228838596,1.00000000041959,0.52710874030781
9600.00000001739,102.358115351912,1.00000000042141,0.529719605431034
9700.00000001776,108.97042186966,1.0000000004183,0.531780452418368
9800.00000001812,115.775331315909,1.00000000041527,0.533844262425636
9900.00000001848,122.714448823584,1.00000000041917,0.536100599508747
10000.0000000188,129.844349042763,1.00000000042233,0.53748725120731
10100.0000000192,137.10706307318,1.00000000040908,0.539547304830989
10200.0000000196,144.50595715756,1.00000000041914,0.54115902232725
10300.0000000199,152.060315666397,1.00000000040563,0.542568548688413
10400.0000000203,159.702090399633,1.00000000041198,0.544354774224433
10500.0000000207,167.484821113475,1.00000000041406,0.545431454663511
10600.000000021,175.361469744425,1.00000000041712,0.546679125503614
10700.0000000214,183.317216958854,1.00000000042241,0.548082095389766
10800.0000000218,191.385126167164,1.0000000004112,0.548892235001212
10900.0000000221,199.494778707736,1.0000000004005,0.550126092500659
11000.0000000225,207.69001359632,1.00000000039403,0.551121562884667
11100.0000000229,215.941177715282,1.00000000039989,0.55164627055209
11200.0000000232,224.215038941306,1.00000000040588,0.552894934001478
11300.0000000236,232.555652669373,1.0000000003991,0.5535183287704
11400.0000000239,240.897029309434,1.00000000041365,0.553832065210838
11500.0000000243,249.267417251236,1.00000000039304,0.555016981941814
11600.0000000247,257.657530049009,1.00000000039977,0.555149607758959
11700.000000025,266.020806578478,1.00000000039599,0.555467122381289
11800.0000000254,274.404309034949,1.00000000039191,0.556331630416368
11900.0000000258,282.753959132235,1.00000000040307,0.556345011282858
12000.0000000261,291.080171225808,1.00000000038218,0.556583203133896
12100.0000000265,299.390974281745,1.00000000039689,0.557220594109395
12200.0000000269,307.635786600783,1.00000000038417,0.557361359828316
12300.0000000272,315.855868428612,1.00000000038213,0.557460736093255
12400.0000000276,324.012423337111,1.00000000038403,0.557783754192098
12500.0000000279,332.102942260231,1.00000000037836,0.557550381178316
12600.0000000283,340.145093650161,1.00000000036115,0.558095309833295
12700.0000000287,348.090017130247,1.00000000037373,0.558080510422389
12800.000000029,355.973508898485,1.00000000036692,0.557667299040235
12900.0000000294,363.767545617924,1.00000000036205,0.558050331569532
13000.0000000298,371.461414408174,1.00000000035082,0.558071833553742
13100.0000000301,379.078110412391,1.00000000035925,0.557737893635546
13200.0000000305,386.573753129669,1.00000000035845,0.558143274299599
13300.0000000309,393.977119266998,1.00000000035147,0.557600197853507
13400.0000000312,401.272308655908,1.000000000348,0.55748368838779
13500.0000000316,408.4398867608,1.00000000035458,0.557767563458118
13600.0000000319,415.508418213561,1.00000000033246,0.557171917621326
13700.0000000323,422.438956848531,1.00000000034176,0.557268175497115
13800.0000000327,429.252543834966,1.00000000034079,0.557052233691112
13900.000000033,435.945296331026,1.00000000033089,0.556322280573906
14000.0000000334,442.490313825592,1.00000000031878,0.556598841671459
14100.0000000338,448.91984777261,1.00000000032233,0.556630280153371
14200.0000000341,455.203381348468,1.00000000033052,0.5559515447499
14300.0000000345,461.349764085046,1.00000000031564,0.555527562048934
14400.0000000349,467.365892963053,1.00000000031921,0.55559955579912
14500.0000000352,473.22589230372,1.00000000032281,0.555324758367729
14600.0000000356,478.956473741727,1.00000000031094,0.554756039082938
14700.0000000359,484.534299305225,1.000000000307,0.554677953819472
14800.0000000363,489.965846372597,1.00000000031586,0.554612064662977
14900.0000000367,495.26139286795,1.00000000030961,0.553760629249278
15000.000000037,500.393990698645,1.00000000031205,0.553600158232058
15100.0000000374,505.389406673466,1.00000000029662,0.553477536941979
15200.0000000378,510.233994886966,1.00000000030374,0.553307284095546
15300.0000000381,514.924206309494,1.00000000029694,0.552690074802483
15400.0000000385,519.475112872158,1.00000000029639,0.552440018843745
15500.0000000389,523.865462835189,1.00000000029552,0.552417042461384
15600.0000000392,528.114529443174,1.00000000029756,0.551548419865313
15700.0000000396,532.214796281062,1.00000000028055,0.551681399587251
15800.0000000399,536.159408705153,1.00000000027485,0.551276449109976
15900.0000000403,539.968177335605,1.00000000028721,0.552000495627644
16000.0000000407,543.619939375389,1.00000000026947,0.550628504057725
16100.000000041,547.133203624024,1.00000000028572,0.550618087580856
16200.0000000414,550.501422259639,1.00000000026452,0.549168301951034
16300.0000000418,553.72067667007,1.00000000027906,0.550015712379119
16400.0000000418,556.80410199039,1.00000000026522,0.54940596849673
16500.0000000404,559.741250709925,1.00000000027028,0.550378639675504
16600.0000000389,562.539833641387,1.0000000002619,0.549534700281717
16700.0000000375,565.204772819705,1.00000000026776,0.548450842503962
16800.000000036,567.722338717728,1.00000000026262,0.54687515403204
16900.0000000346,570.110357311073,1.00000000025178,0.546744999235581
17000.0000000331,572.35728983721,1.00000000025077,0.547703098946896
17100.0000000317,574.47229753597,1.00000000025075,0.549452544116421
17200.0000000302,576.461961944392,1.00000000025279,0.549559019776881
17300.0000000287,578.316733855284,1.00000000024967,0.548364342434492
17400.0000000273,580.050101387956,1.00000000024333,0.54501832811876
17500.0000000258,581.651668377041,1.00000000023722,0.543037675438647
17600.0000000244,583.12242810854,1.00000000024033,0.543031246368415
17700.0000000229,584.472019991938,1.00000000024331,0.546655870250546
17800.0000000215,585.696883544117,1.00000000024055,0.550157851353185
17900.00000002,586.81571104251,1.00000000025312,0.551568830282559
18000.0000000186,587.825194211248,1.00000000024541,0.548197268179245
18100.0000000171,588.720013589114,1.00000000022816,0.542797817208453
18200.0000000156,589.502337292227,1.00000000021842,0.537814826294747
18300.0000000142,590.158162617477,1.00000000021,0.537934364398916
18400.0000000127,590.702450908639,1.00000000021768,0.543315517842304
18500.0000000113,591.142846865277,1.00000000023214,0.550297820306056
18600.0000000098,591.491323638675,1.00000000024386,0.554732373879612
18700.0000000084,591.762547841573,1.00000000024434,0.5524288766751
18800.0000000069,591.944860797701,1.00000000023735,0.544783626552505
18900.0000000055,592.033361136808,1.00000000021772,0.534450889832978
19000.000000004,592.013775971561,1.00000000019696,0.529096192207911
19100.0000000026,591.881915731189,1.00000000018996,0.532533093847216
19200.0000000011,591.656408146504,1.00000000021006,0.542941259978156
19299.9999999996,591.35236748243,1.00000000023806,0.554328503067508
19399.9999999982,590.993648547606,1.00000000025939,0.559013319402559
19499.9999999967,590.587023677831,1.0000000002552,0.555166913898971
19599.9999999953,590.119894370558,1.00000000022656,0.542661098774166
19699.9999999938,589.579860648743,1.00000000020108,0.527633790573381
19799.9999999924,588.944077677636,1.00000000017173,0.51795741435841
19899.9999999909,588.210996332343,1.000000000179,0.520244489827751
19999.9999999895,587.394697581824,1.0000000002054,0.534415043304857
20099.999999988,586.517397746803,1.00000000023495,0.551546028296431
20199.9999999865,585.610328289799,1.00000000027042,0.56204987354134
20299.9999999851,584.683492400299,1.00000000027706,0.561513363278792
20399.9999999836,583.733782544473,1.00000000026147,0.550115399798675
20499.9999999822,582.744409865559,1.00000000021483,0.530283329176516
20599.9999999807,581.685922546077,1.00000000016922,0.510398982984286
20699.9999999793,580.546032239514,1.00000000015583,0.500823109030773
20799.9999999778,579.321714389385,1.00000000016286,0.508584600120113
20899.9999999764,578.035302517796,1.00000000021069,0.531294894305628
20999.9999999749,576.717861230576,1.00000000025748,0.553151551192002
21099.9999999734,575.393109557361,1.00000000030725,0.565343531481806
21199.999999972,574.076764376284,1.0000000003018,0.565252841059641
21299.9999999705,572.763272322159,1.00000000028613,0.55287636822039
21399.9999999691,571.431782650028,1.00000000023468,0.529399460821179
21499.9999999676,570.057782781291,1.00000000018172,0.502294322220952
21599.9999999662,568.615537749189,1.00000000014225,0.484278911876393
21699.9999999647,567.10313520257,1.00000000014428,0.486024990298694
21799.9999999633,565.531635590645,1.00000000018301,0.508761787631764
21899.9999999618,563.929045219909,1.00000000024142,0.539146596248274
21999.9999999603,562.326162550615,1.00000000029137,0.561077384561135
22099.9999999589,560.740831349792,1.00000000033056,0.570660831339012
22199.9999999574,559.181607363385,1.00000000031855,0.5668798917216
22299.999999956,557.638767625399,1.00000000028497,0.550808006783675
22399.9999999545,556.08931291866,1.00000000022794,0.523347817836864
22499.9999999531,554.509630267141,1.0000000001829,0.491200247491562
22599.9999999516,552.875778067037,1.00000000013808,0.468536786097583
22699.9999999502,551.183888974582,1.00000000012864,0.467496674920252
22799.9999999487,549.443081768588,1.00000000016109,0.489980675424765
22899.9999999473,547.675959386514,1.00000000021801,0.52503587018495
22999.9999999458,545.911082992877,1.00000000028879,0.55369859468826
23099.9999999443,544.167249039912,1.00000000033237,0.569217610738598
23199.9999999429,542.455647425362,1.00000000032786,0.572017295745902
23299.9999999414,540.776262805665,1.00000000032798,0.563637073708928
23399.99999994,539.113855401013,1.00000000028231,0.543756949377999
23499.9999999385,537.450933383119,1.00000000023369,0.512804238814544
23599.9999999371,535.762884917366,1.00000000016911,0.478012989756514
23699.9999999356,534.034830443012,1.00000000012582,0.454314341798999
23799.9999999342,532.261667496145,1.00000000012304,0.452638281757851
23899.9999999327,530.450956857,1.00000000015139,0.474725785716965
23999.9999999312,528.622871267876,1.00000000021277,0.510318871770341
24099.9999999298,526.796516641813,1.0000000002808,0.543359107173536
24199.9999999283,524.989893430883,1.00000000032971,0.563255544236631
24299.9999999269,523.214916567769,1.0000000003525,0.57000092071268
24399.9999999254,521.472567591666,1.00000000033748,0.566900255018436
24499.999999924,519.759376763877,1.00000000031302,0.555167841752821
24599.9999999225,518.062706025614,1.00000000027465,0.532666184024671
24699.9999999211,516.365059941243,1.00000000022718,0.501097501053642
24799.9999999196,514.652131813998,1.00000000016993,0.468266942469435
24899.9999999181,512.910896423037,1.00000000013077,0.445135268461585
24999.9999999167,511.140609242616,1.00000000012825,0.442607519251129
25099.9999999152,509.345191720469,1.00000000015321,0.460284379656367
25199.9999999138,507.536902075981,1.00000000020041,0.491845036710706
25299.9999999123,505.73060830749,1.00000000025567,0.524985111091831
25399.9999999109,503.938066122618,1.00000000030316,0.550144852474479
25499.9999999094,502.169716009555,1.00000000032618,0.561919983132129
25599.999999908,500.430471765804,1.00000000034129,0.562956930275043
25699.9999999065,498.718485603101,1.00000000033261,0.556871283665269
25799.9999999051,497.030706872786,1.00000000029888,0.544267169916011
25899.9999999036,495.357033900895,1.00000000026956,0.523997652493873
25999.9999999021,493.687118539213,1.00000000022915,0.497443131241499
26099.9999999007,492.011245825671,1.00000000018632,0.470275977840512
26199.9999998992,490.321704370956,1.00000000015433,0.447288842673025
26299.9999998978,488.617279649279,1.00000000013896,0.439441876150194
26399.9999998963,486.898362699397,1.00000000015377,0.44683812365042
26499.9999998949,485.17215458592,1.00000000018195,0.467271554402701
26599.9999998934,483.445444126675,1.00000000021826,0.49473974494334
26699.999999892,481.726035778741,1.00000000026755,0.521767647180985
26799.9999998905,480.021397505688,1.00000000030484,0.540833783080997
26899.999999889,478.336270998578,1.00000000033278,0.550659360701983
26999.9999998876,476.672436824293,1.00000000033031,0.550477206775577
27099.9999998861,475.030659397968,1.00000000032291,0.54509428568717
27199.9999998847,473.407225387811,1.00000000030675,0.534914009786417
27299.9999998832,471.798260207938,1.00000000027724,0.521674929289879
27399.9999998818,470.198278428389,1.00000000024977,0.505670138904218
27499.9999998803,468.601428910848,1.00000000021036,0.485387007729976
27599.9999998789,467.00397888782,1.00000000019579,0.467959822846533
27699.9999998774,465.402934370856,1.00000000017418,0.452106722282162
27799.9999998759,463.798942814943,1.00000000015968,0.446349851140934
27899.9999998745,462.192355403433,1.00000000017365,0.449258610567443
27999.999999873,460.586407709907,1.0000000001777,0.462206547439841
28099.9999998716,458.984118583953,1.00000000021222,0.480699429397291
28199.9999998701,457.388466165174,1.00000000024045,0.501109196574509
28299.9999998687,455.803401078351,1.00000000027531,0.519378935879736
28399.9999998672,454.231152946131,1.00000000029007,0.529884427447309
28499.9999998658,452.672860591939,1.00000000030721,0.535460366453986
28599.9999998643,451.129941224269,1.00000000029616,0.532563741211325
28699.9999998629,449.60110294855,1.00000000030045,0.529124600658171
28799.9999998614,448.085258277695,1.00000000029395,0.521993230364465
28899.9999998599,446.580680085165,1.00000000028044,0.513190555370172
