Time,AGPnorm,Energy,Entropy
0,0,1,2.74960774910778e-18
99.9999999999986,0.00538961276877955,0.999999999999233,0.0159507781554049
199.999999999993,0.0148349712820287,1.00000000000099,0.0470942094107089
300,0.0306311448957411,0.999999999998716,0.0921474141892539
400.000000000022,0.0468056555830206,1.00000000000464,0.152535739026813
500.000000000045,0.0633126656586472,1.00000000005892,0.237666152767827
600.000000000068,0.105137646368483,1.00000000045339,0.347083535024039
700.000000000091,0.28939826132358,1.00000000109803,0.444262499365431
800.000000000113,0.961784983641112,1.00000000170732,0.50876392332371
900.000000000136,2.40252699033391,1.00000000195371,0.546254515358137
1000.00000000016,4.64117493542904,1.0000000020455,0.565009108394126
1100.0000000001,7.58452290640834,1.00000000208311,0.571979073922408
1200,10.8806313813646,1.00000000204956,0.57213060784981
1299.99999999991,14.2869729895127,1.00000000199528,0.567811463869954
1399.99999999982,17.5036665205212,1.00000000199887,0.561381880341843
1499.99999999973,20.3485802812547,1.00000000172997,0.550591073763543
1599.99999999964,22.7144145217775,1.00000000175127,0.546249846607401
1699.99999999955,24.5279165420347,1.0000000014467,0.534882751087055
1799.99999999946,25.8436712033521,1.00000000142487,0.53873593780889
1899.99999999937,26.6180307646379,1.00000000121126,0.518994973656922
1999.99999999928,27.0299197547871,1.00000000125583,0.539801109205251
2099.99999999919,27.0064813483257,1.00000000096024,0.483780551801595
2199.99999999909,26.7820609167452,1.00000000156992,0.570929513392284
2299.999999999,26.3862697012708,1.0000000008111,0.434441264563915
2399.99999999891,25.7497646204398,1.00000000141182,0.527745637023492
2499.99999999882,25.1852955692968,1.00000000171885,0.56831082703139
2599.99999999873,24.5469188934964,1.00000000062589,0.376459339790013
2699.99999999864,23.7843448943322,1.00000000123316,0.475747535146702
2799.99999999855,23.0875514287088,1.00000000176291,0.576239892020227
2899.99999999846,22.4793380303401,1.00000000140756,0.494282741453431
2999.99999999837,21.82732595618,1.00000000058359,0.333968525358176
3099.99999999828,21.1575317212849,1.00000000125412,0.460771055908832
3199.99999999819,20.5121126624972,1.00000000168756,0.536327974746786
3299.99999999809,19.9335854128765,1.00000000162096,0.568177375682726
3399.999999998,19.3964444066899,1.0000000010044,0.460452988061835
3499.99999999791,18.884526027161,1.00000000073833,0.338692322814919
3599.99999999782,18.4206611512365,1.00000000115159,0.434719178462168
3699.99999999773,17.9593487309541,1.00000000146997,0.534241417786784
3799.99999999764,17.5096974531631,1.00000000128083,0.506995908505984
3899.99999999755,17.0679377689869,1.00000000182851,0.544300854387018
3999.99999999746,16.6456743117647,1.00000000158851,0.568298742835065
4099.99999999738,16.2604274269172,1.00000000083275,0.434602594902728
4199.99999999775,15.9640705635881,1.00000000060509,0.339485723178828
4299.99999999811,15.7554188326641,1.00000000117738,0.414950552744965
4399.99999999848,15.5486268174718,1.00000000140448,0.504967040696837
4499.99999999884,15.3035991596159,1.00000000147467,0.546025807291354
4599.9999999992,15.0451332914104,1.00000000115331,0.536573604986019
4699.99999999957,14.8036593148011,1.00000000114585,0.515779243571112
4799.99999999993,14.5470236300808,1.00000000154127,0.524645501215545
4900.00000000029,14.2688303927207,1.00000000172914,0.56409034532598
5000.00000000066,13.9907286360916,1.00000000146993,0.574923701344749
5100.00000000102,13.7405884300285,1.0000000008972,0.477778962846025
5200.00000000139,13.5809943847918,1.00000000060801,0.372209618335193
5300.00000000175,13.5510627464366,1.00000000082662,0.365474147562985
5400.00000000211,13.5961726858305,1.00000000127331,0.433523576811157
5500.00000000248,13.6091185531555,1.00000000152822,0.510222882135646
5600.00000000284,13.5791330141423,1.00000000130056,0.541602245305085
5700.00000000321,13.5327651877081,1.00000000124439,0.53265248306844
5800.00000000357,13.4550744767233,1.00000000138361,0.552599846787723
5900.00000000393,13.3442873714512,1.00000000136819,0.545261666622212
6000.0000000043,13.2215851938659,1.00000000118798,0.539759190821665
6100.00000000466,13.0970845412662,1.0000000012158,0.545842675009686
6200.00000000502,12.9773652651411,1.00000000107823,0.542419104423509
6300.00000000539,12.8511616959858,1.00000000132294,0.547245098154238
6400.00000000575,12.7038821430728,1.00000000143841,0.556345733120467
6500.00000000612,12.5365546940231,1.00000000177302,0.561420094733067
6600.00000000648,12.3583806202815,1.00000000170743,0.584054321793684
6700.00000000684,12.1807648856678,1.00000000133965,0.567272642907244
6800.00000000721,12.025215900559,1.00000000086859,0.488576331952609
6900.00000000757,11.9435052045152,1.00000000063576,0.405047061056882
7000.00000000793,11.9896756130944,1.00000000071101,0.371582350081822
7100.0000000083,12.1595212916051,1.00000000092107,0.389266840566259
7200.00000000866,12.3850335679619,1.00000000131155,0.439940694921874
7300.00000000903,12.5892345684346,1.00000000140377,0.493924021599724
7400.00000000939,12.7537814691696,1.0000000014015,0.531943876097762
7500.00000000975,12.8767822343028,1.00000000138131,0.551983979712758
7600.00000001012,12.9665927530924,1.0000000013694,0.560754184484812
7700.00000001048,13.021418575332,1.00000000137968,0.581269227483862
7800.00000001084,13.0347695372856,1.000000001502,0.588426729225313
7900.00000001121,13.0169932023439,1.00000000127986,0.579631732169849
8000.00000001157,12.9836207262668,1.00000000126629,0.562228588418277
8100.00000001194,12.9422835961069,1.00000000144676,0.559221014589705
8200.0000000123,12.8908590509188,1.00000000142034,0.552925488121518
8300.00000001266,12.829532201499,1.0000000014001,0.548578797333975
8400.00000001303,12.7709991861716,1.00000000122823,0.555755167504023
8500.00000001339,12.7174574817223,1.00000000122517,0.552241800629951
8600.00000001376,12.6628750968352,1.00000000128374,0.559209073395024
8700.00000001412,12.6075255277068,1.00000000123344,0.566989011489307
8800.00000001448,12.5493929473472,1.00000000133806,0.566842451326301
8900.00000001485,12.4856294086107,1.00000000142724,0.56552560501555
9000.00000001521,12.4112995778901,1.00000000140914,0.566921551082288
9100.00000001557,12.3256333867649,1.00000000144362,0.591438662658299
9200.00000001594,12.2341905213199,1.00000000129402,0.604273942139482
9300.0000000163,12.1441142660583,1.00000000115946,0.589058612525397
9400.00000001667,12.0533377180489,1.00000000128798,0.595640147268859
9500.00000001703,11.9564475703949,1.00000000138951,0.594157230783512
9600.00000001739,11.851983993668,1.00000000164618,0.594218110682805
9700.00000001776,11.743759480747,1.00000000175902,0.602092613234775
9800.00000001812,11.6376637684579,1.00000000184369,0.595665517451503
9900.00000001848,11.5359468389336,1.00000000186132,0.597928072597768
10000.0000000188,11.4338049093378,1.00000000151362,0.589100612779732
10100.0000000192,11.3253377493656,1.00000000124445,0.55854892746279
10200.0000000196,11.2201332680382,1.00000000093695,0.499359285932003
10300.0000000199,11.1504329637826,1.00000000074716,0.447001381276431
10400.0000000203,11.1603266388612,1.00000000059665,0.398293001929412
10500.0000000207,11.2838151773593,1.0000000008174,0.387222652877384
10600.000000021,11.5260967686845,1.00000000083253,0.394477148094137
10700.0000000214,11.8541287784526,1.00000000129344,0.419707378831278
10800.0000000218,12.2153426903524,1.00000000132924,0.451431596844867
10900.0000000221,12.5694485528925,1.00000000155414,0.482963824131356
11000.0000000225,12.8919448474363,1.00000000141783,0.507098966812133
11100.0000000229,13.184746267793,1.00000000145298,0.53100758467488
11200.0000000232,13.4399195353084,1.0000000014032,0.554876702366772
11300.0000000236,13.6649809727499,1.000000001489,0.570551349332166
11400.0000000239,13.8580436740023,1.00000000146396,0.577259792903194
11500.0000000243,14.0182249730031,1.00000000146445,0.593779516618092
11600.0000000247,14.1441142245101,1.00000000149366,0.602690885036628
11700.000000025,14.2356053574451,1.00000000147746,0.610364887302958
11800.0000000254,14.2962387918399,1.00000000155899,0.612541117933374
11900.0000000258,14.335333169373,1.00000000131709,0.612634096937957
12000.0000000261,14.3570896668128,1.00000000140325,0.610101996509331
12100.0000000265,14.3624452846429,1.00000000148771,0.604867475948184
12200.0000000269,14.3614819894194,1.00000000141108,0.59549150503798
12300.0000000272,14.3489141922042,1.0000000015588,0.592806986429324
12400.0000000276,14.3221422583596,1.00000000142415,0.589443157376074
12500.0000000279,14.2922724000461,1.00000000143614,0.586490429621085
12600.0000000283,14.2501962375091,1.00000000154469,0.595333182234055
12700.0000000287,14.199976811026,1.00000000136931,0.592589605482799
12800.000000029,14.1441560605766,1.00000000145395,0.603781760729005
12900.0000000294,14.0832471029047,1.00000000147889,0.609282851955075
13000.0000000298,14.0162777001478,1.0000000015285,0.618908685384464
13100.0000000301,13.948095518194,1.00000000126784,0.606046564248625
13200.0000000305,13.8856050093852,1.00000000133025,0.590860441746895
13300.0000000309,13.8288157922502,1.00000000140924,0.577305587748516
13400.0000000312,13.7792283156973,1.00000000138695,0.573451479602145
13500.0000000316,13.7297448077076,1.00000000157238,0.583434732434486
13600.0000000319,13.6817992185854,1.00000000139455,0.588763307052683
13700.0000000323,13.6327861300343,1.0000000014948,0.579346958200568
13800.0000000327,13.5841385046404,1.00000000152897,0.587527551748267
13900.000000033,13.5384471718121,1.00000000130636,0.591089891468034
14000.0000000334,13.4989710530419,1.00000000156853,0.589748145438708
14100.0000000338,13.4580684268871,1.00000000159816,0.576230975024466
14200.0000000341,13.4191809763399,1.00000000141981,0.586855031652321
14300.0000000345,13.3882394274768,1.00000000129439,0.575436508104963
14400.0000000349,13.3635087927314,1.00000000145084,0.558136962183092
14500.0000000352,13.3375887633225,1.00000000145532,0.558440997159503
14600.0000000356,13.308072711568,1.00000000141497,0.568721567037202
14700.0000000359,13.2816537215469,1.0000000014319,0.578671435894023
14800.0000000363,13.255807326427,1.00000000152112,0.599148695256663
14900.0000000367,13.2287882525823,1.00000000141763,0.612682195759542
15000.000000037,13.2045631954851,1.00000000144815,0.605915136851363
15100.0000000374,13.1806126471146,1.00000000157255,0.592135725292926
15200.0000000378,13.1518701940889,1.00000000147621,0.599150565603564
15300.0000000381,13.1246611631654,1.00000000139274,0.603782485676529
15400.0000000385,13.0967417040477,1.00000000155652,0.617578635856917
15500.0000000389,13.0627008438769,1.0000000015693,0.622054766200714
15600.0000000392,13.0261927046402,1.00000000142624,0.619876830807213
15700.0000000396,12.9889865919122,1.0000000015168,0.61955227679249
15800.0000000399,12.9472267430876,1.00000000152823,0.621627131278653
15900.0000000403,12.902257347121,1.00000000150621,0.615788912012312
16000.0000000407,12.8549653562694,1.00000000157127,0.611128768032855
16100.000000041,12.8049191645437,1.00000000158666,0.61765669558118
16200.0000000414,12.7572622260645,1.0000000013619,0.62036367024005
16300.0000000418,12.7152666199963,1.00000000141667,0.613244183028594
16400.0000000418,12.6746693153843,1.00000000166786,0.617689020154065
16500.0000000404,12.6282401395092,1.00000000167169,0.611752177133325
16600.0000000389,12.5778910978955,1.00000000145386,0.622308437629669
16700.0000000375,12.5308286710902,1.00000000138155,0.628779728305472
16800.000000036,12.4812820186,1.00000000167401,0.628502996461704
16900.0000000346,12.4299913950489,1.00000000139529,0.616206015677018
17000.0000000331,12.3820241597977,1.00000000143978,0.616101949692441
17100.0000000317,12.3350474668449,1.0000000015235,0.614476895358556
17200.0000000302,12.2861589410131,1.00000000140329,0.623398423676985
17300.0000000287,12.2358427014172,1.00000000151726,0.625860879301518
17400.0000000273,12.1828844815156,1.0000000016751,0.627398666095237
17500.0000000258,12.127122871994,1.00000000155613,0.620419663648278
17600.0000000244,12.0692476908703,1.00000000154587,0.624677551379857
17700.0000000229,12.0089339553258,1.000000001596,0.637069219702639
17800.0000000215,11.9475225636084,1.00000000159393,0.639847883283497
17900.00000002,11.887480181047,1.00000000144017,0.632231206439957
18000.0000000186,11.8266404516456,1.000000001673,0.651399029758202
18100.0000000171,11.7632225148371,1.00000000170895,0.632708478957337
18200.0000000156,11.699785392558,1.00000000154918,0.641091152055458
18300.0000000142,11.6366198659853,1.00000000136496,0.629659318312638
18400.0000000127,11.574074995483,1.00000000152797,0.635776176854455
18500.0000000113,11.5119948571697,1.00000000150133,0.647545142825638
18600.0000000098,11.4505602172379,1.00000000128382,0.633824014328121
18700.0000000084,11.3898161702581,1.00000000148614,0.635080484473718
18800.0000000069,11.3301610694832,1.00000000141459,0.639175880331694
18900.0000000055,11.2728280799927,1.00000000150233,0.639797211444612
19000.000000004,11.2187279052904,1.00000000157898,0.632843674804408
19100.0000000026,11.1702453117119,1.00000000167055,0.644881570620646
19200.0000000011,11.1306347634731,1.00000000174051,0.640496020104612
19299.9999999996,11.1007253145999,1.00000000194435,0.649440983832183
19399.9999999982,11.0892179567924,1.00000000186655,0.649149500122157
19499.9999999967,11.090512874827,1.00000000199808,0.647466785843571
19599.9999999953,11.1208005963577,1.00000000205156,0.654883117686383
19699.9999999938,11.1618396465083,1.00000000188413,0.64614162187613
19799.9999999924,11.2316848375582,1.00000000216022,0.640299642535131
19899.9999999909,11.3011592188538,1.00000000195967,0.628226868707516
19999.9999999895,11.3787900008675,1.00000000182633,0.616591409045455
20099.999999988,11.4335480314962,1.0000000016432,0.605162735658281
20199.9999999865,11.4644145036939,1.00000000150816,0.588014554523775
20299.9999999851,11.4639433809674,1.00000000121169,0.55486603497349
20399.9999999836,11.434096424128,1.00000000116218,0.524532480058928
20499.9999999822,11.3902621770107,1.00000000102264,0.490027960938177
20599.9999999807,11.348780330087,1.00000000097451,0.461116969349422
20699.9999999793,11.3356063397251,1.0000000008946,0.435684728757763
20799.9999999778,11.3770310398343,1.00000000096641,0.41725671251901
20899.9999999764,11.4983510547385,1.00000000092634,0.4039360756709
20999.9999999749,11.708440986724,1.00000000089622,0.398616377407753
21099.9999999734,12.035076299335,1.00000000108718,0.403568845779503
21199.999999972,12.4408292916349,1.00000000109362,0.410331913904122
21299.9999999705,12.9605950850639,1.00000000137928,0.418454032183844
21399.9999999691,13.5158944017806,1.00000000143565,0.435823767210747
21499.9999999676,14.1376110935765,1.00000000165935,0.442041980092601
21599.9999999662,14.754095893878,1.0000000017385,0.459567881053985
21699.9999999647,15.3835261909138,1.00000000166386,0.466116400119069
21799.9999999633,16.0023729998846,1.0000000016797,0.488334492310455
21899.9999999618,16.6032105337543,1.00000000166438,0.492941680919312
21999.9999999603,17.1951629275076,1.00000000182872,0.512232878420428
22099.9999999589,17.7471135667587,1.00000000170801,0.522297296439689
22199.9999999574,18.2967297549592,1.0000000018291,0.534778646560386
22299.999999956,18.8086552725509,1.00000000166109,0.547172744984991
22399.9999999545,19.3082605241828,1.00000000150437,0.549574282170498
22499.9999999531,19.794427836,1.00000000158981,0.573296498225255
22599.9999999516,20.2533090427947,1.0000000018236,0.575183137804907
22699.9999999502,20.6949307824388,1.00000000171408,0.584162032947982
22799.9999999487,21.0906535924179,1.00000000170518,0.604689394524866
22899.9999999473,21.4726221480257,1.00000000163753,0.613300799982614
22999.9999999458,21.8135855136994,1.00000000178484,0.611057244712904
23099.9999999443,22.1320401077042,1.00000000176405,0.61944566137436
23199.9999999429,22.4150320302271,1.00000000159691,0.637222070393616
23299.9999999414,22.6630662559056,1.00000000167371,0.636912150299822
23399.99999994,22.8913368874463,1.00000000165631,0.637077779321142
23499.9999999385,23.0861187057301,1.00000000160719,0.640692324503882
23599.9999999371,23.26351435618,1.00000000161185,0.652390079078773
23699.9999999356,23.4126489163353,1.00000000156604,0.648478380266454
23799.9999999342,23.5529530049639,1.00000000163578,0.640208827113029
23899.9999999327,23.6717632617045,1.00000000158637,0.646205865442678
23999.9999999312,23.773939253087,1.00000000160682,0.646340385676294
24099.9999999298,23.8583533130016,1.00000000176982,0.650427793149071
24199.9999999283,23.9238234341967,1.00000000166006,0.641453278168091
24299.9999999269,23.9871521769982,1.00000000152971,0.646336341443105
24399.9999999254,24.0407950638323,1.00000000161826,0.634020867170091
24499.999999924,24.0931502432096,1.00000000182596,0.63487096772682
24599.9999999225,24.126986382349,1.00000000187886,0.648625682515134
24699.9999999211,24.144440472903,1.00000000220409,0.645233922666876
24799.9999999196,24.1525478697789,1.00000000155176,0.637955024591034
24899.9999999181,24.1624850482786,1.0000000015827,0.61862455699899
24999.9999999167,24.1742708423646,1.00000000167685,0.624876582794584
25099.9999999152,24.1768119064832,1.00000000169068,0.624316194547153
25199.9999999138,24.1732526462962,1.00000000167564,0.611269739456836
25299.9999999123,24.1639759068692,1.00000000156771,0.618476640228941
25399.9999999109,24.15133353383,1.00000000162673,0.625609269072163
25499.9999999094,24.1333348997117,1.00000000173327,0.641222261173314
25599.999999908,24.1119531569277,1.00000000152459,0.630372778362048
25699.9999999065,24.0975830491872,1.00000000156043,0.597102983720431
25799.9999999051,24.085939902891,1.00000000143997,0.608419526790877
25899.9999999036,24.0681407710244,1.00000000189749,0.611623707573837
25999.9999999021,24.0380383389117,1.0000000016509,0.618589690480441
26099.9999999007,24.0041961065623,1.00000000160435,0.619455261695363
26199.9999998992,23.9738884035396,1.00000000148479,0.604719317138225
26299.9999998978,23.9488829312466,1.00000000169982,0.62378441935518
26399.9999998963,23.9191105214507,1.00000000192807,0.633910463640496
26499.9999998949,23.8801465013616,1.00000000167626,0.644531128634815
26599.9999998934,23.8394436120648,1.00000000171396,0.642440762983178
26699.999999892,23.802163084525,1.00000000152752,0.627468495450387
26799.9999998905,23.7719694184669,1.00000000160766,0.629370403459457
26899.999999889,23.7437927679397,1.00000000172955,0.631819739000784
26999.9999998876,23.7145684639396,1.00000000149621,0.624616344161668
27099.9999998861,23.6915587863493,1.00000000138665,0.602767291430094
27199.9999998847,23.6781326283403,1.00000000152128,0.601742269172529
27299.9999998832,23.6619899782635,1.00000000189311,0.626298663311867
27399.9999998818,23.6337047510146,1.00000000183511,0.631823236875433
27499.9999998803,23.5975157382089,1.00000000159903,0.630910361509936
27599.9999998789,23.565857546726,1.00000000150801,0.607272766385841
27699.9999998774,23.5449359850693,1.00000000172032,0.6364495337427
27799.9999998759,23.5233163047284,1.00000000177707,0.647189331137571
27899.9999998745,23.4931069034686,1.00000000186992,0.638435661891895
27999.999999873,23.4568664099871,1.00000000169677,0.640384987756212
28099.9999998716,23.4236999373285,1.00000000149236,0.628721832793482
28199.9999998701,23.3963371004162,1.00000000162001,0.627141329620768
28299.9999998687,23.3725521820374,1.00000000150426,0.621781731006919
28399.9999998672,23.3451261663962,1.00000000188185,0.635514255880559
28499.9999998658,23.3134546851254,1.00000000165418,0.62314249357979
28599.9999998643,23.2846518123763,1.00000000165911,0.618813380015112
28699.9999998629,23.2569344017545,1.00000000199684,0.627299160514969
28799.9999998614,23.2314780414364,1.00000000157936,0.628187469882488
28899.9999998599,23.2052415681905,1.00000000209848,0.642802982953595
28999.9999998585,23.1741904351043,1.00000000164096,0.629316485438898
29099.999999857,23.1393607897977,1.00000000169483,0.637113317696544
