Time,AGPnorm,Energy,Entropy
0,0,1,1.28137060152595e-18
99.9999999999986,0.0102786350338112,1.0000000000006,0.0269450391003999
199.999999999993,0.0270056334091767,1.00000000000073,0.0788590527678522
300,0.052185263899089,1.00000000000507,0.16025303956543
400.000000000022,0.0800519966920845,1.00000000032999,0.28867517192811
500.000000000045,0.167403253049925,1.00000000180462,0.433934633689153
600.000000000068,0.728695287051392,1.00000000304401,0.525536577223054
700.000000000091,2.06603540523616,1.00000000395692,0.57036906457405
800.000000000113,4.10336360545085,1.0000000035757,0.589814216480546
900.000000000136,6.56990832244745,1.000000003409,0.591029714458894
1000.00000000016,8.99914193148442,1.00000000338036,0.586108580770559
1100.0000000001,11.1740483700251,1.00000000311442,0.577498514683487
1200,12.8601961266058,1.00000000265781,0.566312385554184
1299.99999999991,14.0305518454115,1.00000000254202,0.563775261017446
1399.99999999982,14.6916418518222,1.00000000233358,0.562238222425399
1499.99999999973,14.9214474779299,1.00000000186749,0.53016295454939
1599.99999999964,14.8812269000751,1.00000000199918,0.53081516685933
1699.99999999955,14.5847060372508,1.00000000283062,0.579544002934935
1799.99999999946,14.1930059276838,1.00000000132224,0.451668769902451
1899.99999999937,13.7224032719463,1.00000000318705,0.585236243294432
1999.99999999928,13.2436024396404,1.00000000121711,0.415126726024909
2099.99999999919,12.7181773477222,1.00000000313501,0.557525115708339
2199.99999999909,12.257101493807,1.00000000205136,0.47515320456229
2299.999999999,11.7819810154071,1.00000000177832,0.440952463615021
2399.99999999891,11.3133697500668,1.00000000272935,0.550341989908564
2499.99999999882,10.8975140109358,1.00000000213349,0.501713247063712
2599.99999999873,10.5189836602,1.00000000159188,0.413650959843824
2699.99999999864,10.1474769676086,1.0000000023025,0.512534783644331
2799.99999999855,9.79307772208063,1.00000000265379,0.535892144249332
2899.99999999846,9.4601950583597,1.00000000243883,0.538515801197811
2999.99999999837,9.19245565308794,1.00000000126766,0.407444288336493
3099.99999999828,8.9620784010424,1.00000000236749,0.488242736281218
3199.99999999819,8.72204187967276,1.00000000225783,0.528634810945131
3299.99999999809,8.49460961929566,1.00000000230817,0.542026754921871
3399.999999998,8.26030972837238,1.00000000292465,0.552737393847803
3499.99999999791,8.04054913778108,1.00000000186545,0.519453183491704
3599.99999999782,7.90288951040456,1.00000000144711,0.42670826251673
3699.99999999773,7.81795263299436,1.00000000217643,0.481957703335624
3799.99999999764,7.71097110741255,1.00000000242646,0.539520784994576
3899.99999999755,7.60669541178228,1.00000000229025,0.555979022378571
3999.99999999746,7.48866130656344,1.00000000239238,0.572414184822931
4099.99999999738,7.35935147614483,1.00000000208094,0.571158120915823
4199.99999999775,7.22531592112755,1.00000000268574,0.570830264056689
4299.99999999811,7.08022689153008,1.00000000278329,0.580086933808364
4399.99999999848,6.95759243664129,1.00000000171887,0.518666631478702
4499.99999999884,6.92396606078991,1.00000000149175,0.449803411965228
4599.9999999992,6.95624354358562,1.00000000234744,0.487984806719617
4699.99999999957,6.97116163901059,1.00000000236933,0.526957080067261
4799.99999999993,6.96905590194594,1.00000000230433,0.569494451457694
4900.00000000029,6.9461820575095,1.00000000254288,0.58067921290362
5000.00000000066,6.91395437189493,1.00000000224865,0.592354693940548
5100.00000000102,6.88160199423521,1.0000000025058,0.590358700376796
5200.00000000139,6.83178006731947,1.00000000261082,0.584725897127378
5300.00000000175,6.76501422865592,1.00000000255058,0.593803867304259
5400.00000000211,6.69354286001421,1.00000000210669,0.601311678002387
5500.00000000248,6.61871694591387,1.00000000234818,0.603672944066184
5600.00000000284,6.53494873081958,1.00000000270715,0.613465795658906
5700.00000000321,6.44439754742648,1.00000000276575,0.601606196359864
5800.00000000357,6.3524985977796,1.00000000248984,0.579786622157155
5900.00000000393,6.29783216088809,1.00000000169885,0.513227278055073
6000.0000000043,6.3313348473554,1.00000000153531,0.474142978912796
6100.00000000466,6.43674181816618,1.00000000219774,0.495338479580843
6200.00000000502,6.54421050979368,1.00000000258587,0.536470436758996
6300.00000000539,6.63137871790933,1.0000000025312,0.559692084864679
6400.00000000575,6.70044696996473,1.00000000250517,0.580558714553585
6500.00000000612,6.75506097411675,1.00000000238891,0.605306314234597
6600.00000000648,6.78492673760063,1.00000000244493,0.619916807288923
6700.00000000684,6.80229432109844,1.0000000024571,0.628988019428549
6800.00000000721,6.80499550376786,1.00000000262923,0.625172115327924
6900.00000000757,6.78960479852049,1.00000000268648,0.638170208944264
7000.00000000793,6.77164918947156,1.00000000228705,0.622986587930353
7100.0000000083,6.76165910970361,1.00000000231969,0.616230635137249
7200.00000000866,6.75262789185065,1.00000000255729,0.603146574227425
7300.00000000903,6.72652125979706,1.00000000280819,0.614513845238304
7400.00000000939,6.70139385469781,1.00000000228046,0.616699957507435
7500.00000000975,6.67897362903663,1.00000000254387,0.630169604468917
7600.00000001012,6.65042798868281,1.00000000229184,0.635757063941557
7700.00000001048,6.61874929065484,1.00000000260541,0.627989425294873
7800.00000001084,6.58629225430561,1.00000000239537,0.610201685466873
7900.00000001121,6.54581019921321,1.00000000275002,0.629369852044831
8000.00000001157,6.49378891761446,1.00000000250178,0.642629271285081
8100.00000001194,6.43557467518187,1.00000000265709,0.634507284974044
8200.0000000123,6.37745832309167,1.00000000237748,0.644662591456311
8300.00000001266,6.3184937540632,1.00000000250852,0.646610505832683
8400.00000001303,6.25944774762814,1.00000000297,0.656518886017445
8500.00000001339,6.20364568517632,1.0000000028303,0.672595453348014
8600.00000001376,6.1467980521796,1.00000000309591,0.650787957870747
8700.00000001412,6.08372873115136,1.00000000259554,0.613710791246591
8800.00000001448,6.03186598334826,1.00000000212504,0.564231114374616
8900.00000001485,6.02735705308831,1.00000000171783,0.522808618938285
9000.00000001521,6.09950101950047,1.0000000017552,0.499786557697715
9100.00000001557,6.24246979043493,1.00000000238837,0.503947097983945
9200.00000001594,6.4188731154799,1.00000000261324,0.525456392781923
9300.0000000163,6.58924861407228,1.00000000260463,0.548344105936104
9400.00000001667,6.74519980430682,1.00000000291857,0.558119777087858
9500.00000001703,6.88808947652117,1.0000000026909,0.572198405158489
9600.00000001739,7.01267358477745,1.00000000260441,0.589933300211568
9700.00000001776,7.12311886100496,1.00000000250251,0.593801148390788
9800.00000001812,7.21806864008696,1.00000000289701,0.624127339413182
9900.00000001848,7.29857974117229,1.00000000291082,0.63758542005701
10000.0000000188,7.36707268303531,1.00000000290952,0.619534245470165
10100.0000000192,7.42242067684301,1.00000000273742,0.639399259232667
10200.0000000196,7.46146364190435,1.00000000291693,0.656669920730858
10300.0000000199,7.49154547456265,1.0000000028785,0.65667668834235
10400.0000000203,7.51768671188057,1.00000000285153,0.647406076393283
10500.0000000207,7.54282204895614,1.00000000267491,0.644715736915476
10600.000000021,7.55885067314924,1.00000000309267,0.656717100469334
10700.0000000214,7.57072502838522,1.00000000284504,0.658953441885215
10800.0000000218,7.5792683716116,1.00000000290287,0.660082443006072
10900.0000000221,7.57688474071234,1.0000000027311,0.663740344930586
11000.0000000225,7.57396409496606,1.00000000275452,0.660152012889087
11100.0000000229,7.56573283456862,1.00000000284723,0.652160154455813
11200.0000000232,7.55619883712232,1.00000000289124,0.666029352237012
11300.0000000236,7.54067101096301,1.0000000028155,0.66036621412675
11400.0000000239,7.52102523922493,1.00000000291608,0.662105942494527
11500.0000000243,7.50319036440951,1.00000000299253,0.650674444910058
11600.0000000247,7.48920812680496,1.00000000277489,0.637484460610106
11700.000000025,7.48604123196147,1.00000000254427,0.617223397434838
11800.0000000254,7.49814883662904,1.00000000273533,0.612152611601644
11900.0000000258,7.51917082562818,1.00000000291988,0.624219932659967
12000.0000000261,7.53510588942034,1.00000000291414,0.628831579828677
12100.0000000265,7.54909805800898,1.00000000312358,0.632958140789312
12200.0000000269,7.55442152990774,1.00000000305677,0.630788480043134
12300.0000000272,7.56703419967633,1.00000000296267,0.630436849676945
12400.0000000276,7.57727216346163,1.00000000323206,0.627029091142774
12500.0000000279,7.58745825632472,1.00000000296534,0.64424676451262
12600.0000000283,7.60113974229884,1.00000000282188,0.655515944234691
12700.0000000287,7.61427755745849,1.00000000330081,0.667342257967492
12800.000000029,7.62091525051709,1.00000000312557,0.662000201771622
12900.0000000294,7.62671804535352,1.00000000300748,0.660945112822802
13000.0000000298,7.63938230996366,1.00000000295106,0.653503611812904
13100.0000000301,7.65392192829759,1.00000000274745,0.650188444844487
13200.0000000305,7.67361276377542,1.0000000031079,0.649974229741087
13300.0000000309,7.68971695955251,1.00000000342818,0.660480078777891
13400.0000000312,7.69780372259336,1.00000000320406,0.665555094516931
13500.0000000316,7.70965854147712,1.0000000029305,0.668299567075606
13600.0000000319,7.72698337127784,1.00000000311487,0.670851095863725
13700.0000000323,7.74199656901582,1.00000000308972,0.653526054570307
13800.0000000327,7.7585969113494,1.00000000305873,0.661927542900945
13900.000000033,7.76887892818185,1.00000000332943,0.673094000430727
14000.0000000334,7.77993523299941,1.00000000297766,0.664651801687349
14100.0000000338,7.79343497779233,1.00000000338321,0.680039045215954
14200.0000000341,7.80152174613341,1.00000000326506,0.674546368732413
14300.0000000345,7.80998160400227,1.00000000305102,0.673791568653349
14400.0000000349,7.82097383651076,1.0000000030315,0.671974284601022
14500.0000000352,7.82345726605303,1.00000000329718,0.672148915348957
14600.0000000356,7.82022171690212,1.00000000328148,0.663392959230977
14700.0000000359,7.82045736715654,1.00000000312565,0.665071427912892
14800.0000000363,7.82258798439396,1.000000003307,0.671242477936842
14900.0000000367,7.82752518276013,1.00000000328853,0.666505505604285
15000.000000037,7.82844892027004,1.00000000347633,0.678260891841369
15100.0000000374,7.82200132232391,1.00000000338368,0.680447180372796
15200.0000000378,7.81619180373645,1.00000000316147,0.672322408438298
15300.0000000381,7.81132640502493,1.00000000330254,0.671933456693774
15400.0000000385,7.80619651114805,1.00000000303327,0.677239914047438
15500.0000000389,7.79779214871387,1.00000000344238,0.678746672643652
15600.0000000392,7.78097710431574,1.00000000360265,0.665449532243518
15700.0000000396,7.76256816050908,1.00000000346367,0.679983234673837
15800.0000000399,7.74245100800897,1.00000000299216,0.673947009847733
15900.0000000403,7.71929999087269,1.00000000347078,0.691142689526612
16000.0000000407,7.68912858116895,1.0000000032002,0.683713025942819
16100.000000041,7.65602827704399,1.0000000032968,0.688499630859504
16200.0000000414,7.6222604895057,1.00000000341335,0.685317178249764
16300.0000000418,7.58715621594332,1.00000000334172,0.680973059300336
16400.0000000418,7.55261373578714,1.00000000289026,0.680902169329741
16500.0000000404,7.51929283492895,1.0000000033397,0.674123681639374
16600.0000000389,7.48756041331246,1.00000000331759,0.66870236471743
16700.0000000375,7.45936475972675,1.00000000385937,0.668111304800846
16800.000000036,7.43384237856037,1.00000000350728,0.67286590336475
16900.0000000346,7.41193910840592,1.00000000381281,0.687652923735348
17000.0000000331,7.39473187128577,1.00000000353929,0.690423302779471
17100.0000000317,7.37904025646058,1.0000000043251,0.699905616153498
17200.0000000302,7.36365136453577,1.00000000411821,0.687176230419011
17300.0000000287,7.34241740664466,1.00000000363339,0.668247722900308
17400.0000000273,7.31452704595035,1.0000000036026,0.654775615228681
17500.0000000258,7.28247818379371,1.00000000308921,0.626476112337321
17600.0000000244,7.25754518622473,1.00000000302862,0.599291664274491
17700.0000000229,7.25979418623482,1.00000000288015,0.58404374658979
17800.0000000215,7.30375261735005,1.0000000029884,0.565130374877464
17900.00000002,7.41023870055906,1.00000000260395,0.552796247683159
18000.0000000186,7.58763267351935,1.00000000272648,0.538858935984354
18100.0000000171,7.84997746318837,1.00000000278437,0.543507368919497
18200.0000000156,8.16616649419617,1.00000000317164,0.543247341489756
18300.0000000142,8.5506668253473,1.00000000330995,0.553785528568693
18400.0000000127,8.93906488861265,1.0000000037511,0.560220452775514
18500.0000000113,9.35872554073137,1.00000000364059,0.571316755143117
18600.0000000098,9.75751528431358,1.00000000376319,0.575648726552841
18700.0000000084,10.1655724964442,1.00000000389081,0.577967774814912
18800.0000000069,10.5594455137695,1.00000000379195,0.586237750438063
18900.0000000055,10.9494837633192,1.00000000375968,0.593354507173506
19000.000000004,11.338751744886,1.00000000392534,0.605403298819988
19100.0000000026,11.7094118944555,1.00000000397857,0.60302404349988
19200.0000000011,12.0845580575572,1.00000000340737,0.612616224580457
19299.9999999996,12.4345814117004,1.00000000368059,0.629516878428747
19399.9999999982,12.7915911326375,1.00000000319628,0.639570737852077
19499.9999999967,13.1303637139416,1.00000000355941,0.662625854750652
19599.9999999953,13.4578467560235,1.00000000384046,0.665481123956168
19699.9999999938,13.7787447287829,1.00000000379131,0.672288491647026
19799.9999999924,14.072664133229,1.00000000382435,0.656601954174814
19899.9999999909,14.3607181346759,1.00000000454726,0.682133303699177
19999.9999999895,14.6262904634057,1.00000000367144,0.672249016079152
20099.999999988,14.8851313375257,1.00000000456333,0.66687569315356
20199.9999999865,15.1180843163985,1.00000000372914,0.674425841766692
20299.9999999851,15.3486828940632,1.00000000407505,0.691764875502207
20399.9999999836,15.5788583389879,1.00000000391117,0.678235615553564
20499.9999999822,15.7869537529125,1.00000000465403,0.675696462202595
20599.9999999807,15.9852555356182,1.00000000379375,0.694118407187135
20699.9999999793,16.1749483662956,1.000000003583,0.689631808747519
20799.9999999778,16.3728638219879,1.00000000382021,0.680015954574307
20899.9999999764,16.5599430904155,1.00000000403413,0.691185834266085
20999.9999999749,16.7296023138223,1.00000000414746,0.686128967740416
21099.9999999734,16.8887183382865,1.00000000401461,0.688725234865148
21199.999999972,17.0305774888141,1.00000000390915,0.698329978520048
21299.9999999705,17.1670170047894,1.00000000393105,0.706723820836186
21399.9999999691,17.3056375579992,1.00000000405383,0.71344117010994
21499.9999999676,17.466885389761,1.00000000383501,0.696837162426573
21599.9999999662,17.6400422732839,1.00000000406188,0.701897277951041
21699.9999999647,17.8076024910421,1.00000000461326,0.704371471573518
21799.9999999633,17.9579507787314,1.00000000410453,0.704439018921425
21899.9999999618,18.0888645492879,1.0000000043032,0.716134448138059
21999.9999999603,18.2174406053062,1.00000000386855,0.693807273126153
22099.9999999589,18.3640207529255,1.00000000387717,0.680321264719597
22199.9999999574,18.5314247566198,1.00000000427221,0.696150788037777
22299.999999956,18.6956752524945,1.00000000407312,0.696383706409561
22399.9999999545,18.8423084544535,1.00000000404802,0.698045522686511
22499.9999999531,18.9770910321984,1.00000000442525,0.709635584735933
22599.9999999516,19.1167177174819,1.00000000416601,0.696027052632201
22699.9999999502,19.2735014177119,1.00000000408778,0.702394981676533
22799.9999999487,19.4331662489969,1.00000000468487,0.704546272822384
22899.9999999473,19.5871603917406,1.00000000440489,0.698477323027536
22999.9999999458,19.7256300685072,1.00000000440197,0.700209319529164
23099.9999999443,19.8642886549874,1.00000000403444,0.703392447556275
23199.9999999429,20.0135820441102,1.00000000425466,0.685983491348009
23299.9999999414,20.1736418591215,1.00000000408185,0.700601653635252
23399.99999994,20.3337594260755,1.00000000422063,0.687048250324091
23499.9999999385,20.497120760652,1.00000000442383,0.695135056274553
23599.9999999371,20.6532498427051,1.00000000425997,0.709127895241629
23699.9999999356,20.7987516976729,1.0000000042366,0.694226724554045
23799.9999999342,20.9396610172433,1.00000000416468,0.704519100841828
23899.9999999327,21.0821679614118,1.0000000044674,0.701270263811101
23999.9999999312,21.2266433495044,1.0000000045445,0.703230203792248
24099.9999999298,21.3706097148968,1.00000000421652,0.694896315131655
24199.9999999283,21.5248471962874,1.00000000408919,0.686972633726779
24299.9999999269,21.6885610656568,1.00000000401789,0.689563271481735
24399.9999999254,21.8521490616879,1.00000000445157,0.702629703799825
24499.999999924,22.0111007256794,1.00000000469535,0.696332256058898
24599.9999999225,22.1673399872621,1.00000000450971,0.689002171063825
24699.9999999211,22.3208206767219,1.00000000468135,0.700745432915664
24799.9999999196,22.4654140217345,1.00000000439124,0.699014122850611
24899.9999999181,22.6092723294403,1.00000000384062,0.692055825234782
24999.9999999167,22.7629285351804,1.00000000453206,0.702352620223851
25099.9999999152,22.9195605406028,1.0000000043889,0.707254581625002
25199.9999999138,23.0824353050181,1.00000000501653,0.706879386129912
25299.9999999123,23.2455470573066,1.00000000412496,0.686342623009879
25399.9999999109,23.4095841543231,1.00000000416025,0.699829425763129
25499.9999999094,23.5645223978204,1.00000000448546,0.698974190348141
25599.999999908,23.7050550295987,1.00000000445888,0.700543426433469
25699.9999999065,23.8439147131455,1.00000000430737,0.710937821432744
25799.9999999051,23.9895390505585,1.00000000446309,0.706562969741102
25899.9999999036,24.1422129761383,1.00000000429484,0.71606237684671
25999.9999999021,24.3040018048006,1.00000000442655,0.704015604494983
26099.9999999007,24.4817039716517,1.00000000399989,0.695873824855548
26199.9999998992,24.675366013942,1.00000000443111,0.689913308489715
26299.9999998978,24.8828160048747,1.00000000451937,0.68449539199696
26399.9999998963,25.1028048913798,1.00000000450787,0.68927962023463
26499.9999998949,25.3218961711574,1.00000000428771,0.700797321204883
26599.9999998934,25.5382524112555,1.0000000050918,0.708205124555274
26699.999999892,25.749832778796,1.00000000475813,0.708325528624667
26799.9999998905,25.9486758921735,1.00000000494754,0.715196813018628
26899.999999889,26.1425787632623,1.00000000469997,0.699183909759678
26999.9999998876,26.3451527434692,1.00000000456379,0.691407028658448
27099.9999998861,26.5416854154117,1.00000000500298,0.70138596963462
27199.9999998847,26.7438590993509,1.00000000512872,0.695642947663915
27299.9999998832,26.9555401934096,1.0000000046166,0.695203241517426
27399.9999998818,27.1641027320414,1.00000000492222,0.696874573224539
27499.9999998803,27.3654195932916,1.00000000448156,0.680778843540812
27599.9999998789,27.5800894433461,1.00000000432617,0.684418981135671
27699.9999998774,27.8057204872879,1.00000000458477,0.678547009197087
27799.9999998759,28.0384661951875,1.00000000476211,0.693182258334508
27899.9999998745,28.2642603889519,1.00000000476811,0.699567788691942
27999.999999873,28.4757355243835,1.00000000476182,0.698970238226138
28099.9999998716,28.6856177690714,1.00000000492101,0.692902978187056
28199.9999998701,28.9056545770394,1.00000000429884,0.693213671522522
28299.9999998687,29.1313006214482,1.00000000467239,0.710490241624846
28399.9999998672,29.3377732852572,1.00000000566209,0.72327716727228
28499.9999998658,29.5329275897027,1.00000000482182,0.692211046210673
28599.9999998643,29.7374275687968,1.00000000441005,0.702704607583412
28699.9999998629,29.9529544019483,1.00000000461827,0.69401547402345
28799.9999998614,30.1817357092874,1.00000000424428,0.690433993951219
28899.9999998599,30.4182789659214,1.0000000049023,0.709918255797134
28999.9999998585,30.6424283605624,1.00000000494042,0.711239689416238
