Time,AGPnorm,Energy,Entropy
0,0,1,-7.65618934411777e-17
99.9999999999986,0.000368170061272466,0.99999999999873,0.00139091321776904
199.999999999993,0.00240243248719745,0.999999999994756,0.00414671854993406
300,0.00504928987884869,0.999999999994869,0.00763086917820623
400.000000000022,0.00755484020239849,0.99999999999882,0.0120670164759596
500.000000000045,0.0106866745913926,0.999999999999855,0.0176502808477596
600.000000000068,0.0150951404777325,0.999999999996306,0.0239714011969005
700.000000000091,0.0199789318289662,0.999999999994208,0.0306775489547415
800.000000000113,0.0253163894302565,0.999999999997135,0.0379436610226431
900.000000000136,0.030676028138102,0.999999999999934,0.0461196103452647
1000.00000000016,0.0369454291013633,0.999999999998052,0.0550444146298536
1100.0000000001,0.0438112878047353,0.999999999994592,0.0643985463858074
1200,0.0511257898436706,0.99999999999565,0.0742190237078501
1299.99999999991,0.0579294172276957,0.999999999999079,0.0849782280445987
1399.99999999982,0.0654817089517848,0.999999999999297,0.0967153572062367
1499.99999999973,0.0734767222552193,0.999999999995832,0.109235374908856
1599.99999999964,0.0816595767906566,0.999999999994986,0.122450982776567
1699.99999999955,0.0896573234828084,0.999999999997953,0.136947998625982
1799.99999999946,0.0974230841957627,1.00000000000018,0.153080975508452
1899.99999999937,0.10552588622022,0.999999999999518,0.170994958915401
1999.99999999928,0.114269809507575,1.00000000000003,0.19050728317633
2099.99999999919,0.12460280872726,1.00000000000865,0.212093681591325
2199.99999999909,0.13393883588919,1.00000000002372,0.235852538722015
2299.999999999,0.144795098313626,1.00000000004329,0.261192772333126
2399.99999999891,0.168979862624254,1.00000000006659,0.286876422525781
2499.99999999882,0.222341995692511,1.0000000001077,0.311858286315863
2599.99999999873,0.308266665449647,1.00000000013608,0.336097128927972
2699.99999999864,0.445597913527977,1.00000000018397,0.35903244134931
2799.99999999855,0.689717153353987,1.00000000022224,0.380277635503718
2899.99999999846,1.09765401538891,1.0000000002551,0.399110992521345
2999.99999999837,1.68872448541659,1.00000000028973,0.416332554242033
3099.99999999828,2.48894793791872,1.00000000033606,0.432209869931268
3199.99999999819,3.57720085741736,1.00000000036744,0.4466749435029
3299.99999999809,5.0328164414398,1.00000000039348,0.459035706182472
3399.999999998,6.864652585553,1.00000000044077,0.470026994203605
3499.99999999791,9.06632848860896,1.00000000044549,0.48042906190217
3599.99999999782,11.6867376398894,1.00000000046869,0.48981336850667
3699.99999999773,14.7933665037431,1.00000000050173,0.497365075214392
3799.99999999764,18.3763385416568,1.00000000048244,0.504029827719179
3899.99999999755,22.381124120611,1.00000000051744,0.510388200445539
3999.99999999746,26.8027926120856,1.00000000051272,0.516244792815049
4099.99999999738,31.6796319383863,1.00000000051795,0.520443777269582
4199.99999999775,36.9977518896699,1.00000000051093,0.523931518254951
4299.99999999811,42.6728481286705,1.00000000052344,0.527851311788474
4399.99999999848,48.6554162446852,1.00000000049178,0.530715626656405
4499.99999999884,54.9549692282882,1.00000000054052,0.532414303204708
4599.9999999992,61.5612754103398,1.00000000053414,0.53433785901753
4699.99999999957,68.3938897060801,1.00000000050048,0.535644376346663
4799.99999999993,75.3810829166004,1.00000000050286,0.53685078058589
4900.00000000029,82.5049659328889,1.000000000529,0.53741806698708
5000.00000000066,89.7591124938877,1.00000000050514,0.537476466929904
5100.00000000102,97.0939833031862,1.00000000047902,0.538108374876631
5200.00000000139,104.433101599443,1.00000000046682,0.537741410713029
5300.00000000175,111.743104453256,1.00000000049723,0.537501486216622
5400.00000000211,119.018780059191,1.00000000048828,0.537532157278957
5500.00000000248,126.236526776653,1.00000000047311,0.535968333349378
5600.00000000284,133.341573818777,1.00000000045864,0.534934571731327
5700.00000000321,140.292280325774,1.0000000004539,0.534964002581683
5800.00000000357,147.08070133151,1.00000000045527,0.533727228942954
5900.00000000393,153.700239259482,1.00000000042431,0.531562396653668
6000.0000000043,160.121116717204,1.00000000042872,0.530583165662683
6100.00000000466,166.30458931081,1.00000000041705,0.530295653981713
6200.00000000502,172.240217244724,1.00000000043597,0.528823907296987
6300.00000000539,177.92846498839,1.00000000041107,0.526629154859966
6400.00000000575,183.361873460544,1.00000000037513,0.525280825863504
6500.00000000612,188.517941908459,1.00000000039035,0.524566516861838
6600.00000000648,193.381947662626,1.00000000037755,0.523267705433408
6700.00000000684,197.958368701221,1.00000000037278,0.520692340253725
6800.00000000721,202.252047297754,1.00000000037647,0.519201807430305
6900.00000000757,206.257810275268,1.00000000037157,0.519578999377725
7000.00000000793,209.966742589212,1.00000000036162,0.519291065583537
7100.0000000083,213.380378653986,1.00000000033527,0.515902381467763
7200.00000000866,216.503748592343,1.00000000033236,0.511109011527478
7300.00000000903,219.343532978198,1.00000000033092,0.511370769413916
7400.00000000939,221.905850933408,1.0000000003181,0.516466319390748
7500.00000000975,224.199714200306,1.00000000033565,0.518895618388201
7600.00000001012,226.233913135904,1.00000000032679,0.5133825682315
7700.00000001048,228.002713974002,1.00000000029632,0.501872019438469
7800.00000001084,229.497536641662,1.00000000027144,0.497542541279048
7900.00000001121,230.729057873522,1.00000000028627,0.507989862786133
8000.00000001157,231.737956740839,1.00000000030708,0.521845395746391
8100.00000001194,232.563218330142,1.00000000031481,0.525616117130715
8200.0000000123,233.205632760825,1.0000000002959,0.512122581672113
8300.00000001266,233.628144060605,1.00000000026289,0.48873943561899
8400.00000001303,233.796073816298,1.00000000022316,0.478061818482262
8500.00000001339,233.732257673086,1.00000000024532,0.494159228798491
8600.00000001376,233.50945311707,1.00000000029875,0.522039555031368
8700.00000001412,233.197626319021,1.00000000034292,0.53896030155612
8800.00000001448,232.820809133451,1.00000000032928,0.532567576952522
8900.00000001485,232.342130899873,1.00000000027911,0.502502100921636
9000.00000001521,231.692950005773,1.00000000020444,0.46237220711596
9100.00000001557,230.836181785323,1.00000000017203,0.447042642624763
9200.00000001594,229.80531389636,1.00000000022069,0.477409983810469
9300.0000000163,228.68431444931,1.00000000031857,0.519043921790956
9400.00000001667,227.557069061326,1.00000000038754,0.544970458925904
9500.00000001703,226.462232020228,1.00000000038441,0.54943937745215
9600.00000001739,225.380096212918,1.00000000035899,0.525925944807832
9700.00000001776,224.245121408035,1.00000000026358,0.475134443157985
9800.00000001812,222.979249654482,1.0000000001482,0.4205684379654
9900.00000001848,221.556139224136,1.00000000013496,0.405461316477741
10000.0000000188,220.018825537926,1.00000000019955,0.447728888476517
10100.0000000192,218.442266935608,1.00000000031416,0.503322921714021
10200.0000000196,216.894785223695,1.00000000040116,0.539149470446224
10300.0000000199,215.415746532345,1.00000000042754,0.552415285966305
10400.0000000203,214.008997103305,1.00000000043078,0.547148099042885
10500.0000000207,212.641821034677,1.00000000036366,0.514768503628865
10600.000000021,211.2538316288,1.00000000025449,0.453281238586849
10700.0000000214,209.785517338406,1.00000000015569,0.385369728706425
10800.0000000218,208.21574275454,1.0000000001071,0.355582567485337
10900.0000000221,206.571282870648,1.00000000015889,0.388820032017353
11000.0000000225,204.900127971799,1.00000000027149,0.455165797925281
11100.0000000229,203.247085522444,1.00000000036567,0.50895877827171
11200.0000000232,201.64495434014,1.00000000043416,0.536445577750331
11300.0000000236,200.11220954208,1.00000000043665,0.545926017691679
11400.0000000239,198.650070284418,1.00000000043551,0.544183344708372
11500.0000000243,197.240999008074,1.0000000003857,0.525441602041115
11600.0000000247,195.851145552298,1.00000000033121,0.480507890655779
11700.000000025,194.442284388685,1.00000000021367,0.414917623349528
11800.0000000254,192.989212265214,1.00000000014808,0.352240538846626
11900.0000000258,191.490417685935,1.00000000011292,0.326634074996544
12000.0000000261,189.96442585872,1.00000000014648,0.351573380498529
12100.0000000265,188.435385964227,1.00000000023681,0.411904277219311
12200.0000000269,186.922108482934,1.00000000032316,0.470996955813392
12300.0000000272,185.436209387192,1.00000000039854,0.50729107108784
12400.0000000276,183.986665739914,1.00000000042675,0.522993272153935
12500.0000000279,182.58078983167,1.00000000043841,0.529915617058082
12600.0000000283,181.2209571411,1.0000000004208,0.533350364174158
12700.0000000287,179.901468428536,1.00000000039508,0.527801594014207
12800.000000029,178.609100459194,1.00000000035073,0.505326286377678
12900.0000000294,177.327164313099,1.00000000029436,0.46444395849384
13000.0000000298,176.042044309477,1.00000000022635,0.413332020800047
13100.0000000301,174.749201842263,1.00000000018716,0.366210344462884
13200.0000000305,173.454122302511,1.0000000001542,0.338289674369698
13300.0000000309,172.167765491188,1.00000000014991,0.342486555460341
13400.0000000312,170.899518492675,1.0000000001901,0.368871630239484
13500.0000000316,169.652976673697,1.00000000024224,0.413088915489819
13600.0000000319,168.426053635831,1.00000000030427,0.46134922430274
13700.0000000323,167.214556113979,1.00000000033148,0.495364177639509
13800.0000000327,166.016284706693,1.00000000033326,0.505636326445711
13900.000000033,164.831629770653,1.00000000036874,0.502623422741875
14000.0000000334,163.662313734898,1.00000000038536,0.503475570484974
14100.0000000338,162.510321139496,1.00000000040223,0.51532225024234
14200.0000000341,161.377326561618,1.0000000003805,0.529939826047327
14300.0000000345,160.263388501878,1.00000000038687,0.529929292300857
14400.0000000349,159.165883949111,1.0000000003299,0.5082150363706
14500.0000000352,158.081262687995,1.00000000024697,0.469167221082782
14600.0000000356,157.008892897304,1.00000000020765,0.42444686531607
14700.0000000359,155.953165725966,1.00000000016374,0.386103490976182
14800.0000000363,154.921565335807,1.00000000017179,0.362524664642606
14900.0000000367,153.920639409501,1.0000000001941,0.35523268083795
15000.000000037,152.954136379167,1.00000000021355,0.368606029715164
15100.0000000374,152.021693986631,1.00000000023734,0.395344198196711
15200.0000000378,151.118305760964,1.00000000025843,0.420509620234765
15300.0000000381,150.234782750251,1.00000000028906,0.446240195017085
15400.0000000385,149.361449575488,1.00000000033637,0.473481906180178
15500.0000000389,148.491961384188,1.00000000032253,0.49680733239765
15600.0000000392,147.626522084462,1.00000000029948,0.503744178492133
15700.0000000396,146.768459697206,1.00000000026417,0.491878031409411
15800.0000000399,145.919543884615,1.00000000027122,0.476241071883456
15900.0000000403,145.075867919107,1.00000000030997,0.473405063549659
16000.0000000407,144.230595743977,1.00000000036711,0.486894076948818
16100.000000041,143.379924555621,1.00000000042866,0.509609382207138
16200.0000000414,142.525683135776,1.00000000042897,0.529820195083725
16300.0000000418,141.672395469915,1.00000000038095,0.535773299115337
16400.0000000418,140.824935249703,1.00000000035103,0.526381684816783
16500.0000000404,139.988020652057,1.00000000031069,0.500692458300967
16600.0000000389,139.167162277485,1.00000000024615,0.46349015333703
16700.0000000375,138.371459726582,1.00000000018456,0.421865485617611
16800.000000036,137.611351385119,1.00000000014771,0.386613263762423
16900.0000000346,136.896236477451,1.00000000013883,0.363923060094227
17000.0000000331,136.227698798017,1.00000000017886,0.358186280524487
17100.0000000317,135.601171497595,1.00000000022499,0.367012779999084
17200.0000000302,135.007910037217,1.00000000027435,0.38506708633534
17300.0000000287,134.440960123257,1.00000000028333,0.409771131775025
17400.0000000273,133.892646570098,1.0000000003018,0.434321461603574
17500.0000000258,133.35541295919,1.00000000030442,0.45528353958802
17600.0000000244,132.821357462808,1.00000000032714,0.469873874790954
17700.0000000229,132.282949349434,1.00000000034175,0.483046246161543
17800.0000000215,131.737460968274,1.00000000033956,0.493960508087203
17900.00000002,131.184875167556,1.00000000032618,0.502469084480879
18000.0000000186,130.631684542701,1.00000000028905,0.503999980579007
18100.0000000171,130.084406234791,1.00000000024482,0.495831483656856
18200.0000000156,129.548901133946,1.00000000023806,0.484399212744887
18300.0000000142,129.024053535519,1.00000000024796,0.474965865278487
18400.0000000127,128.503584771613,1.00000000028907,0.469769433304316
18500.0000000113,127.977209436474,1.00000000034647,0.471080840825946
18600.0000000098,127.436450239888,1.00000000035242,0.482041046973963
18700.0000000084,126.876460287741,1.00000000039901,0.49469052586427
18800.0000000069,126.297639802866,1.00000000040711,0.510883248670373
18900.0000000055,125.704390169099,1.00000000042635,0.526414586372138
19000.000000004,125.103392392881,1.00000000039184,0.534517964948613
19100.0000000026,124.501684509814,1.00000000033421,0.530273367158538
19200.0000000011,123.906161892929,1.00000000028573,0.514428156220273
19299.9999999996,123.324824483617,1.00000000024788,0.488169440219851
19399.9999999982,122.76612718818,1.00000000023101,0.456014578030306
19499.9999999967,122.239769212257,1.00000000020082,0.42771343705196
19599.9999999953,121.754035616765,1.00000000017056,0.407321700559084
19699.9999999938,121.315656981437,1.00000000017857,0.391277192467531
19799.9999999924,120.928722395709,1.00000000018056,0.379087915883897
19899.9999999909,120.592625738243,1.00000000018937,0.373250407260195
19999.9999999895,120.300897483267,1.00000000023388,0.377843803376081
20099.999999988,120.041323941012,1.00000000026386,0.396657913793281
20199.9999999865,119.799593341007,1.00000000029102,0.421066989952384
20299.9999999851,119.564647231922,1.00000000031564,0.443132201066757
20399.9999999836,119.331682306581,1.00000000031909,0.458222068187671
20499.9999999822,119.101135675931,1.00000000030162,0.468219319971109
20599.9999999807,118.87516320459,1.00000000028525,0.473675163916888
20699.9999999793,118.655223853702,1.00000000026777,0.475558050313713
20799.9999999778,118.440144741553,1.00000000027265,0.478495144087747
20899.9999999764,118.224249117573,1.00000000031398,0.485479084945082
20999.9999999749,117.999296248798,1.00000000032661,0.496203622723789
21099.9999999734,117.757822862327,1.00000000033588,0.507561220994081
21199.999999972,117.494757814355,1.0000000003303,0.51734880084188
21299.9999999705,117.210016690379,1.00000000033434,0.524720485658626
21399.9999999691,116.908903080289,1.00000000031007,0.528940712567152
21499.9999999676,116.598515992998,1.00000000029222,0.528325660472426
21599.9999999662,116.286461493244,1.00000000027326,0.521205778725604
21699.9999999647,115.978253325396,1.00000000024528,0.511318544775704
21799.9999999633,115.675879891229,1.00000000025179,0.503262634336704
21899.9999999618,115.377908807752,1.00000000025842,0.498317583899108
21999.9999999603,115.081363591438,1.00000000026606,0.492319976270863
22099.9999999589,114.783027986358,1.0000000002827,0.485092936390531
22199.9999999574,114.478899250767,1.00000000030403,0.482629279546335
22299.999999956,114.165409305509,1.00000000032911,0.48565317015301
22399.9999999545,113.837222655228,1.00000000036846,0.494438540265105
22499.9999999531,113.489746342232,1.00000000040319,0.508145819254311
22599.9999999516,113.121745429697,1.00000000040909,0.52381440451625
22699.9999999502,112.736151415184,1.00000000042639,0.535588250056323
22799.9999999487,112.338358041432,1.0000000003971,0.541028203054552
22899.9999999473,111.934711581501,1.00000000037022,0.539883999045917
22999.9999999458,111.532232780271,1.0000000003329,0.530786436544315
23099.9999999443,111.138291610966,1.00000000027132,0.512438381536556
23199.9999999429,110.761049001745,1.00000000023542,0.488752674256177
23299.9999999414,110.409411230743,1.00000000021647,0.46550286350035
23399.99999994,110.092791312076,1.00000000017883,0.442114929128273
23499.9999999385,109.819347124174,1.00000000017138,0.422891622508384
23599.9999999371,109.594537803392,1.00000000016804,0.409959055852473
23699.9999999356,109.419402241787,1.00000000018046,0.399111612324631
23799.9999999342,109.290847446143,1.00000000021237,0.392544323363869
23899.9999999327,109.203911317954,1.00000000024353,0.392624825987549
23999.9999999312,109.152722493184,1.0000000002412,0.395829927698174
24099.9999999298,109.130821793338,1.00000000024811,0.40129419211656
24199.9999999283,109.13097811513,1.00000000027903,0.409091492966744
24299.9999999269,109.145463162165,1.00000000028618,0.420122687560548
24399.9999999254,109.165990665525,1.0000000003042,0.435045577497971
24499.999999924,109.184722490314,1.00000000032055,0.451456293414064
24599.9999999225,109.196387423851,1.00000000033541,0.463577426214295
24699.9999999211,109.198438549294,1.00000000031392,0.472821617149265
24799.9999999196,109.191450339498,1.00000000031751,0.4816331173754
24899.9999999181,109.177458907264,1.00000000031184,0.491725467877282
24999.9999999167,109.15942571135,1.00000000029783,0.500699784426029
25099.9999999152,109.140390995158,1.00000000028223,0.505955877883422
25199.9999999138,109.12336865623,1.00000000026155,0.508083077180483
25299.9999999123,109.110479053211,1.00000000025267,0.509300816259538
25399.9999999109,109.101441617794,1.0000000002732,0.5107244358802
25499.9999999094,109.092848832679,1.00000000028713,0.511707519751625
25599.999999908,109.078476174691,1.00000000027842,0.514656624907074
25699.9999999065,109.05107092682,1.00000000030784,0.517749866322465
25799.9999999051,109.005111773665,1.00000000032455,0.52179172218658
25899.9999999036,108.938010987111,1.00000000032959,0.524442580315723
25999.9999999021,108.84990750491,1.00000000033346,0.522562547248607
26099.9999999007,108.741197325525,1.00000000032263,0.517055576617695
26199.9999998992,108.612119945285,1.00000000033981,0.510681563104625
26299.9999998978,108.463507442736,1.00000000034475,0.511132480403066
26399.9999998963,108.297205684184,1.00000000033752,0.520169680733917
26499.9999998949,108.116682308836,1.00000000032536,0.529052757803785
26599.9999998934,107.926981104699,1.00000000031426,0.530194090494761
26699.999999892,107.733768603491,1.00000000028948,0.524891560027922
26799.9999998905,107.542219350794,1.00000000026745,0.51784498805549
26899.999999889,107.355811898578,1.0000000002632,0.513152347739327
26999.9999998876,107.1761444663,1.00000000025193,0.511964695845901
27099.9999998861,107.003424015631,1.00000000024241,0.512554714757866
27199.9999998847,106.836560983627,1.00000000024241,0.515199675540953
27299.9999998832,106.673020095948,1.00000000026588,0.517458941238578
27399.9999998818,106.509265242213,1.00000000027685,0.518428083080832
27499.9999998803,106.341957014271,1.00000000027766,0.518713054213643
27599.9999998789,106.168761918659,1.00000000030342,0.51963088862062
27699.9999998774,105.987967248413,1.00000000030437,0.518698443706959
27799.9999998759,105.798040186055,1.00000000032755,0.515545028787764
27899.9999998745,105.597404192585,1.00000000033735,0.511898973539911
27999.999999873,105.384512376347,1.0000000003475,0.509854729988869
28099.9999998716,105.157803367825,1.00000000037463,0.510318073993771
28199.9999998701,104.915936404274,1.00000000038906,0.51564985645221
28299.9999998687,104.65896562667,1.00000000038873,0.52357773279756
28399.9999998672,104.388656483591,1.00000000038964,0.531398978796058
28499.9999998658,104.108452241118,1.00000000038333,0.537000046860387
28599.9999998643,103.822836283312,1.00000000034835,0.539693417279955
28699.9999998629,103.536748561897,1.00000000033684,0.537548653063914
28799.9999998614,103.255277328963,1.00000000030028,0.528747916349742
28899.9999998599,102.983671399986,1.00000000026014,0.515105195824355
28999.9999998585,102.727724530441,1.00000000022841,0.500142855435779
