Time,AGPnorm,Energy,Entropy
0,0,1,9.34332730279332e-19
99.9999999999986,0.0102051636287685,0.999999999998983,0.0266564432142644
199.999999999993,0.0267480324328113,1.00000000000138,0.079107813862682
300,0.0526424417785482,1.00000000000317,0.160422167113723
400.000000000022,0.0792637729369358,1.00000000032207,0.290392369232794
500.000000000045,0.175309905068364,1.00000000179503,0.435498223068422
600.000000000068,0.731162936551868,1.00000000306933,0.526931121454137
700.000000000091,2.09989675667532,1.00000000386514,0.570708389118227
800.000000000113,4.13000633656868,1.00000000385465,0.590275788493764
900.000000000136,6.6066252868304,1.00000000336444,0.590824239031221
1000.00000000016,9.01676262499363,1.00000000311414,0.586379382204266
1100.0000000001,11.1740425944968,1.00000000313386,0.577108303043275
1200,12.836019908148,1.00000000288725,0.566305520212996
1299.99999999991,13.9809761420558,1.00000000250504,0.563863555111498
1399.99999999982,14.6212470839721,1.00000000245267,0.563577660096552
1499.99999999973,14.8298933096196,1.0000000019123,0.530553922506434
1599.99999999964,14.7780407605459,1.00000000202386,0.527490228972144
1699.99999999955,14.476725955665,1.00000000295575,0.581224125345313
1799.99999999946,14.078052601558,1.00000000133631,0.449595944132615
1899.99999999937,13.6104310972821,1.0000000031524,0.584140996517597
1999.99999999928,13.1291839963219,1.0000000013274,0.415029386698201
2099.99999999919,12.6079080563882,1.00000000326275,0.559874962179794
2199.99999999909,12.1485547241707,1.00000000210428,0.466766734814744
2299.999999999,11.6749864024215,1.00000000176216,0.447627344910961
2399.99999999891,11.2108619524779,1.00000000287611,0.550787430973281
2499.99999999882,10.7982096702812,1.00000000192788,0.492206003843399
2599.99999999873,10.4229183472849,1.00000000181431,0.422478541120529
2699.99999999864,10.0539584476692,1.00000000230256,0.511302966957404
2799.99999999855,9.70297952632885,1.00000000288608,0.536931088480727
2899.99999999846,9.37386810604561,1.00000000242234,0.528799055503363
2999.99999999837,9.11224305858326,1.00000000125338,0.410118988064914
3099.99999999828,8.88056041233459,1.00000000253904,0.497062175722046
3199.99999999819,8.64271851505965,1.00000000210999,0.52279126072274
3299.99999999809,8.41601682925343,1.00000000239665,0.546576609910686
3399.999999998,8.18350996290008,1.00000000295988,0.552438441778159
3499.99999999791,7.968174763966,1.0000000017034,0.509361387300565
3599.99999999782,7.83777955389925,1.00000000158732,0.432391467522634
3699.99999999773,7.75230248007809,1.00000000231141,0.489645314790674
3799.99999999764,7.64302250689982,1.00000000225187,0.538442707611698
3899.99999999755,7.53884589419011,1.00000000231681,0.555198097685913
3999.99999999746,7.41967027111042,1.00000000258916,0.577228121291698
4099.99999999738,7.29051713136385,1.00000000207937,0.569983244961983
4199.99999999775,7.15656991198701,1.00000000276302,0.572482939783264
4299.99999999811,7.01274973280732,1.00000000297671,0.578061881511697
4399.99999999848,6.89664950918278,1.00000000167785,0.509065142925987
4499.99999999884,6.87216440698113,1.00000000152533,0.454701073042166
4599.9999999992,6.90167004509384,1.00000000256138,0.497400212826538
4699.99999999957,6.9125893561847,1.00000000234741,0.529239841218639
4799.99999999993,6.9066696429669,1.00000000234931,0.569514883869221
4900.00000000029,6.88055936955138,1.00000000246601,0.58240237984392
5000.00000000066,6.84860185624138,1.0000000020487,0.590617179666166
5100.00000000102,6.8157479994554,1.00000000257295,0.591330221722132
5200.00000000139,6.76485014539672,1.00000000256051,0.583639957579455
5300.00000000175,6.69618270224439,1.00000000246075,0.594774671663429
5400.00000000211,6.62447762667908,1.00000000216567,0.603257788918456
5500.00000000248,6.54865783085906,1.00000000236593,0.604472603381933
5600.00000000284,6.4653034626359,1.00000000284099,0.616074487140642
5700.00000000321,6.37602721431864,1.00000000281162,0.597917460659561
5800.00000000357,6.28668484709303,1.00000000241154,0.57165067763435
5900.00000000393,6.24135520657673,1.0000000015853,0.504370694344239
6000.0000000043,6.28648911554276,1.00000000162151,0.479125376966567
6100.00000000466,6.395003380162,1.00000000218177,0.5045501499541
6200.00000000502,6.4947158641601,1.00000000254133,0.54127023747332
6300.00000000539,6.57655371442344,1.00000000256287,0.563262261233865
6400.00000000575,6.64121411155483,1.00000000247786,0.584397728916196
6500.00000000612,6.69065741562895,1.00000000242603,0.606963481014839
6600.00000000648,6.71577800719022,1.00000000242964,0.614828952771294
6700.00000000684,6.73133478500927,1.00000000232411,0.628116395595142
6800.00000000721,6.7318025916007,1.00000000253991,0.625030497131811
6900.00000000757,6.71302201171244,1.00000000270812,0.640432380551897
7000.00000000793,6.69560319189897,1.00000000228838,0.624345685024996
7100.0000000083,6.68773154628066,1.00000000216672,0.613739320885283
7200.00000000866,6.67688812676302,1.00000000259368,0.600445756878851
7300.00000000903,6.64926678823885,1.00000000247588,0.615679577693305
7400.00000000939,6.62519111465032,1.00000000228484,0.618915019659495
7500.00000000975,6.60040785803865,1.00000000257945,0.635949173362004
7600.00000001012,6.5703104848795,1.00000000231069,0.632070482404253
7700.00000001048,6.53732430887555,1.00000000250832,0.624620627364256
7800.00000001084,6.50592260715495,1.00000000241648,0.613039391139923
7900.00000001121,6.46296105506506,1.00000000287384,0.634817391727057
8000.00000001157,6.40955407640145,1.00000000252743,0.643145230945467
8100.00000001194,6.35052112639873,1.00000000238924,0.633488432803751
8200.0000000123,6.29212146739628,1.00000000232644,0.646561547459521
8300.00000001266,6.23371769280513,1.00000000278471,0.648634601570877
8400.00000001303,6.17658688997942,1.00000000280566,0.660350723066594
8500.00000001339,6.12322358980635,1.00000000296939,0.671549115446396
8600.00000001376,6.06693562981296,1.00000000306924,0.645277638417578
8700.00000001412,6.004888440859,1.0000000024584,0.602008778365891
8800.00000001448,5.95978752246224,1.00000000212073,0.553013101928724
8900.00000001485,5.96897539396835,1.00000000173064,0.517754322034786
9000.00000001521,6.05687648973209,1.00000000169625,0.504001813528125
9100.00000001557,6.20677402535992,1.00000000233023,0.511366744550803
9200.00000001594,6.38009895419686,1.00000000268424,0.532941974610418
9300.0000000163,6.54517873350493,1.00000000271445,0.553051341646204
9400.00000001667,6.69345135792532,1.00000000276413,0.564387557637768
9500.00000001703,6.83096404994663,1.00000000255159,0.575470505748482
9600.00000001739,6.94826355266868,1.00000000270557,0.593025269994751
9700.00000001776,7.05330371473317,1.00000000272055,0.596304225956496
9800.00000001812,7.14094479416296,1.00000000302683,0.625004310470121
9900.00000001848,7.21440162504309,1.00000000299544,0.63534462173786
10000.0000000188,7.27864242565182,1.0000000027648,0.610382894630811
10100.0000000192,7.32909335756565,1.00000000291833,0.639504106875285
10200.0000000196,7.36181537234907,1.00000000284406,0.659351297332546
10300.0000000199,7.38975285497171,1.00000000276579,0.655803708047571
10400.0000000203,7.41520829620299,1.00000000275577,0.636589963948515
10500.0000000207,7.43847222485673,1.00000000276929,0.645609486746321
10600.000000021,7.44954034448734,1.00000000298174,0.65947955863729
10700.0000000214,7.45959680364139,1.00000000272017,0.658920343090669
10800.0000000218,7.4654651464869,1.00000000290145,0.663901642529633
10900.0000000221,7.46100205510188,1.00000000289756,0.660658216585152
11000.0000000225,7.45554770917845,1.00000000314545,0.656464306750543
11100.0000000229,7.44608672185459,1.0000000028503,0.651041111840509
11200.0000000232,7.43447145224934,1.00000000304929,0.670841496059808
11300.0000000236,7.41707279712028,1.00000000295327,0.659944100156303
11400.0000000239,7.39579765790652,1.00000000294551,0.661696950479295
11500.0000000243,7.37659033638031,1.00000000292212,0.649349094979215
11600.0000000247,7.36151903640937,1.00000000287296,0.638629789930657
11700.000000025,7.36046151744607,1.00000000290491,0.612956066802192
11800.0000000254,7.3755787820165,1.00000000269134,0.612216606166039
11900.0000000258,7.39775573225217,1.00000000293741,0.622014254527581
12000.0000000261,7.41285805791914,1.00000000298345,0.618394664752636
12100.0000000265,7.42390109302868,1.00000000323345,0.631175358005619
12200.0000000269,7.42882866823608,1.00000000286065,0.62981505279071
12300.0000000272,7.44114787977894,1.00000000331017,0.64014238205964
12400.0000000276,7.44812835316365,1.00000000314221,0.624549480445965
12500.0000000279,7.4577679490466,1.00000000297048,0.649861397581409
12600.0000000283,7.47169649193605,1.00000000302517,0.658621477234288
12700.0000000287,7.48204574839056,1.00000000328013,0.667147230655001
12800.000000029,7.48442253307326,1.00000000336214,0.662904414363204
12900.0000000294,7.49055124710011,1.00000000285085,0.655474221785368
13000.0000000298,7.50262466918046,1.00000000324333,0.653621647461555
13100.0000000301,7.51922195957292,1.00000000317136,0.647372849405199
13200.0000000305,7.53915367150376,1.00000000313009,0.645704727693239
13300.0000000309,7.55374798885986,1.00000000335136,0.664833257064853
13400.0000000312,7.56210946780335,1.00000000318211,0.668706419060294
13500.0000000316,7.57651983520274,1.00000000310715,0.676469649263954
13600.0000000319,7.59559574398106,1.00000000340409,0.671747234018565
13700.0000000323,7.6125179030616,1.00000000332614,0.655956024699452
13800.0000000327,7.62878074622342,1.00000000336013,0.673281332027396
13900.000000033,7.63740920413798,1.00000000328365,0.672781788833359
14000.0000000334,7.65211849580216,1.00000000316882,0.66056110835809
14100.0000000338,7.66478344361152,1.00000000365623,0.683935684302084
14200.0000000341,7.67341375176119,1.00000000316327,0.688045582077292
14300.0000000345,7.68319078205685,1.00000000296634,0.670490513814207
14400.0000000349,7.69493036591057,1.00000000335649,0.676548752368682
14500.0000000352,7.69457203874593,1.00000000344451,0.654814276302938
14600.0000000356,7.69091365349489,1.00000000287612,0.664384007206892
14700.0000000359,7.69191754120924,1.00000000326284,0.667618263331058
14800.0000000363,7.69531057245681,1.00000000322094,0.6733604660577
14900.0000000367,7.70364417362613,1.00000000310645,0.67255434416736
15000.000000037,7.70394255528245,1.00000000369439,0.689232606173789
15100.0000000374,7.696752073063,1.00000000329483,0.675554838089148
15200.0000000378,7.69203397309473,1.00000000311313,0.670476019771159
15300.0000000381,7.6884758398305,1.00000000324351,0.676446174041375
15400.0000000385,7.68575208673285,1.00000000304218,0.674334148505975
15500.0000000389,7.67701100329888,1.00000000363055,0.679146370206824
15600.0000000392,7.65942101799936,1.00000000348883,0.670622616557128
15700.0000000396,7.6423238026479,1.00000000325601,0.668375711416245
15800.0000000399,7.62375266452392,1.00000000333955,0.677690691061256
15900.0000000403,7.59964434236336,1.00000000341281,0.691094257541972
16000.0000000407,7.56935662766656,1.00000000355765,0.689715884808871
16100.000000041,7.53659178856198,1.00000000342423,0.691403716421751
16200.0000000414,7.50300221743728,1.00000000333122,0.698073031951278
16300.0000000418,7.46803107277583,1.00000000322946,0.694417883952924
16400.0000000418,7.4343356127242,1.0000000034078,0.688059323921967
16500.0000000404,7.40279387107303,1.00000000345166,0.676885664385739
16600.0000000389,7.37376342941631,1.00000000332923,0.686659559877594
16700.0000000375,7.34990181888942,1.00000000389559,0.674508881488538
16800.000000036,7.32914822597151,1.00000000385402,0.681123968446221
16900.0000000346,7.31336641589848,1.00000000366762,0.692394628324498
17000.0000000331,7.30327653637933,1.00000000389858,0.698138966958042
17100.0000000317,7.29266848939037,1.00000000391043,0.700008524300775
17200.0000000302,7.2806223060378,1.0000000038177,0.68613403712538
17300.0000000287,7.26269071141582,1.00000000333844,0.656529341885568
17400.0000000273,7.23658155967855,1.00000000358054,0.634956601867911
17500.0000000258,7.20980813665014,1.00000000390703,0.609288595176653
17600.0000000244,7.19664662983437,1.00000000302368,0.587834327689468
17700.0000000229,7.2178581845714,1.00000000276805,0.578114505890314
17800.0000000215,7.28800578864782,1.00000000276275,0.56237991763732
17900.00000002,7.42559589662579,1.00000000294741,0.550448867086736
18000.0000000186,7.63159007677638,1.00000000271289,0.540468404986286
18100.0000000171,7.91909112579499,1.00000000298256,0.545926996156731
18200.0000000156,8.24728224977997,1.00000000283645,0.550757283541328
18300.0000000142,8.6359748621702,1.00000000340212,0.560288522184261
18400.0000000127,9.01431622790064,1.00000000360374,0.564926676572628
18500.0000000113,9.41893793349197,1.00000000396697,0.569322044706509
18600.0000000098,9.79948128004104,1.00000000354411,0.580033413659409
18700.0000000084,10.1819309190809,1.00000000369359,0.581621902483174
18800.0000000069,10.5530697077114,1.00000000357497,0.591635032176283
18900.0000000055,10.9158762384896,1.00000000352048,0.595994031760608
19000.000000004,11.279483742931,1.00000000372842,0.605951806534484
19100.0000000026,11.6234191060707,1.00000000340908,0.605783455443976
19200.0000000011,11.9750551116335,1.00000000388447,0.616714709071998
19299.9999999996,12.2995905563855,1.00000000332162,0.625341506802835
19399.9999999982,12.6233678822152,1.00000000392198,0.639839780720975
19499.9999999967,12.9343723628023,1.000000003819,0.656885218815754
19599.9999999953,13.2295195445227,1.00000000426283,0.659611137441202
19699.9999999938,13.5209269898623,1.00000000374042,0.668530259014484
19799.9999999924,13.7871168459364,1.00000000393356,0.658736828473556
19899.9999999909,14.0469444511603,1.00000000359818,0.677295449149752
19999.9999999895,14.2827235989422,1.00000000348335,0.664726878326583
20099.999999988,14.5114744718413,1.00000000348081,0.665306219710811
20199.9999999865,14.7204564293332,1.00000000382416,0.67425982113543
20299.9999999851,14.9162345988958,1.00000000404242,0.681691061669774
20399.9999999836,15.1132367430622,1.00000000367722,0.68942777216422
20499.9999999822,15.2915020570885,1.00000000379881,0.689089671978104
20599.9999999807,15.4571843595843,1.00000000377561,0.691853078913699
20699.9999999793,15.6131577811244,1.00000000361026,0.679302321346847
20799.9999999778,15.7730191674468,1.00000000362885,0.679600964375261
20899.9999999764,15.9237631052754,1.00000000387226,0.703200837623287
20999.9999999749,16.064009905555,1.00000000349485,0.702494694231043
21099.9999999734,16.1990234730642,1.00000000386429,0.693439362678617
21199.999999972,16.3130692379345,1.00000000424024,0.690902884054006
21299.9999999705,16.4188447848304,1.00000000388107,0.716004176667653
21399.9999999691,16.5282278072907,1.00000000391935,0.703291074874917
21499.9999999676,16.6637892634195,1.00000000363258,0.689290331595036
21599.9999999662,16.8090420194968,1.00000000398651,0.692510835763518
21699.9999999647,16.9407061844195,1.00000000452577,0.697816275527638
21799.9999999633,17.0507024137852,1.00000000447182,0.713742209278157
21899.9999999618,17.1479254338106,1.00000000380354,0.698406459380744
21999.9999999603,17.2532735989347,1.00000000353423,0.678065306900973
22099.9999999589,17.3730807253082,1.00000000365856,0.685076449240341
22199.9999999574,17.4954354847122,1.00000000434659,0.68821919163139
22299.999999956,17.6128249753552,1.00000000421205,0.691420399515454
22399.9999999545,17.7202356718238,1.00000000464655,0.710621981678568
22499.9999999531,17.823736962205,1.00000000429916,0.705582176600909
22599.9999999516,17.9340235250057,1.00000000420903,0.710719027962929
22699.9999999502,18.05704926507,1.00000000393434,0.689660287691184
22799.9999999487,18.1769402224487,1.0000000042809,0.702584977076056
22899.9999999473,18.2932531579395,1.00000000435074,0.693799884222644
22999.9999999458,18.3995387860058,1.00000000426785,0.699567687541838
23099.9999999443,18.5047651023174,1.00000000415486,0.684580293858733
23199.9999999429,18.6222051601104,1.00000000385359,0.689392776780797
23299.9999999414,18.7391547640568,1.0000000040025,0.706943108381015
23399.99999994,18.8613861419208,1.00000000410087,0.693533806269667
23499.9999999385,18.9854117137211,1.00000000397859,0.705626298554703
23599.9999999371,19.1030211240679,1.00000000411256,0.705197003149973
23699.9999999356,19.217827078146,1.00000000419238,0.699972404048668
23799.9999999342,19.3313799674413,1.00000000429322,0.699501042681082
23899.9999999327,19.4509672190699,1.00000000489152,0.697871783376548
23999.9999999312,19.5686411512309,1.00000000446994,0.69880451421232
24099.9999999298,19.6882046317503,1.00000000449024,0.684792927370219
24199.9999999283,19.817973468928,1.00000000443165,0.672664531452158
24299.9999999269,19.9517529703293,1.00000000447405,0.674963142045575
24399.9999999254,20.0879527073608,1.00000000461834,0.691687079102486
24499.999999924,20.2082468324894,1.00000000425325,0.691680921223234
24599.9999999225,20.334277393084,1.00000000379873,0.680048290358595
24699.9999999211,20.4624817442759,1.00000000448415,0.712794715460948
24799.9999999196,20.5817978738235,1.00000000518016,0.693935458161255
24899.9999999181,20.6960489441785,1.00000000469399,0.694858671894011
24999.9999999167,20.8100278271918,1.00000000420218,0.69742388372983
25099.9999999152,20.936918997754,1.00000000418237,0.684777006218507
25199.9999999138,21.074746401205,1.00000000413206,0.686089190645745
25299.9999999123,21.2182165252186,1.000000004102,0.681128552195563
25399.9999999109,21.3540843410214,1.00000000419532,0.699924100594669
25499.9999999094,21.4820103139039,1.0000000042867,0.69987111928145
25599.999999908,21.5984303160672,1.00000000457422,0.69158239133346
25699.9999999065,21.7063054352143,1.00000000454166,0.70890565152413
25799.9999999051,21.817595805878,1.00000000414937,0.712518585593409
25899.9999999036,21.9403952557934,1.0000000042498,0.705580878773411
25999.9999999021,22.0826286667255,1.00000000447067,0.690230360299231
26099.9999999007,22.2374731501133,1.00000000473891,0.700075712219865
26199.9999998992,22.4084046421527,1.0000000040313,0.695863622482094
26299.9999998978,22.5956662887529,1.00000000475011,0.698102689447564
26399.9999998963,22.7918349434139,1.00000000449802,0.704579484241096
26499.9999998949,22.9885335234669,1.00000000436779,0.708067565379308
26599.9999998934,23.1748938178258,1.00000000467369,0.709095544668599
26699.999999892,23.3584330465485,1.00000000477068,0.7026510829693
26799.9999998905,23.5431243461267,1.00000000453231,0.703421678515191
26899.999999889,23.7239545717797,1.0000000044958,0.702159812601027
26999.9999998876,23.9053143778425,1.0000000047212,0.698885442700725
27099.9999998861,24.0758254077957,1.00000000453705,0.708617176068683
27199.9999998847,24.2536999507045,1.00000000407387,0.695606057393847
27299.9999998832,24.4389898370021,1.00000000436314,0.699475340287292
27399.9999998818,24.6160617176826,1.00000000459212,0.69674834273532
27499.9999998803,24.7927537070327,1.0000000042612,0.691185378031679
27599.9999998789,24.9790921126342,1.00000000440577,0.67856472135259
27699.9999998774,25.1784081314643,1.00000000444273,0.671467914168461
27799.9999998759,25.3793304585159,1.00000000435631,0.688594386246525
27899.9999998745,25.566568706217,1.00000000506376,0.697063140300236
27999.999999873,25.7442960047565,1.00000000448371,0.694975718445976
28099.9999998716,25.9358974003607,1.0000000042354,0.687705212417289
28199.9999998701,26.1370116880251,1.00000000443275,0.693740672455112
28299.9999998687,26.3437734465867,1.00000000491623,0.698641536352472
28399.9999998672,26.5390251425888,1.00000000460647,0.715607878705348
28499.9999998658,26.7191831375537,1.00000000534316,0.706671003250306
28599.9999998643,26.8985763668768,1.00000000452096,0.693055861134005
28699.9999998629,27.0944065815001,1.00000000411653,0.684815070190095
28799.9999998614,27.3119144495697,1.00000000424951,0.682681212036124
28899.9999998599,27.5330777344967,1.00000000512015,0.698999275733821
28999.9999998585,27.7416594769698,1.00000000501351,0.707050724823635
29099.999999857,27.9332807281714,1.00000000514518,0.706080330827534
