Time,AGPnorm,Energy,Entropy
0,0,1,-1.27336203526642e-17
99.9999999999986,4.04331636844697e-05,0.999999999999456,0.00155521884107787
199.999999999993,0.00362321591694609,0.999999999997768,0.00255658780113988
300,0.00888048410110923,1.00000000000099,0.00446568662037989
400.000000000022,0.0121860923292728,0.999999999997787,0.00757133356017185
500.000000000045,0.0149025988646993,0.999999999999366,0.0103356232362558
600.000000000068,0.0214153495851427,1.00000000000015,0.0141296074586617
700.000000000091,0.0266899682837058,0.999999999997343,0.0182118974503621
800.000000000113,0.033555328612112,1.00000000000093,0.0224410536108737
900.000000000136,0.0419333759377013,0.999999999998309,0.0273944134531491
1000.00000000016,0.0490011282260389,0.999999999998623,0.0324449846776685
1100.0000000001,0.058118905759315,1.00000000000074,0.0378346752870049
1200,0.0679255587532579,0.999999999997212,0.0437738704589859
1299.99999999991,0.0775360659837749,1.00000000000053,0.0498619552717162
1399.99999999982,0.0886374955829003,0.999999999999016,0.0563616838935839
1499.99999999973,0.0993815161590691,0.999999999997941,0.0633188666864438
1599.99999999964,0.110459320603915,1.00000000000108,0.0704622576463515
1699.99999999955,0.122618496419755,0.999999999997406,0.0782166915363501
1799.99999999946,0.134269442719933,0.999999999999907,0.0863855085010655
1899.99999999937,0.146768427411863,0.999999999999786,0.0948674948935969
1999.99999999928,0.159626106239442,0.99999999999742,0.104171412293717
2099.99999999919,0.171675368493705,1.00000000000108,0.113856044554157
2199.99999999909,0.184724884828984,0.9999999999979,0.124363613835026
2299.999999999,0.197381619339739,0.999999999999429,0.135872582228894
2399.99999999891,0.210173369676653,1.00000000000097,0.148191081746023
2499.99999999882,0.223028622168151,0.999999999999276,0.162222312119271
2599.99999999873,0.235399117532042,1.00000000000767,0.177701516120914
2699.99999999864,0.248199089702171,1.0000000000171,0.194905505740394
2799.99999999855,0.259866244738042,1.00000000004193,0.213887478672338
2899.99999999846,0.275828682527728,1.000000000077,0.233425537195484
2999.99999999837,0.287437380864834,1.00000000011944,0.25356957139274
3099.99999999828,0.307685676742036,1.00000000018417,0.273518193146663
3199.99999999819,0.340962384931093,1.0000000002611,0.292914226384668
3299.99999999809,0.379268621812476,1.00000000033815,0.312374464381673
3399.999999998,0.458093997919582,1.00000000042243,0.330714089016266
3499.99999999791,0.566937298379776,1.00000000048857,0.348640504724825
3599.99999999782,0.726743668750366,1.00000000058565,0.366085778108883
3699.99999999773,0.97266600345635,1.00000000064725,0.382264908201852
3799.99999999764,1.29207930221199,1.00000000070465,0.398419513845426
3899.99999999755,1.72632898232904,1.00000000080411,0.413294602170449
3999.99999999746,2.29735713796721,1.00000000087336,0.427150856550868
4099.99999999738,2.99910492061934,1.00000000088242,0.441204389683645
4199.99999999775,3.87872629030013,1.00000000097921,0.453336587695704
4299.99999999811,4.94080533574266,1.00000000097581,0.465496806055153
4399.99999999848,6.17972567302162,1.00000000107277,0.476643220594421
4499.99999999884,7.64727268559632,1.00000000105963,0.486702221672144
4599.9999999992,9.31708731269943,1.0000000011109,0.496808674541369
4699.99999999957,11.1990047749449,1.00000000110806,0.505849644733908
4799.99999999993,13.3331762730447,1.00000000118254,0.513718830859031
4900.00000000029,15.6595241203054,1.00000000115028,0.522141499372816
5000.00000000066,18.22531148676,1.00000000121774,0.528696860579781
5100.00000000102,21.0201597769973,1.00000000119935,0.535636855623751
5200.00000000139,23.9932339888835,1.00000000128845,0.541799646580378
5300.00000000175,27.2107961050981,1.00000000127062,0.54699814151229
5400.00000000211,30.595636623554,1.00000000129265,0.552719317850265
5500.00000000248,34.1571169090458,1.00000000119715,0.557482951728038
5600.00000000284,37.9221612688808,1.00000000123366,0.561484083288944
5700.00000000321,41.7958694489156,1.00000000131266,0.565832633244151
5800.00000000357,45.8437130187186,1.00000000121577,0.56911093106152
5900.00000000393,50.0101019687511,1.00000000120905,0.5728689276492
6000.0000000043,54.2588869063543,1.00000000122034,0.576026474681245
6100.00000000466,58.6465151885391,1.00000000123558,0.577971728201359
6200.00000000502,63.0695050973715,1.00000000122542,0.581182595096503
6300.00000000539,67.5700137680385,1.00000000120075,0.582950255074503
6400.00000000575,72.1290624613585,1.00000000120008,0.584917244869562
6500.00000000612,76.6805217139187,1.00000000120132,0.587107618067622
6600.00000000648,81.2896926415752,1.0000000011486,0.587965135494535
6700.00000000684,85.8715620538114,1.00000000114005,0.589864029483796
6800.00000000721,90.4390734753513,1.00000000110808,0.590907613666861
6900.00000000757,95.0044588323703,1.00000000116401,0.591290362856022
7000.00000000793,99.4935302138662,1.0000000011279,0.592906291360442
7100.0000000083,103.963146332244,1.0000000010854,0.59308400882921
7200.00000000866,108.358122376271,1.00000000104813,0.593806202086479
7300.00000000903,112.668116001722,1.00000000105444,0.594536263820322
7400.00000000939,116.9238797839,1.00000000106817,0.594081152252139
7500.00000000975,121.057260388386,1.0000000010665,0.59506076395265
7600.00000001012,125.112352921052,1.00000000104544,0.594346430556979
7700.00000001048,129.059275111482,1.00000000102212,0.595159494707124
7800.00000001084,132.875756862413,1.0000000010039,0.594773605388986
7900.00000001121,136.59972633211,1.00000000097141,0.59481389294037
8000.00000001157,140.176883934648,1.00000000097977,0.5946685747788
8100.00000001194,143.637580447673,1.00000000096824,0.594849148207484
8200.0000000123,146.970289310641,1.00000000092233,0.593786900639443
8300.00000001266,150.151778424804,1.00000000093613,0.594793876137639
8400.00000001303,153.216067279684,1.00000000090547,0.592778164032554
8500.00000001339,156.127040495662,1.00000000093745,0.593858920975927
8600.00000001376,158.900158873277,1.00000000088784,0.592159366259877
8700.00000001412,161.53961746682,1.00000000090239,0.592895766671541
8800.00000001448,164.020072992841,1.00000000084999,0.591513793958664
8900.00000001485,166.374463265863,1.00000000085347,0.592019377006182
9000.00000001521,168.577438759658,1.00000000084283,0.590158231966067
9100.00000001557,170.637340589744,1.00000000082314,0.59148884437432
9200.00000001594,172.56726217132,1.00000000079724,0.589349732507636
9300.0000000163,174.342204627201,1.00000000080392,0.590035601927179
9400.00000001667,175.994049070442,1.00000000080948,0.589035140459497
9500.00000001703,177.502922963069,1.00000000076649,0.588477688566238
9600.00000001739,178.876718756009,1.00000000074414,0.589190297539486
9700.00000001776,180.127594009187,1.00000000075332,0.587724482686553
9800.00000001812,181.238964346992,1.00000000076585,0.587569683474518
9900.00000001848,182.233377672965,1.00000000071544,0.587545238033999
10000.0000000188,183.103895317559,1.00000000073093,0.587814614724302
10100.0000000192,183.851491773766,1.00000000072472,0.585565640196807
10200.0000000196,184.489376954769,1.00000000072499,0.588055394609375
10300.0000000199,185.01177364301,1.0000000007336,0.587752535703609
10400.0000000203,185.430406958609,1.00000000067897,0.583121011823424
10500.0000000207,185.742117142644,1.00000000069176,0.587728361049384
10600.000000021,185.956328796004,1.00000000069889,0.587448550244135
10700.0000000214,186.080531113661,1.00000000066387,0.580480647929968
10800.0000000218,186.104847254062,1.00000000066634,0.585190531936712
10900.0000000221,186.054170873515,1.00000000071097,0.586957243369078
11000.0000000225,185.925674873311,1.00000000065976,0.579373603334859
11100.0000000229,185.712534760693,1.00000000064129,0.578534747669699
11200.0000000232,185.434293765438,1.00000000070178,0.585180000720404
11300.0000000236,185.092883523095,1.00000000070055,0.582353270088774
11400.0000000239,184.690464294343,1.00000000060419,0.572521572073717
11500.0000000243,184.220347636358,1.00000000066732,0.577252932118762
11600.0000000247,183.700711186169,1.0000000007261,0.585411577970316
11700.000000025,183.145784867256,1.00000000067216,0.576449313496636
11800.0000000254,182.531582840737,1.00000000059093,0.5617339612849
11900.0000000258,181.869710474952,1.00000000070996,0.579935949866718
12000.0000000261,181.184422347914,1.00000000075545,0.582831604856784
12100.0000000265,180.468644450176,1.00000000064937,0.568754367999133
12200.0000000269,179.709693859274,1.00000000059093,0.554415771203315
12300.0000000272,178.911207976034,1.00000000074349,0.579865403127476
12400.0000000276,178.103052279467,1.00000000077539,0.580773876003323
12500.0000000279,177.280743750491,1.00000000066868,0.565684596625502
12600.0000000283,176.421646298975,1.00000000058516,0.548557582762736
12700.0000000287,175.536039900201,1.000000000713,0.568653736716202
12800.000000029,174.642953926922,1.00000000081254,0.582775918914963
12900.0000000294,173.749166916697,1.00000000070632,0.566256867696697
13000.0000000298,172.837317922886,1.00000000061378,0.548911005387998
13100.0000000301,171.896172407228,1.00000000062514,0.546839334626871
13200.0000000305,170.948563325102,1.00000000076849,0.579551142501469
13300.0000000309,170.00808941368,1.0000000008538,0.572765955752915
13400.0000000312,169.065846186897,1.00000000067186,0.552962817816506
13500.0000000316,168.110150627845,1.00000000062455,0.54112448570037
13600.0000000319,167.135923797435,1.00000000062367,0.545321329244457
13700.0000000323,166.164922416117,1.00000000088219,0.581173984036524
13800.0000000327,165.206200307615,1.00000000080237,0.563654474674554
13900.000000033,164.247525676511,1.0000000006674,0.54461946155002
14000.0000000334,163.283078903813,1.00000000065218,0.541101609501868
14100.0000000338,162.30719663072,1.00000000063658,0.539100084917284
14200.0000000341,161.335114903807,1.00000000083351,0.570605267977686
14300.0000000345,160.375884211624,1.00000000083916,0.566974528606094
14400.0000000349,159.422009812661,1.00000000066592,0.537788315092528
14500.0000000352,158.469237506255,1.00000000069725,0.541541149250217
14600.0000000356,157.511416097912,1.00000000066237,0.538990488391682
14700.0000000359,156.555161459533,1.00000000072783,0.548346123256412
14800.0000000363,155.606980968087,1.00000000083327,0.565601220852819
14900.0000000367,154.669470258092,1.00000000080548,0.550733443140333
15000.000000037,153.738796786463,1.00000000068612,0.530373428537896
15100.0000000374,152.809137008622,1.00000000070523,0.539248167119696
15200.0000000378,151.882949501714,1.00000000069193,0.544441893346839
15300.0000000381,150.960621279183,1.00000000071647,0.543062335229398
15400.0000000385,150.045367326869,1.00000000077874,0.553001883054384
15500.0000000389,149.140362872268,1.0000000007775,0.547286346011294
15600.0000000392,148.242306828097,1.00000000074065,0.531635936544017
15700.0000000396,147.350657826857,1.00000000066318,0.532605491402303
15800.0000000399,146.463979721669,1.00000000071291,0.546846115951716
15900.0000000403,145.583000571025,1.00000000075971,0.545321774651117
16000.0000000407,144.709577060704,1.00000000072535,0.537254012748609
16100.000000041,143.843149269076,1.00000000075566,0.540528722041946
16200.0000000414,142.985021392707,1.00000000079461,0.541999093337655
16300.0000000418,142.135327554799,1.00000000069957,0.529912787741675
16400.0000000418,141.292488605402,1.00000000071798,0.535476017784589
16500.0000000404,140.457737557661,1.00000000073237,0.549611618622074
16600.0000000389,139.629758637037,1.00000000071865,0.545296830744972
16700.0000000375,138.809168733579,1.00000000068166,0.534248064828732
16800.000000036,137.996321566187,1.00000000069897,0.531992046085851
16900.0000000346,137.191052221101,1.00000000074871,0.538615430205233
17000.0000000331,136.394283516041,1.0000000007211,0.539017331393388
17100.0000000317,135.605671785428,1.00000000070702,0.536666557502249
17200.0000000302,134.825666892089,1.00000000069311,0.543043721092011
17300.0000000287,134.054050099384,1.00000000072461,0.549224252594888
17400.0000000273,133.289925763816,1.00000000070624,0.540925312216488
17500.0000000258,132.533951071027,1.00000000069093,0.531508432618624
17600.0000000244,131.786142211474,1.00000000070335,0.528190724595574
17700.0000000229,131.046609519091,1.00000000070481,0.536469567442629
17800.0000000215,130.315548714768,1.0000000007728,0.546282187851856
17900.00000002,129.592372873594,1.00000000074284,0.544621658272559
18000.0000000186,128.877742871015,1.00000000071164,0.541469810912903
18100.0000000171,128.171529312667,1.00000000072334,0.548141847608712
18200.0000000156,127.474117593086,1.00000000067375,0.546050406351072
18300.0000000142,126.785688579088,1.00000000061945,0.530723461780935
18400.0000000127,126.106096976924,1.00000000069554,0.526642581666343
18500.0000000113,125.435298009695,1.00000000069755,0.53071209857585
18600.0000000098,124.772971339486,1.00000000073238,0.537836666734864
18700.0000000084,124.118249808574,1.00000000073286,0.548333786399489
18800.0000000069,123.471131848415,1.0000000007212,0.548260661897913
18900.0000000055,122.831556679905,1.00000000076609,0.545443954539853
19000.000000004,122.199508189773,1.00000000075345,0.548914350607823
19100.0000000026,121.576022032242,1.00000000071834,0.545387036467127
19200.0000000011,120.962638696409,1.00000000062094,0.531171853906094
19299.9999999996,120.360094738733,1.00000000061241,0.52004639283484
19399.9999999982,119.767046750136,1.00000000071766,0.527083583462534
19499.9999999967,119.181163303878,1.00000000076402,0.534274119846012
19599.9999999953,118.602744435354,1.00000000070071,0.533098985930639
19699.9999999938,118.031330176406,1.00000000071793,0.544763895364112
19799.9999999924,117.465691458286,1.00000000072193,0.552428597740181
19899.9999999909,116.906086732496,1.00000000075067,0.550331118376715
19999.9999999895,116.352288070971,1.00000000073184,0.548124298260794
20099.999999988,115.805843075399,1.00000000070492,0.54492294887442
20199.9999999865,115.270051768283,1.00000000060974,0.529505482893193
20299.9999999851,114.7462134716,1.00000000060379,0.523735664124762
20399.9999999836,114.233467892993,1.00000000067753,0.517868154610232
20499.9999999822,113.728069875249,1.00000000075944,0.52657052443435
20599.9999999807,113.22846336716,1.00000000075985,0.528990836881862
20699.9999999793,112.735203014856,1.00000000073376,0.529213494337025
20799.9999999778,112.247396535114,1.00000000077846,0.535870569069269
20899.9999999764,111.763017834605,1.00000000075389,0.548498254964334
20999.9999999749,111.281515394384,1.00000000077569,0.557024130463599
21099.9999999734,110.804460180955,1.00000000077324,0.545864711882615
21199.999999972,110.333341959597,1.00000000070957,0.540417458409598
21299.9999999705,109.870895522411,1.00000000064874,0.533184897183373
21399.9999999691,109.420237692887,1.00000000065468,0.525996514617727
21499.9999999676,108.981343802636,1.00000000064784,0.525473880224488
21599.9999999662,108.551769194457,1.00000000070815,0.522232688522081
21699.9999999647,108.129480275122,1.00000000076118,0.52041743602028
21799.9999999633,107.711802833692,1.00000000074286,0.524212588219293
21899.9999999618,107.298898772302,1.00000000072704,0.525161119521824
21999.9999999603,106.890558731961,1.00000000072424,0.52963935264135
22099.9999999589,106.483975001403,1.00000000082106,0.538180939697691
22199.9999999574,106.077671553859,1.00000000078863,0.549022258760897
22299.999999956,105.672411639924,1.00000000076314,0.553215683510157
22399.9999999545,105.271812421139,1.00000000070129,0.54021290997933
22499.9999999531,104.878018658308,1.00000000070983,0.53593904737866
22599.9999999516,104.492188929842,1.00000000068665,0.53535826302169
22699.9999999502,104.117171747701,1.00000000065504,0.530138007350689
22799.9999999487,103.75213725218,1.00000000070021,0.530579688477823
22899.9999999473,103.396192295674,1.00000000069655,0.528811919417964
22999.9999999458,103.048193808372,1.00000000070452,0.524731498814951
23099.9999999443,102.706469748221,1.00000000071279,0.520205976938796
23199.9999999429,102.369920364487,1.00000000076125,0.525074862459586
23299.9999999414,102.036155428106,1.00000000073596,0.527714739785791
23399.99999994,101.704576774743,1.00000000075163,0.534520277079285
23499.9999999385,101.373193329711,1.00000000075913,0.538046807409235
23599.9999999371,101.040583185842,1.00000000078956,0.538300834767608
23699.9999999356,100.708386716541,1.00000000077311,0.545735136581928
23799.9999999342,100.378696779455,1.00000000075428,0.547677787304963
23899.9999999327,100.05426699721,1.00000000069152,0.540158378545707
23999.9999999312,99.7371738881609,1.00000000068127,0.535860780373419
24099.9999999298,99.427502357352,1.00000000068351,0.539847463320343
24199.9999999283,99.1259097254053,1.00000000071107,0.538863179704841
24299.9999999269,98.8328033291995,1.00000000070276,0.534603561608568
24399.9999999254,98.5483559292654,1.00000000069538,0.530332684805159
24499.999999924,98.2722195547434,1.00000000068745,0.531377195164644
24599.9999999225,98.0023936673525,1.00000000071977,0.528212694996499
24699.9999999211,97.7376130243175,1.00000000072724,0.529731446466236
24799.9999999196,97.4757197721205,1.00000000071721,0.531320869183334
24899.9999999181,97.2164439783043,1.00000000072672,0.53370169071728
24999.9999999167,96.9589201688523,1.00000000073257,0.538635216915352
25099.9999999152,96.701587390533,1.00000000076247,0.536901839430096
25199.9999999138,96.4435952197425,1.0000000007979,0.537363296783129
25299.9999999123,96.183907490296,1.00000000078779,0.539178056579945
25399.9999999109,95.9248424962035,1.00000000070116,0.544668050460243
25499.9999999094,95.6693520231904,1.00000000070824,0.546106624424924
25599.999999908,95.4181616266187,1.00000000069709,0.546221581999223
25699.9999999065,95.1716677919539,1.00000000072677,0.546648523136033
25799.9999999051,94.9311535717025,1.00000000072275,0.544194123545559
25899.9999999036,94.6970833520247,1.00000000073493,0.543243591588295
25999.9999999021,94.4708002621273,1.00000000068913,0.535975668778178
26099.9999999007,94.2539139361351,1.00000000064789,0.530053915241105
26199.9999998992,94.0461209745892,1.00000000068698,0.533806611115525
26299.9999998978,93.8436094556921,1.0000000007276,0.539504167490494
26399.9999998963,93.6438034149624,1.00000000076143,0.537725526353146
26499.9999998949,93.4467108532743,1.00000000073049,0.534530187795528
26599.9999998934,93.2525541039653,1.00000000070505,0.534841586628195
26699.999999892,93.061017086389,1.00000000072439,0.538508660515339
26799.9999998905,92.8709410312975,1.00000000073803,0.542827302080351
26899.999999889,92.681841738525,1.00000000075331,0.542658918438674
26999.9999998876,92.4930538297831,1.00000000073026,0.539715682272797
27099.9999998861,92.3026495576427,1.00000000077623,0.540444905497149
27199.9999998847,92.1106440611734,1.00000000075276,0.53963020450782
27299.9999998832,91.9185791006168,1.00000000076041,0.547145619448844
27399.9999998818,91.7274560818258,1.00000000074249,0.555715316457071
27499.9999998803,91.5382037470678,1.00000000072194,0.555824253937909
27599.9999998789,91.3514934136977,1.00000000076413,0.55407176174247
27699.9999998774,91.1681163623595,1.00000000072316,0.54993934331767
27799.9999998759,90.9897881343604,1.00000000068271,0.544937375482146
27899.9999998745,90.8175330561005,1.00000000069515,0.542948553818644
27999.999999873,90.652999553903,1.00000000067785,0.535793574021354
28099.9999998716,90.4970252385987,1.00000000065395,0.535717673412974
28199.9999998701,90.3488720746784,1.00000000070111,0.538528033101076
28299.9999998687,90.2050297042711,1.00000000073936,0.543585268069809
28399.9999998672,90.0629153164664,1.00000000078766,0.543775204181323
28499.9999998658,89.9224343629889,1.00000000074353,0.541968902677643
28599.9999998643,89.7831507134623,1.00000000073264,0.54201020335907
28699.9999998629,89.6466700723901,1.0000000007338,0.542108793208605
28799.9999998614,89.5117218414444,1.00000000075026,0.545451495788739
28899.9999998599,89.3770534217692,1.0000000007486,0.550717986562719
