Time,AGPnorm,Energy,Entropy
0,0,1,-1.55366185435023e-17
99.9999999999986,4.70105382617551e-05,0.99999999999757,0.00177067348266817
199.999999999993,0.00414387543108407,0.999999999999479,0.00288310087804507
300,0.010062786866898,0.999999999999097,0.00495455780107766
400.000000000022,0.0138564099523076,0.999999999997829,0.00849180171611373
500.000000000045,0.0168760851889561,1.00000000000001,0.0113713536566637
600.000000000068,0.0242379886935654,0.999999999997929,0.0156448585197358
700.000000000091,0.0299451605086872,0.999999999998892,0.0201399491647987
800.000000000113,0.0378702608620424,0.999999999999637,0.0246221003254678
900.000000000136,0.0473428617919429,0.999999999997657,0.0302583946677939
1000.00000000016,0.0546831894882268,0.999999999999721,0.0356158615933801
1100.0000000001,0.0647193646383965,0.999999999998475,0.0415893897657862
1200,0.0756270248910404,0.999999999998386,0.0482120151727414
1299.99999999991,0.0866898539070675,0.999999999999911,0.0546950432045584
1399.99999999982,0.0989330986792451,0.99999999999774,0.06210120090305
1499.99999999973,0.109908199492845,0.999999999999234,0.0696440174293129
1599.99999999964,0.121914399554171,0.99999999999909,0.0775377528525184
1699.99999999955,0.135454513516231,0.999999999998087,0.0863785687948845
1799.99999999946,0.148358483446884,0.999999999999873,0.0952968379613293
1899.99999999937,0.161643371666279,0.999999999998029,0.105062003435647
1999.99999999928,0.174872492851816,0.999999999998673,0.115570718891404
2099.99999999919,0.18796643252549,0.999999999999653,0.126581867250881
2199.99999999909,0.202246080601342,0.9999999999982,0.139169593130843
2299.999999999,0.215419139010258,1.00000000000066,0.15262425725385
2399.99999999891,0.228643448650462,1.00000000000194,0.167799092230479
2499.99999999882,0.241405577835597,1.00000000001055,0.185202783717221
2599.99999999873,0.255587058537802,1.00000000003094,0.204033372787088
2699.99999999864,0.269649729036542,1.00000000006292,0.224750607461402
2799.99999999855,0.280877864013539,1.00000000012071,0.245787265330617
2899.99999999846,0.304864688891137,1.00000000018578,0.266685865052421
2999.99999999837,0.323866890732575,1.0000000002721,0.287845280116609
3099.99999999828,0.364943657400411,1.00000000034236,0.308060733710572
3199.99999999819,0.436370744656537,1.00000000044031,0.327977516918954
3299.99999999809,0.523069522366625,1.00000000053489,0.347288906984862
3399.999999998,0.687972966246342,1.0000000006344,0.365231465846535
3499.99999999791,0.907006155524775,1.00000000070516,0.383157465861352
3599.99999999782,1.21048101802307,1.00000000081109,0.399775393523899
3699.99999999773,1.64962574096243,1.00000000087712,0.415437119538206
3799.99999999764,2.18649517149973,1.00000000097605,0.430815077692624
3899.99999999755,2.89174157630421,1.00000000099389,0.444766499214962
3999.99999999746,3.76960399196402,1.00000000107152,0.457992460032549
4099.99999999738,4.80565373053217,1.00000000116005,0.470634521768104
4199.99999999775,6.07075821196992,1.00000000117611,0.481739110905769
4299.99999999811,7.52595411614521,1.00000000126269,0.492733388355849
4399.99999999848,9.19115486727593,1.00000000122757,0.502790166459347
4499.99999999884,11.1030257320552,1.0000000012676,0.51186269363586
4599.9999999992,13.2096691205651,1.00000000131372,0.52072430528447
4699.99999999957,15.5536509404484,1.00000000134702,0.528322297114558
4799.99999999993,18.12340439608,1.00000000132527,0.535631457757278
4900.00000000029,20.8811518544534,1.0000000014167,0.542390154597557
5000.00000000066,23.8696298413718,1.00000000134799,0.548359477169748
5100.00000000102,27.0393286625188,1.00000000137927,0.554178763008157
5200.00000000139,30.383005917594,1.00000000135431,0.559476477184088
5300.00000000175,33.9181695042269,1.00000000133235,0.564038202984283
5400.00000000211,37.5817011759497,1.00000000138912,0.568498251252859
5500.00000000248,41.3962518677882,1.00000000138742,0.572215137320768
5600.00000000284,45.339669534683,1.00000000135151,0.575631633127999
5700.00000000321,49.3660733690371,1.000000001358,0.579246670932541
5800.00000000357,53.5053623482037,1.00000000135769,0.58165917117521
5900.00000000393,57.7022331993185,1.00000000135791,0.584642426496051
6000.0000000043,61.9515593131359,1.000000001297,0.586904871987764
6100.00000000466,66.2579752277319,1.00000000129469,0.588468892726453
6200.00000000502,70.5630555741602,1.00000000130117,0.590788350445927
6300.00000000539,74.891352332277,1.00000000131791,0.592043591519763
6400.00000000575,79.2101892754555,1.00000000126249,0.593249600314805
6500.00000000612,83.495416932294,1.0000000012578,0.594460696500739
6600.00000000648,87.7659399183544,1.00000000120989,0.595399848227725
6700.00000000684,91.9703219857655,1.00000000122585,0.596457252841076
6800.00000000721,96.1213886497125,1.00000000123699,0.596854941606993
6900.00000000757,100.208249942939,1.00000000119791,0.597101691612263
7000.00000000793,104.199731081936,1.00000000116671,0.59805990014482
7100.0000000083,108.117750790107,1.000000001179,0.597937809799432
7200.00000000866,111.926616150755,1.00000000114688,0.598120371846732
7300.00000000903,115.629253585988,1.00000000112939,0.598402305463425
7400.00000000939,119.228343680235,1.00000000108471,0.597975442347497
7500.00000000975,122.695744582172,1.00000000107945,0.598343727539337
7600.00000001012,126.050025662847,1.00000000110421,0.597970296975374
7700.00000001048,129.271696616528,1.00000000106443,0.597379861547383
7800.00000001084,132.356213394619,1.00000000105728,0.598150541164009
7900.00000001121,135.31621118973,1.00000000103259,0.596161880360739
8000.00000001157,138.127268212398,1.00000000105911,0.597698607625133
8100.00000001194,140.807092980764,1.00000000097935,0.595798120810065
8200.0000000123,143.345431717656,1.0000000009969,0.596825930806691
8300.00000001266,145.736781821127,1.00000000096068,0.595078249620908
8400.00000001303,147.99618633549,1.00000000095968,0.595859323475318
8500.00000001339,150.1061086189,1.00000000093187,0.594038087931554
8600.00000001376,152.079158249807,1.00000000090304,0.595353913617681
8700.00000001412,153.914644428942,1.0000000008805,0.59274743127078
8800.00000001448,155.604335721645,1.00000000090157,0.594324691723815
8900.00000001485,157.166744872893,1.00000000086996,0.59195076895829
9000.00000001521,158.586937001348,1.00000000086122,0.592941112887218
9100.00000001557,159.877853178575,1.00000000085387,0.591701461192712
9200.00000001594,161.04057747409,1.00000000083091,0.591907631817917
9300.0000000163,162.071669684004,1.00000000082414,0.590796985790124
9400.00000001667,162.983549548685,1.00000000079791,0.591235016259909
9500.00000001703,163.772953525199,1.00000000081355,0.590962643252453
9600.00000001739,164.443522671499,1.00000000077848,0.588912368255373
9700.00000001776,165.003899524388,1.00000000078648,0.591844541463715
9800.00000001812,165.452157893473,1.00000000077382,0.588791431559246
9900.00000001848,165.79687582721,1.00000000074885,0.58774021559359
10000.0000000188,166.040142476521,1.0000000007821,0.591352740623266
10100.0000000192,166.189741881311,1.00000000075879,0.587628333389071
10200.0000000196,166.246618057905,1.00000000073327,0.585759520827625
10300.0000000199,166.21597205852,1.0000000007762,0.590217218660772
10400.0000000203,166.111946021953,1.00000000074804,0.584988791597904
10500.0000000207,165.925387788256,1.00000000071873,0.581756280567667
10600.000000021,165.668296397169,1.00000000075352,0.587830308773687
10700.0000000214,165.353989550601,1.00000000076098,0.58443454984621
10800.0000000218,164.97255167112,1.00000000070249,0.576217731463807
10900.0000000221,164.533558811881,1.00000000075939,0.583433040341956
11000.0000000225,164.04830168968,1.00000000079812,0.58427697458453
11100.0000000229,163.516554035689,1.00000000074074,0.575233468120349
11200.0000000232,162.931906084648,1.00000000070151,0.572542883586141
11300.0000000236,162.306554239225,1.00000000077792,0.584608890971085
11400.0000000239,161.656252850668,1.00000000077072,0.580151798461958
11500.0000000243,160.964689410474,1.00000000067089,0.561269964127275
11600.0000000247,160.233333304047,1.00000000075049,0.576668827824251
11700.000000025,159.487517901844,1.00000000084867,0.582057462355201
11800.0000000254,158.722261793378,1.00000000072892,0.569973229430415
11900.0000000258,157.925172874694,1.0000000006882,0.554095954144661
12000.0000000261,157.102070927109,1.00000000083988,0.579669118443345
12100.0000000265,156.273822729667,1.00000000084187,0.576637544641031
12200.0000000269,155.436154803361,1.00000000074941,0.563500149878228
12300.0000000272,154.571149073737,1.00000000068201,0.549975363704016
12400.0000000276,153.692034090863,1.00000000083662,0.575332079658602
12500.0000000279,152.813954354273,1.00000000086898,0.573158170484308
12600.0000000283,151.932511370913,1.00000000075773,0.560398662621987
12700.0000000287,151.037774781617,1.00000000071138,0.549190554518136
12800.000000029,150.128442110212,1.00000000080416,0.55987707840619
12900.0000000294,149.221812167619,1.00000000089537,0.575046299031495
13000.0000000298,148.320276712005,1.00000000082287,0.556979211343682
13100.0000000301,147.413460057596,1.00000000072613,0.55161788849755
13200.0000000305,146.50041098287,1.00000000073875,0.549510790997428
13300.0000000309,145.583831326171,1.00000000079648,0.560851062845152
13400.0000000312,144.674333356866,1.00000000090907,0.567546958528697
13500.0000000316,143.770988981915,1.00000000080387,0.544932777591963
13600.0000000319,142.865476804801,1.00000000074368,0.549366269695527
13700.0000000323,141.960710254325,1.0000000008157,0.551989980226971
13800.0000000327,141.05641769442,1.00000000080248,0.552993403637289
13900.000000033,140.159616086246,1.00000000088094,0.563239308585155
14000.0000000334,139.270746747131,1.00000000082993,0.540555511377433
14100.0000000338,138.383651760272,1.00000000076104,0.542067280546684
14200.0000000341,137.501049653562,1.00000000084887,0.556222749369608
14300.0000000345,136.621799412856,1.00000000078407,0.547143509380683
14400.0000000349,135.748537586527,1.00000000084448,0.551778951530066
14500.0000000352,134.883497350582,1.00000000086019,0.547314969713079
14600.0000000356,134.024347310953,1.00000000075486,0.532185565062389
14700.0000000359,133.171069340127,1.00000000080346,0.546105589289751
14800.0000000363,132.323888720936,1.00000000086532,0.556877568725447
14900.0000000367,131.483387313624,1.00000000079981,0.544857318676063
15000.000000037,130.649448592516,1.00000000081555,0.539247155918341
15100.0000000374,129.821741653692,1.00000000084968,0.543058872894805
15200.0000000378,129.002189090438,1.00000000077066,0.531962320281685
15300.0000000381,128.189540583029,1.00000000081507,0.542750891123663
15400.0000000385,127.384922886255,1.00000000080051,0.555298314115864
15500.0000000389,126.588245549349,1.00000000079923,0.54851584571145
15600.0000000392,125.797686405476,1.00000000077096,0.535342232694337
15700.0000000396,125.014386533681,1.00000000080288,0.534639330479324
15800.0000000399,124.238550289493,1.0000000008045,0.538062860824536
15900.0000000403,123.470503548177,1.00000000079384,0.538731508970853
16000.0000000407,122.711584581018,1.00000000079566,0.544175856097121
16100.000000041,121.960471434628,1.00000000078958,0.55346522442675
16200.0000000414,121.217505921589,1.00000000079838,0.547077071026839
16300.0000000418,120.481912156252,1.00000000078169,0.532922914306423
16400.0000000418,119.753787214402,1.00000000073982,0.531275556139573
16500.0000000404,119.03386400866,1.00000000078203,0.542790290194597
16600.0000000389,118.321828087384,1.00000000083489,0.545376656807122
16700.0000000375,117.618572662633,1.00000000077953,0.539645734057295
16800.000000036,116.923863793321,1.00000000081062,0.550331047498988
16900.0000000346,116.237523264376,1.00000000079186,0.551578920354187
17000.0000000331,115.559765783839,1.00000000072253,0.537758595906177
17100.0000000317,114.890052728503,1.00000000075307,0.530010666699044
17200.0000000302,114.228681360963,1.0000000007945,0.537462039913095
17300.0000000287,113.575656854109,1.00000000079889,0.543158188992643
17400.0000000273,112.930572701111,1.0000000007806,0.547955137064859
17500.0000000258,112.293752360999,1.00000000080586,0.542538162440113
17600.0000000244,111.664813521235,1.00000000081817,0.547138708231971
17700.0000000229,111.044626139679,1.00000000079147,0.551180912061924
17800.0000000215,110.433838418628,1.00000000070865,0.537203113227001
17900.00000002,109.832147525535,1.00000000070381,0.530728923508658
18000.0000000186,109.238695502748,1.0000000008613,0.536026187341511
18100.0000000171,108.653190279242,1.00000000075523,0.534882019917034
18200.0000000156,108.075994267061,1.00000000081417,0.543926953569533
18300.0000000142,107.505993874366,1.00000000081053,0.553864844365319
18400.0000000127,106.942599824374,1.00000000082261,0.549499717737359
18500.0000000113,106.38633998705,1.00000000083023,0.547654401829049
18600.0000000098,105.838061515518,1.00000000077029,0.545165379563327
18700.0000000084,105.300354536246,1.0000000006871,0.536748039294592
18800.0000000069,104.772659495169,1.00000000074755,0.530168665788114
18900.0000000055,104.253300389171,1.0000000008005,0.531752151471895
19000.000000004,103.741040329967,1.00000000079611,0.531125396343211
19100.0000000026,103.236870691994,1.00000000078981,0.533217958957126
19200.0000000011,102.739036314321,1.0000000008234,0.545930392467901
19299.9999999996,102.246174197523,1.00000000082321,0.557193257836078
19399.9999999982,101.758502553949,1.00000000081304,0.552002058449061
19499.9999999967,101.276394567951,1.00000000084984,0.546844349329069
19599.9999999953,100.801684848375,1.00000000076618,0.541472603985192
19699.9999999938,100.337614810431,1.0000000007188,0.533238976359071
19799.9999999924,99.8838343271991,1.00000000074939,0.533571137571344
19899.9999999909,99.4390797629907,1.0000000007591,0.523708214354875
19999.9999999895,99.0014651017966,1.00000000082324,0.526933873431714
20099.999999988,98.570554421878,1.00000000081351,0.528442623195843
20199.9999999865,98.145674027179,1.0000000007631,0.531146863652416
20299.9999999851,97.7252513058052,1.00000000084856,0.540223293083169
20399.9999999836,97.306865842465,1.00000000084839,0.556294280883134
20499.9999999822,96.8912810277821,1.00000000083944,0.556573570144919
20599.9999999807,96.480300077489,1.00000000083265,0.542837642163413
20699.9999999793,96.0759984614173,1.00000000077061,0.537563586388061
20799.9999999778,95.6803849988308,1.00000000078138,0.537393964526281
20899.9999999764,95.2948897037918,1.0000000007296,0.53281170621956
20999.9999999749,94.9190157366771,1.00000000075769,0.532509742578553
21099.9999999734,94.5515608315544,1.00000000078022,0.523561099207998
21199.999999972,94.1912679980322,1.00000000079351,0.52414090902123
21299.9999999705,93.8358548823859,1.00000000080004,0.524896810852602
21399.9999999691,93.4849601017063,1.00000000081512,0.532666132638868
21499.9999999676,93.1363965179666,1.00000000088736,0.539215724255071
21599.9999999662,92.7885714827912,1.00000000089218,0.545411963849611
21699.9999999647,92.4408326743958,1.00000000087477,0.557364569779559
21799.9999999633,92.0949386785303,1.00000000082038,0.551064080565973
21899.9999999618,91.7542490520824,1.00000000079894,0.541210743282302
21999.9999999603,91.4202925767017,1.00000000080109,0.540260678614083
22099.9999999589,91.0947381857787,1.00000000075816,0.541993043215813
22199.9999999574,90.7783800493583,1.00000000076245,0.538901615584579
22299.999999956,90.4708442308473,1.00000000074898,0.53530546610767
22399.9999999545,90.1719453970808,1.00000000074243,0.531776038906477
22499.9999999531,89.8802574301254,1.00000000076271,0.527212812373201
22599.9999999516,89.5949168435846,1.00000000078547,0.53014834329339
22699.9999999502,89.3131439023319,1.00000000081412,0.537195753872397
22799.9999999487,89.033153283928,1.00000000081493,0.540032394933039
22899.9999999473,88.7543594523908,1.00000000085528,0.543461494973845
22999.9999999458,88.4739432116659,1.00000000087356,0.546741526367146
23099.9999999443,88.1925929471833,1.00000000082782,0.554113109198399
23199.9999999429,87.912776938329,1.00000000080316,0.555565650025472
23299.9999999414,87.6369390287666,1.00000000080337,0.550357309602492
23399.99999994,87.366970725206,1.00000000078301,0.545773775708533
23499.9999999385,87.1036017746197,1.00000000080043,0.548362652408579
23599.9999999371,86.8468622799699,1.00000000077948,0.551734894115414
23699.9999999356,86.5987804841238,1.00000000071632,0.544656725600112
23799.9999999342,86.3603252330122,1.00000000071993,0.538026655314951
23899.9999999327,86.1305949484354,1.00000000076365,0.538602548052064
23999.9999999312,85.9072539025245,1.00000000080059,0.537446689201218
24099.9999999298,85.6893668179879,1.0000000007898,0.536030476941958
24199.9999999283,85.475783143833,1.00000000078183,0.544628928076692
24299.9999999269,85.2632749441522,1.00000000080857,0.547831352633404
24399.9999999254,85.0509690224941,1.00000000082807,0.551092661628036
24499.999999924,84.8379164174536,1.00000000087105,0.549687768837779
24599.9999999225,84.6224761929541,1.0000000008494,0.55117302112862
24699.9999999211,84.4061944269836,1.00000000080095,0.550733402759275
24799.9999999196,84.1913533906323,1.00000000079292,0.556037754926503
24899.9999999181,83.9801275998191,1.00000000077602,0.557755279643772
24999.9999999167,83.7716775383836,1.0000000008318,0.561300955111774
25099.9999999152,83.566135678243,1.0000000008029,0.556934234668912
25199.9999999138,83.3655783949794,1.00000000080836,0.55303962281208
25299.9999999123,83.1712969224297,1.00000000078985,0.552847682251393
25399.9999999109,82.9851172441437,1.00000000074628,0.547152342749833
25499.9999999094,82.8091382917742,1.00000000071095,0.537986371288731
25599.999999908,82.6418086622393,1.00000000076932,0.541752635646472
25699.9999999065,82.4805669296897,1.00000000080501,0.54402309736508
25799.9999999051,82.3234610981515,1.00000000077337,0.541933904521723
25899.9999999036,82.1701087586582,1.00000000077272,0.547001826070824
25999.9999999021,82.0173227028892,1.00000000085548,0.555154462832249
26099.9999999007,81.8625401654643,1.0000000008713,0.55853175983143
26199.9999998992,81.706090268084,1.00000000083554,0.559706477211221
26299.9999998978,81.5487916367779,1.00000000085249,0.552362332794907
26399.9999998963,81.3915253961261,1.00000000082195,0.550796174890973
26499.9999998949,81.2340412735596,1.00000000084522,0.55128506478913
26599.9999998934,81.0769718219079,1.00000000080326,0.554778359543105
26699.999999892,80.9205957229821,1.00000000082906,0.566126190996121
26799.9999998905,80.7636751926452,1.00000000085268,0.572678586795334
26899.999999889,80.6072813547812,1.0000000008374,0.570992223134688
26999.9999998876,80.4517574290995,1.00000000085868,0.564735544650915
27099.9999998861,80.2993184700594,1.00000000078191,0.552370391066841
27199.9999998847,80.1530013462352,1.00000000078902,0.547739995560401
27299.9999998832,80.0134732392669,1.0000000007837,0.546508193118928
27399.9999998818,79.8826616289736,1.00000000074027,0.541577089631074
27499.9999998803,79.7610512850116,1.00000000076998,0.538721203286252
27599.9999998789,79.6460342699112,1.00000000078721,0.546164611251641
27699.9999998774,79.5365953334002,1.00000000080428,0.547867870204059
27799.9999998759,79.4292865696567,1.00000000084147,0.555544023468458
27899.9999998745,79.3223274213954,1.00000000086156,0.55674832594329
27999.999999873,79.214517731567,1.00000000086997,0.563403033225457
28099.9999998716,79.1044043981066,1.0000000008424,0.564217300741361
28199.9999998701,78.9925770080227,1.00000000086852,0.565479173142895
28299.9999998687,78.8786884560319,1.00000000083583,0.566936498835045
28399.9999998672,78.7654749202761,1.00000000079715,0.559033529027773
28499.9999998658,78.6544198465636,1.00000000079854,0.553395535769866
28599.9999998643,78.5438885239705,1.00000000084076,0.560964599437153
28699.9999998629,78.4326869318589,1.00000000082185,0.560726776953937
28799.9999998614,78.3203709903237,1.00000000084702,0.56722484415859
28899.9999998599,78.2056549486981,1.00000000088046,0.576686520998325
