Time,AGPnorm,Energy,Entropy
0,0,1,1.57501803104231e-18
99.9999999999986,0.00236085208974545,1.00000000000039,0.00848144618702982
199.999999999993,0.00679403190606356,0.99999999999904,0.0242276653890268
300,0.014377122404247,1.00000000000128,0.0476536317599096
400.000000000022,0.0231878392068448,0.999999999998628,0.0757187009038949
500.000000000045,0.0335373787717847,1.00000000000194,0.110666789135573
600.000000000068,0.0452387676500285,1.00000000000094,0.152686060151885
700.000000000091,0.0556054019050266,1.0000000000176,0.205597425712277
800.000000000113,0.0777926578110329,1.00000000007447,0.270492262559988
900.000000000136,0.119385231032007,1.00000000022488,0.341787328408252
1000.00000000016,0.321608030938041,1.00000000042054,0.407606898669181
1100.0000000001,0.821190385073766,1.00000000061318,0.45962678167363
1200,1.9174979797328,1.00000000079396,0.497146147104126
1299.99999999991,3.74232083059075,1.00000000086227,0.522321776240967
1399.99999999982,6.42750326903184,1.00000000095388,0.537217095674748
1499.99999999973,9.91804989853702,1.00000000097833,0.545538290331924
1599.99999999964,14.1021861436687,1.0000000010249,0.548338589309481
1699.99999999955,18.8033461276875,1.00000000099168,0.547710944617335
1799.99999999946,23.7994271757709,1.00000000094112,0.543693128868585
1899.99999999937,28.9044910335258,1.00000000092437,0.538734774840852
1999.99999999928,33.909085216472,1.0000000008608,0.532896490217492
2099.99999999919,38.6711819430495,1.00000000083202,0.525015069374955
2199.99999999909,43.053839087114,1.00000000079082,0.516944610702009
2299.999999999,46.9779962965076,1.00000000075738,0.516025897212986
2399.99999999891,50.3835547837482,1.00000000068898,0.499917389281335
2499.99999999882,53.2259337704731,1.0000000006691,0.495177869306287
2599.99999999873,55.5414615804478,1.00000000067204,0.509934636301566
2699.99999999864,57.3344425953881,1.00000000062005,0.482765814351609
2799.99999999855,58.5497211883617,1.00000000052725,0.458028238602171
2899.99999999846,59.3006031857106,1.00000000059465,0.506530794835193
2999.99999999837,59.7682558713453,1.00000000061969,0.519157923390722
3099.99999999828,59.8803055272381,1.00000000045623,0.441060663886203
3199.99999999819,59.5156890196139,1.00000000036302,0.411962353672685
3299.99999999809,58.8934398963559,1.00000000060002,0.505720961758073
3399.999999998,58.2822029741581,1.00000000071995,0.5546118972256
3499.99999999791,57.6661621308221,1.00000000063868,0.489524863454068
3599.99999999782,56.8158662242946,1.00000000026207,0.351643572390703
3699.99999999773,55.694754461165,1.00000000028764,0.362550314407951
3799.99999999764,54.512337063515,1.0000000006678,0.487131382644737
3899.99999999755,53.4364565425034,1.00000000088828,0.55007069630351
3999.99999999746,52.5150674577257,1.00000000080559,0.550017844343367
4099.99999999738,51.6408050039378,1.00000000059331,0.462321755282726
4199.99999999775,50.6613051732285,1.00000000026807,0.314248650957392
4299.99999999811,49.5792506497938,1.00000000019136,0.277220755795171
4399.99999999848,48.4904737973461,1.00000000046489,0.400500106861557
4499.99999999884,47.4322978497913,1.00000000072232,0.496571641554347
4599.9999999992,46.4304333478556,1.00000000083682,0.510393621152039
4699.99999999957,45.5193692313746,1.00000000086607,0.532797452185326
4799.99999999993,44.6997481849816,1.00000000075731,0.547356658361643
4900.00000000029,43.9126923010272,1.0000000005341,0.477697822064939
5000.00000000066,43.0996391880429,1.00000000028231,0.345960333288334
5100.00000000102,42.2940722674855,1.00000000020991,0.258839755987766
5200.00000000139,41.572277933451,1.00000000027951,0.290155344716066
5300.00000000175,40.9317825064299,1.0000000004804,0.390776720286485
5400.00000000211,40.2967025262287,1.00000000073435,0.492405608167789
5500.00000000248,39.6345649337132,1.00000000068248,0.532980226967199
5600.00000000284,38.9713483891683,1.00000000055728,0.486293302986257
5700.00000000321,38.3205000245526,1.00000000060202,0.444342737215303
5800.00000000357,37.6731375489003,1.00000000075711,0.492847651732152
5900.00000000393,37.0384900790131,1.00000000087045,0.552480014478009
6000.0000000043,36.4384742561107,1.00000000078124,0.560540856431002
6100.00000000466,35.8641247906705,1.00000000057275,0.508248037305873
6200.00000000502,35.3033470904408,1.00000000034089,0.405499292346571
6300.00000000539,34.8004733391126,1.00000000017953,0.2976727651906
6400.00000000575,34.4378714350199,1.00000000019531,0.247660119441334
6500.00000000612,34.2462756359302,1.0000000003155,0.28523821334643
6600.00000000648,34.179330909449,1.00000000044089,0.366865070022999
6700.00000000684,34.1438357617216,1.00000000056503,0.449326313619464
6800.00000000721,34.0485020704131,1.00000000069439,0.497107212540906
6900.00000000757,33.8513857641526,1.00000000073641,0.510645740919377
7000.00000000793,33.5618300722931,1.00000000073706,0.527557664154715
7100.0000000083,33.2202380276833,1.00000000064446,0.539087610740996
7200.00000000866,32.8757066495153,1.00000000048305,0.501758579271832
7300.00000000903,32.5647097757398,1.00000000037515,0.452056476567535
7400.00000000939,32.2804239927778,1.00000000047464,0.458877074760012
7500.00000000975,31.9817743172365,1.00000000062491,0.4871909769862
7600.00000001012,31.649368395348,1.00000000065558,0.49874360538783
7700.00000001048,31.2865908755658,1.0000000007189,0.499745371093825
7800.00000001084,30.9027044330144,1.00000000082858,0.524761674258516
7900.00000001121,30.5160340404047,1.00000000083224,0.558141906270585
8000.00000001157,30.1423617972925,1.00000000076834,0.563678935958132
8100.00000001194,29.7798892312245,1.00000000060923,0.533130014645097
8200.0000000123,29.4248597333976,1.00000000046056,0.4669471980096
8300.00000001266,29.103849562364,1.00000000025773,0.381555131406
8400.00000001303,28.8831147823295,1.00000000017337,0.3092414073269
8500.00000001339,28.8361302637888,1.00000000016825,0.262984118276492
8600.00000001376,29.0040430975811,1.00000000023422,0.263745807904708
8700.00000001412,29.373678985294,1.00000000034057,0.306127997826022
8800.00000001448,29.8753362248708,1.00000000048073,0.36227502027181
8900.00000001485,30.3991802076869,1.0000000006145,0.427134883924918
9000.00000001521,30.8549558951002,1.00000000070351,0.478759543379338
9100.00000001557,31.2063993948536,1.00000000070313,0.508567419569688
9200.00000001594,31.4440389694947,1.00000000069205,0.528517514022471
9300.0000000163,31.5737434821916,1.00000000065256,0.549616826491955
9400.00000001667,31.6197708623607,1.00000000064084,0.551859019814835
9500.00000001703,31.6135809342129,1.00000000054422,0.528105156357797
9600.00000001739,31.5771017771378,1.00000000054298,0.49959868197405
9700.00000001776,31.5047582055657,1.00000000061328,0.499818140311691
9800.00000001812,31.3795282583711,1.00000000073912,0.519087073303962
9900.00000001848,31.2110992996951,1.00000000067794,0.534444873771841
10000.0000000188,31.0316927409079,1.00000000050935,0.524062941508139
10100.0000000192,30.8683353092491,1.00000000046167,0.495801712499394
10200.0000000196,30.725404753425,1.0000000005292,0.479722679431641
10300.0000000199,30.5936138545753,1.00000000054662,0.477169563093477
10400.0000000203,30.4671088957091,1.00000000055024,0.486861701208608
10500.0000000207,30.3416995474483,1.00000000057543,0.494539230067893
10600.000000021,30.2116545525562,1.00000000057131,0.506623964126088
10700.0000000214,30.0713280912151,1.0000000006127,0.522264404958574
10800.0000000218,29.9154008115439,1.00000000057613,0.537989324102127
10900.0000000221,29.7484228512165,1.00000000052165,0.538780691208898
11000.0000000225,29.5799991194037,1.00000000045747,0.533889095090545
11100.0000000229,29.4111092677096,1.0000000004892,0.533454381866266
11200.0000000232,29.2346029060322,1.00000000052907,0.533238895664581
11300.0000000236,29.042398408634,1.00000000058526,0.537009446406689
11400.0000000239,28.8321898917375,1.00000000063084,0.53778621935225
11500.0000000243,28.6055623931322,1.00000000072839,0.543847453880178
11600.0000000247,28.3692993661102,1.00000000075702,0.549678778650563
11700.000000025,28.135339303636,1.00000000081881,0.553581667974538
11800.0000000254,27.9156686518472,1.00000000090731,0.563877376418662
11900.0000000258,27.7184841448262,1.00000000084147,0.56992728399066
12000.0000000261,27.5410102083008,1.00000000078185,0.571587697661409
12100.0000000265,27.3682650900326,1.00000000063203,0.556859019903103
12200.0000000269,27.1824612348151,1.00000000054348,0.523207265786081
12300.0000000272,26.9766493658558,1.00000000039828,0.476283104294304
12400.0000000276,26.7663113376198,1.00000000030609,0.420632684817546
12500.0000000279,26.5897495590671,1.00000000021589,0.362988102186328
12600.0000000283,26.5016844816156,1.00000000016505,0.3159425610125
12700.0000000287,26.5593887318262,1.00000000016942,0.287190233012239
12800.000000029,26.8115435429382,1.00000000018185,0.272790120099562
12900.0000000294,27.28928106546,1.00000000020132,0.272020691819076
13000.0000000298,27.9836728961274,1.00000000030477,0.295732029497867
13100.0000000301,28.8455694076292,1.00000000038722,0.333301833822943
13200.0000000305,29.8181827076629,1.00000000046609,0.373285603474118
13300.0000000309,30.8235950429786,1.00000000060608,0.414353031649227
13400.0000000312,31.7861873904185,1.00000000062037,0.45177971526166
13500.0000000316,32.6685063028184,1.00000000069579,0.481951561408423
13600.0000000319,33.4516464546368,1.00000000066144,0.500933600812408
13700.0000000323,34.128548275572,1.00000000068841,0.524259617920585
13800.0000000327,34.6970374813404,1.00000000061811,0.545195459584789
13900.000000033,35.1638241969215,1.00000000066366,0.558311313392722
14000.0000000334,35.5409066801474,1.00000000059705,0.552763730964309
14100.0000000338,35.8464164659633,1.00000000058122,0.544226124529778
14200.0000000341,36.0942582995109,1.00000000056745,0.547931305248983
14300.0000000345,36.2834753656018,1.00000000059228,0.566516518767709
14400.0000000349,36.4145403721881,1.00000000061654,0.574107611996894
14500.0000000352,36.4952136790941,1.0000000006044,0.568549588009997
14600.0000000356,36.5328921630719,1.00000000062396,0.554570527030598
14700.0000000359,36.5332129471145,1.00000000058326,0.539283777327097
14800.0000000363,36.5086875096579,1.00000000055833,0.529418010677503
14900.0000000367,36.4716820152656,1.00000000053991,0.528108157884918
15000.000000037,36.4155439628714,1.00000000059195,0.540351474704709
15100.0000000374,36.3367235526234,1.00000000059284,0.544274709131824
15200.0000000378,36.2428643894528,1.00000000052801,0.547854711885194
15300.0000000381,36.139781665856,1.00000000057245,0.55366470563244
15400.0000000385,36.0238232229676,1.00000000061048,0.554121011705468
15500.0000000389,35.8942326110932,1.00000000057586,0.550186537275238
15600.0000000392,35.7559939104903,1.00000000059803,0.549274047067025
15700.0000000396,35.6148854567102,1.0000000005558,0.540786595118342
15800.0000000399,35.4782239806335,1.00000000047616,0.529136776090672
15900.0000000403,35.3495469109313,1.00000000048007,0.526259106713269
16000.0000000407,35.2229323122458,1.00000000054354,0.529906087003178
16100.000000041,35.0893011000804,1.0000000005871,0.531496656577985
16200.0000000414,34.9465039190919,1.00000000064685,0.536486725921275
16300.0000000418,34.7965609259449,1.00000000064731,0.540974823419686
16400.0000000418,34.6360664352793,1.00000000070006,0.553401964424943
16500.0000000404,34.4666322725512,1.00000000064319,0.562048711566511
16600.0000000389,34.2933249220512,1.00000000058096,0.555971871484227
16700.0000000375,34.1235645490639,1.00000000054714,0.551475081099247
16800.000000036,33.9637573722932,1.00000000046539,0.541931128056147
16900.0000000346,33.822492845531,1.00000000042237,0.524749403643426
17000.0000000331,33.7055060845278,1.00000000041195,0.509612648648283
17100.0000000317,33.6128423102688,1.00000000048169,0.493700727816965
17200.0000000302,33.5354155248669,1.00000000054688,0.48427493710609
17300.0000000287,33.4643177539341,1.00000000062596,0.489587064033694
17400.0000000273,33.3971741573736,1.00000000057909,0.499192682933175
17500.0000000258,33.3370129369548,1.00000000049977,0.500890916651829
17600.0000000244,33.2849064120696,1.00000000052708,0.511522866923213
17700.0000000229,33.2355620265919,1.00000000051911,0.529609501396095
17800.0000000215,33.1860636003063,1.00000000058142,0.54033379016258
17900.00000002,33.1299603247598,1.00000000055522,0.547502182895965
18000.0000000186,33.0625552348689,1.0000000005858,0.541303200392171
18100.0000000171,32.9866347398222,1.00000000054696,0.534136226796525
18200.0000000156,32.9073270361222,1.00000000054006,0.536598384645054
18300.0000000142,32.8265773661051,1.00000000055125,0.543909147304514
18400.0000000127,32.740736142217,1.00000000058228,0.554219592037207
18500.0000000113,32.649532475713,1.00000000055905,0.569222937409192
18600.0000000098,32.5570991502919,1.00000000053071,0.576156375634537
18700.0000000084,32.4634180421573,1.00000000055198,0.578644933729912
18800.0000000069,32.3643703758032,1.00000000055204,0.581096836263727
18900.0000000055,32.2578619765343,1.00000000061786,0.584068378253284
19000.000000004,32.1431353367652,1.00000000062352,0.58665797002573
19100.0000000026,32.0207025779455,1.00000000059444,0.584249348278955
19200.0000000011,31.8966068649236,1.00000000052288,0.58717214836772
19299.9999999996,31.7759063484362,1.00000000050914,0.578673029846752
19399.9999999982,31.6604715512013,1.00000000050308,0.569313132848543
19499.9999999967,31.5447020493542,1.00000000061226,0.568563194129688
19599.9999999953,31.4241162212463,1.00000000060595,0.5596437300986
19699.9999999938,31.3023385708207,1.00000000053755,0.548309793875493
19799.9999999924,31.1841699781076,1.0000000004892,0.55067150864642
19899.9999999909,31.0700760319346,1.00000000053851,0.555653669111021
19999.9999999895,30.9563123176635,1.00000000059424,0.558803850462158
20099.999999988,30.8428122514988,1.000000000524,0.561294358208562
20199.9999999865,30.7307081996773,1.00000000053032,0.567595256204643
20299.9999999851,30.6203049363766,1.00000000052937,0.567936039046681
20399.9999999836,30.5090909826632,1.00000000059259,0.559136002459101
20499.9999999822,30.3926439526555,1.00000000065165,0.568272797673967
20599.9999999807,30.270404737312,1.00000000063295,0.570749511055875
20699.9999999793,30.1445617315841,1.00000000057194,0.559660381353885
20799.9999999778,30.0171779089091,1.00000000057515,0.554352467548355
20899.9999999764,29.8874617196546,1.0000000005984,0.56757810520174
20999.9999999749,29.7546656707081,1.00000000059471,0.58764131441076
21099.9999999734,29.6202171082668,1.00000000061213,0.594063727252462
21199.999999972,29.4861215919117,1.00000000053403,0.585293785581686
21299.9999999705,29.3538127671437,1.00000000048949,0.574408503119796
21399.9999999691,29.2234128857574,1.00000000052807,0.578812695536706
21499.9999999676,29.0922267769948,1.00000000057161,0.583872389667725
21599.9999999662,28.9595839739227,1.00000000058899,0.594181946853937
21699.9999999647,28.8272868755275,1.00000000057482,0.596377997164221
21799.9999999633,28.6960366045482,1.00000000047157,0.576308594722387
21899.9999999618,28.5661008701914,1.0000000004555,0.567682266143438
21999.9999999603,28.4373169838991,1.00000000050711,0.577871943321562
22099.9999999589,28.3093996825541,1.00000000050784,0.585465950746385
22199.9999999574,28.1826723441851,1.00000000048011,0.581337087876917
22299.999999956,28.0575405790159,1.00000000050501,0.576293864581203
22399.9999999545,27.9341962215681,1.0000000005361,0.583487959522775
22499.9999999531,27.8141479231022,1.00000000056921,0.592733122951928
22599.9999999516,27.6986352128213,1.00000000058241,0.581659024212438
22699.9999999502,27.5904586837186,1.00000000063784,0.579029135185077
22799.9999999487,27.4931128478364,1.00000000066506,0.593699844626413
22899.9999999473,27.4101740444245,1.00000000070754,0.596827344917576
22999.9999999458,27.3492572854324,1.00000000069811,0.593397827283683
23099.9999999443,27.3118053616341,1.00000000071559,0.59587180387703
23199.9999999429,27.3083365792612,1.00000000073916,0.604869063184052
23299.9999999414,27.3401361183679,1.00000000083062,0.608919412626271
23399.99999994,27.420056992722,1.00000000082772,0.615584491108934
23499.9999999385,27.545800134642,1.00000000079318,0.617911480497779
23599.9999999371,27.7221534081086,1.00000000083105,0.61649097856696
23699.9999999356,27.9483892948425,1.0000000008778,0.611882361667778
23799.9999999342,28.2216742006006,1.00000000084574,0.607544981506174
23899.9999999327,28.5426140148661,1.0000000008382,0.597767846723459
23999.9999999312,28.885961240179,1.00000000079397,0.590704817699268
24099.9999999298,29.2449710314218,1.00000000073814,0.581287572285192
24199.9999999283,29.5810304445971,1.00000000068231,0.57346316980197
24299.9999999269,29.8860315256133,1.00000000060454,0.556965095215343
24399.9999999254,30.1285753881639,1.00000000049702,0.537527607061375
24499.999999924,30.3047202089094,1.00000000046142,0.512482713341963
24599.9999999225,30.4050218297331,1.00000000039852,0.485392778631629
24699.9999999211,30.4292627237493,1.00000000033935,0.456376137179378
24799.9999999196,30.3938554971977,1.00000000028166,0.426484473955034
24899.9999999181,30.3083093862402,1.00000000024827,0.396869423566869
24999.9999999167,30.2046037621175,1.00000000020381,0.369297004990455
25099.9999999152,30.1040620869172,1.00000000018798,0.344543364462211
25199.9999999138,30.043495939814,1.0000000001614,0.321942231010759
25299.9999999123,30.0545534428236,1.00000000015122,0.301031233633577
25399.9999999109,30.1730965438369,1.00000000014301,0.287820512187648
25499.9999999094,30.4269301354901,1.00000000014103,0.2764994673571
25599.999999908,30.8534086638624,1.00000000016307,0.27157199222421
25699.9999999065,31.4547028450731,1.00000000018665,0.275799113092547
25799.9999999051,32.2716907263045,1.00000000020338,0.283075191103032
25899.9999999036,33.2705775143317,1.00000000024389,0.289090987361821
25999.9999999021,34.4867191344628,1.00000000028957,0.30436615120465
26099.9999999007,35.8550141805366,1.00000000032892,0.320850955923955
26199.9999998992,37.3950396156012,1.00000000041388,0.33855404450196
26299.9999998978,39.0258494039931,1.00000000048961,0.359614594017695
26399.9999998963,40.7416801042626,1.00000000049521,0.376835096993065
26499.9999998949,42.4966330954275,1.0000000006013,0.39536967496521
26599.9999998934,44.2457376580231,1.00000000059693,0.412502127030146
26699.999999892,45.9840288354268,1.00000000065063,0.430478467788161
26799.9999998905,47.6636277775408,1.00000000066941,0.441888986988202
26899.999999889,49.2916467961441,1.0000000007136,0.454699860421424
26999.9999998876,50.8241158377359,1.00000000069812,0.47240870909736
27099.9999998861,52.2813726121091,1.00000000067799,0.488980932955544
27199.9999998847,53.6453232057826,1.00000000068968,0.499982049220845
27299.9999998832,54.9157195541534,1.00000000068285,0.501133082740231
27399.9999998818,56.0939051190327,1.00000000065845,0.513807695256811
27499.9999998803,57.171162168728,1.00000000068183,0.526722192940415
27599.9999998789,58.170684151155,1.00000000064553,0.539389115835795
27699.9999998774,59.0853722546563,1.00000000064552,0.544831239259507
27799.9999998759,59.932085966683,1.00000000067681,0.546649851946219
27899.9999998745,60.7003183917393,1.00000000064067,0.549692490905482
27999.999999873,61.3970934201276,1.00000000063032,0.555905911641998
28099.9999998716,62.0293252474359,1.00000000062217,0.570081081182686
28199.9999998701,62.5958344941425,1.00000000062402,0.57297863634717
28299.9999998687,63.1171124932871,1.00000000059408,0.576531172048133
28399.9999998672,63.5828895552529,1.00000000059417,0.572376389955263
28499.9999998658,64.007917439697,1.00000000056986,0.572487915133654
28599.9999998643,64.3767809111034,1.00000000060104,0.580471397232037
28699.9999998629,64.6962248710461,1.0000000006619,0.592207026992832
28799.9999998614,64.9599279287637,1.00000000062251,0.599928813337821
28899.9999998599,65.1847365561788,1.00000000058165,0.60051475017203
28999.9999998585,65.3826822138176,1.00000000055649,0.592219523712505
29099.999999857,65.5533147922447,1.00000000058745,0.584402286936638
