Time,AGPnorm,Energy,Entropy
0,0,1,6.96745264579743e-18
99.9999999999986,0.0140034093269411,0.999999999998539,0.0350837870985535
199.999999999993,0.0344070897701199,1.00000000000101,0.104190954474097
300,0.0635341018618868,1.00000000007513,0.22310230741584
400.000000000022,0.121908500055938,1.00000000179264,0.399546343763917
500.000000000045,0.518048303282717,1.00000000382201,0.521992997255531
600.000000000068,1.6579166033436,1.00000000522913,0.580327388142716
700.000000000091,3.52396287332792,1.00000000480178,0.599594248892361
800.000000000113,5.60415077308712,1.0000000048276,0.603326517521908
900.000000000136,7.59226039300954,1.00000000439695,0.59433953915773
1000.00000000016,9.13690463597182,1.00000000405966,0.585734836645301
1100.0000000001,10.1962091204027,1.00000000350784,0.570816690107064
1200,10.7477112824373,1.00000000282728,0.571266128893859
1299.99999999991,10.8789113990778,1.00000000288806,0.560422055482298
1399.99999999982,10.7359948800486,1.00000000234696,0.523277307496929
1499.99999999973,10.4549415033735,1.00000000215616,0.501517712042934
1599.99999999964,10.0844869308523,1.00000000383731,0.570964746861328
1699.99999999955,9.65565815098085,1.00000000273404,0.488092211320188
1799.99999999946,9.24915589924707,1.00000000288596,0.507688441748667
1899.99999999937,8.82998645485405,1.00000000310195,0.484625550033686
1999.99999999928,8.43312774900736,1.00000000356148,0.541294395154592
2099.99999999919,8.07400664737185,1.00000000254179,0.463702437512176
2199.99999999909,7.71945399002279,1.00000000323386,0.531948513472268
2299.999999999,7.39300990793507,1.00000000335973,0.530688702784313
2399.99999999891,7.12588424323529,1.00000000246917,0.462960807767071
2499.99999999882,6.85951254895272,1.00000000323667,0.530290222144194
2599.99999999873,6.61271035638011,1.00000000344741,0.554685167655266
2699.99999999864,6.38032457834243,1.0000000030101,0.517713908887021
2799.99999999855,6.2190918051722,1.00000000241884,0.474840129864024
2899.99999999846,6.05481740949165,1.00000000365389,0.542499451421954
2999.99999999837,5.90257501483089,1.00000000297159,0.539362237103725
3099.99999999828,5.74618338346175,1.00000000334311,0.568356521295265
3199.99999999819,5.58984791408358,1.00000000377411,0.555382259453923
3299.99999999809,5.48659822911092,1.0000000022406,0.480905821809586
3399.999999998,5.43626619859898,1.00000000340703,0.53014297170227
3499.99999999791,5.36873452586054,1.00000000328611,0.552009477437914
3599.99999999782,5.30345844998815,1.00000000320005,0.56836049343562
3699.99999999773,5.23424027145612,1.00000000365767,0.580692438456125
3799.99999999764,5.14280880142886,1.00000000314617,0.601452608654142
3899.99999999755,5.05168272623199,1.00000000365663,0.588541269112209
3999.99999999746,4.95965347597875,1.00000000360389,0.571837251955012
4099.99999999738,4.90494343272101,1.00000000260155,0.522488024969921
4199.99999999775,4.92748969454779,1.00000000297198,0.519590263623452
4299.99999999811,4.94735591063406,1.00000000361273,0.556638573951342
4399.99999999848,4.95483871654873,1.00000000336441,0.557880967667938
4499.99999999884,4.95199533835387,1.00000000315609,0.594620320673345
4599.9999999992,4.93961340432306,1.00000000317126,0.603637644097585
4699.99999999957,4.93185419377524,1.00000000353329,0.624268130091886
4799.99999999993,4.90496129932641,1.00000000354448,0.626614506434274
4900.00000000029,4.86928833423522,1.00000000360938,0.612804812899731
5000.00000000066,4.81991871230625,1.00000000372653,0.634464410157938
5100.00000000102,4.76707356187649,1.00000000371185,0.644319986259329
5200.00000000139,4.71011328738163,1.00000000372905,0.634659336259676
5300.00000000175,4.65293601541869,1.0000000040273,0.608159958528734
5400.00000000211,4.60323818789004,1.00000000332363,0.569607532186664
5500.00000000248,4.61098575790219,1.00000000269063,0.536621237473438
5600.00000000284,4.68452299451019,1.00000000314664,0.545369243230564
5700.00000000321,4.76410418975857,1.0000000036884,0.571905006679714
5800.00000000357,4.82895450468219,1.00000000355112,0.586116683797685
5900.00000000393,4.88617638480882,1.00000000393842,0.600651491789628
6000.0000000043,4.92895503958042,1.00000000365776,0.609579233488401
6100.00000000466,4.96643862283682,1.000000003807,0.636367435063874
6200.00000000502,4.9889395465269,1.00000000390605,0.639264033170034
6300.00000000539,5.00166915742588,1.00000000375863,0.650175254302752
6400.00000000575,5.001507242361,1.00000000402894,0.655257199049002
6500.00000000612,5.00359952097253,1.00000000367339,0.642221942886029
6600.00000000648,5.01594856249562,1.00000000370119,0.653355019634065
6700.00000000684,5.02189944295597,1.00000000403633,0.648992378199779
6800.00000000721,5.01391854279809,1.00000000385023,0.638006108221813
6900.00000000757,5.00961499566068,1.00000000359711,0.647934992423568
7000.00000000793,5.00782698852967,1.0000000037704,0.663355587909782
7100.0000000083,4.99361155082241,1.00000000363493,0.67074960307068
7200.00000000866,4.97585983779688,1.0000000038868,0.647506122570855
7300.00000000903,4.95831948769527,1.00000000376448,0.649993567275274
7400.00000000939,4.93412214085675,1.00000000408528,0.660668535519229
7500.00000000975,4.89907165793561,1.0000000042428,0.672084957515274
7600.00000001012,4.85715887564708,1.00000000359064,0.671355822809373
7700.00000001048,4.81551297266762,1.00000000382793,0.681519081993682
7800.00000001084,4.77744021863525,1.00000000419645,0.668413593903554
7900.00000001121,4.74211377113466,1.00000000435155,0.671070874216969
8000.00000001157,4.70734592714019,1.00000000422725,0.633581117688567
8100.00000001194,4.67689884046346,1.00000000390482,0.594048630804826
8200.0000000123,4.68158639717978,1.00000000317305,0.566047957191019
8300.00000001266,4.74854775170079,1.00000000348009,0.556298434979234
8400.00000001303,4.86753526865223,1.00000000367316,0.564092473443641
8500.00000001339,5.00551640093631,1.00000000439115,0.581193697315515
8600.00000001376,5.14377590512,1.0000000042191,0.591364742284242
8700.00000001412,5.27262734000623,1.00000000413045,0.591107433170549
8800.00000001448,5.39177589382108,1.00000000416777,0.601595020622121
8900.00000001485,5.50517950971685,1.00000000403609,0.613818387679954
9000.00000001521,5.60156446321735,1.00000000435177,0.636251854957155
9100.00000001557,5.69283204298629,1.00000000459809,0.651514797890991
9200.00000001594,5.78090235184121,1.00000000437155,0.654342967869298
9300.0000000163,5.86412428417322,1.00000000428165,0.664155982465275
9400.00000001667,5.93195204578377,1.00000000478217,0.672023600230352
9500.00000001703,5.98597060894614,1.00000000425708,0.671291136056609
9600.00000001739,6.02856907582487,1.00000000434398,0.692432589532252
9700.00000001776,6.08117731660105,1.00000000421409,0.687907501218176
9800.00000001812,6.13372676069961,1.00000000469726,0.694977070111624
9900.00000001848,6.17566465658143,1.00000000503225,0.706567540569292
10000.0000000188,6.21475098974378,1.00000000431282,0.702126634222014
10100.0000000192,6.25386851794695,1.00000000513637,0.701419810282343
10200.0000000196,6.28678157429722,1.00000000457423,0.687478600195283
10300.0000000199,6.31488434833407,1.00000000484057,0.700420236579376
10400.0000000203,6.33050121833393,1.00000000433505,0.687129790131381
10500.0000000207,6.34766039322625,1.00000000488316,0.70254263450363
10600.000000021,6.36522951066222,1.00000000513487,0.694794037948182
10700.0000000214,6.38020545559188,1.00000000440303,0.690603599510419
10800.0000000218,6.41088280045494,1.000000004751,0.682964068649715
10900.0000000221,6.45415686559274,1.00000000448336,0.678128204474387
11000.0000000225,6.50816769162275,1.0000000053231,0.676162218490435
11100.0000000229,6.57128958550227,1.00000000475631,0.681768270957469
11200.0000000232,6.62500337699121,1.00000000519954,0.690033200119159
11300.0000000236,6.67969053973363,1.00000000501333,0.66796610848798
11400.0000000239,6.72449865542353,1.0000000051928,0.67648515163995
11500.0000000243,6.77459420918526,1.00000000443265,0.676067029334256
11600.0000000247,6.83176062535436,1.00000000528558,0.695477887175186
11700.000000025,6.87943726886937,1.00000000524476,0.690509045424003
11800.0000000254,6.92573424941759,1.00000000474704,0.710498881882832
11900.0000000258,6.9653551811497,1.00000000539684,0.693144062746516
12000.0000000261,7.00151904658165,1.00000000549557,0.682720996487264
12100.0000000265,7.04386925577425,1.00000000492132,0.672668132677072
12200.0000000269,7.10243787229855,1.00000000498339,0.684552589360879
12300.0000000272,7.1659855456168,1.00000000470369,0.684917888216007
12400.0000000276,7.22726045387167,1.00000000549869,0.694892490178813
12500.0000000279,7.27965987107825,1.00000000450504,0.698590234977609
12600.0000000283,7.33534525295415,1.00000000549244,0.699499400833933
12700.0000000287,7.3898010563132,1.00000000471056,0.692622638837253
12800.000000029,7.44860172246852,1.00000000463594,0.695238473227565
12900.0000000294,7.51923239948373,1.00000000500373,0.697242823574296
13000.0000000298,7.58345303627967,1.00000000622207,0.728568307462347
13100.0000000301,7.63079029438888,1.0000000050586,0.708113640753247
13200.0000000305,7.67818309790087,1.00000000516485,0.697206662868728
13300.0000000309,7.72625964643544,1.00000000544487,0.705095915265913
13400.0000000312,7.77558843296919,1.00000000568484,0.713044073818099
13500.0000000316,7.82556979847533,1.00000000496425,0.699693784982803
13600.0000000319,7.86669183023632,1.00000000538395,0.701106478101148
13700.0000000323,7.90719169743947,1.00000000512924,0.699649692006126
13800.0000000327,7.94711449742321,1.00000000560441,0.704008914896488
13900.000000033,7.98598135971374,1.00000000558005,0.697993641178117
14000.0000000334,8.02847099984392,1.0000000056463,0.705177019394009
14100.0000000338,8.06892953540673,1.00000000576981,0.709020735858422
14200.0000000341,8.10753476744033,1.00000000563519,0.705021272115182
14300.0000000345,8.13935175634736,1.00000000540972,0.70992507444623
14400.0000000349,8.16868112706269,1.00000000473899,0.680450017998297
14500.0000000352,8.20246686220939,1.00000000581611,0.697778062963607
14600.0000000356,8.22588164338432,1.00000000600521,0.718452817337342
14700.0000000359,8.24004593024893,1.00000000558461,0.716448506976943
14800.0000000363,8.25125147123976,1.00000000573588,0.712242232642331
14900.0000000367,8.26033103539821,1.00000000571747,0.723717026965999
15000.000000037,8.26153067623026,1.00000000602213,0.728891313990293
15100.0000000374,8.25308773859756,1.00000000611907,0.720276066104874
15200.0000000378,8.24020322261124,1.00000000541743,0.715293120796841
15300.0000000381,8.22400643105841,1.00000000480426,0.715078344109266
15400.0000000385,8.21278421658789,1.00000000616683,0.726567876767961
15500.0000000389,8.20274988317221,1.00000000566092,0.699298543142686
15600.0000000392,8.19744034544042,1.00000000540026,0.692260929796527
15700.0000000396,8.20092536932203,1.00000000633654,0.694092963849794
15800.0000000399,8.20624189747826,1.00000000573644,0.698284946188365
15900.0000000403,8.22385478947379,1.0000000055154,0.704524710083817
16000.0000000407,8.24145204983763,1.00000000590856,0.709462008915808
16100.000000041,8.27100714473246,1.00000000559976,0.697542852378603
16200.0000000414,8.31144589063804,1.00000000571155,0.679938265005191
16300.0000000418,8.37953620489535,1.00000000565705,0.662776551494733
16400.0000000418,8.48118685705641,1.00000000561293,0.643613935724903
16500.0000000404,8.64662854076217,1.00000000483202,0.632791646134224
16600.0000000389,8.87090432409126,1.00000000538777,0.64675100184514
16700.0000000375,9.17098098179114,1.00000000576661,0.651817342500333
16800.000000036,9.50458272428257,1.00000000564076,0.650950833593319
16900.0000000346,9.88169195132132,1.00000000573559,0.652816449915208
17000.0000000331,10.257153769921,1.00000000568009,0.65228008194841
17100.0000000317,10.6519588008124,1.00000000573681,0.65488122177427
17200.0000000302,11.0241929239707,1.00000000676,0.65412191747535
17300.0000000287,11.4050480793762,1.00000000673454,0.667022347059785
17400.0000000273,11.7743938339457,1.0000000061764,0.64840188711421
17500.0000000258,12.1439981159756,1.00000000576986,0.655086663007657
17600.0000000244,12.5219769776232,1.0000000058224,0.654850191136586
17700.0000000229,12.8961156111062,1.00000000642226,0.662722292988895
17800.0000000215,13.2793489295435,1.00000000631757,0.663706476194107
17900.00000002,13.6604901586672,1.00000000582023,0.667514605724788
18000.0000000186,14.0468038491768,1.00000000646471,0.669154556763723
18100.0000000171,14.4229025278653,1.00000000580744,0.684387519143053
18200.0000000156,14.8067617929371,1.00000000595993,0.693032545889874
18300.0000000142,15.1979303211579,1.00000000652853,0.700858917433104
18400.0000000127,15.5824403325725,1.00000000635477,0.706250192021353
18500.0000000113,15.9855410576543,1.00000000616938,0.706852477824456
18600.0000000098,16.3678269089092,1.00000000649001,0.715468557867602
18700.0000000084,16.7484270740551,1.00000000696934,0.707057861210723
18800.0000000069,17.1256253033335,1.00000000634345,0.72456988416204
18900.0000000055,17.496505620113,1.00000000657597,0.732832503429064
19000.000000004,17.8648009180962,1.0000000058123,0.72139834160251
19100.0000000026,18.223082177139,1.00000000681427,0.71553889675652
19200.0000000011,18.5796061779938,1.00000000685578,0.720568578797983
19299.9999999996,18.9216705681574,1.00000000663299,0.73244091612019
19399.9999999982,19.2655330272502,1.00000000672392,0.735177307703178
19499.9999999967,19.6096275963427,1.00000000700441,0.717670198342326
19599.9999999953,19.9589953932731,1.00000000729814,0.710074043010741
19699.9999999938,20.3100438882238,1.00000000651395,0.729637387433085
19799.9999999924,20.6585045748649,1.00000000664053,0.736865786498876
19899.9999999909,21.0364064220557,1.00000000637396,0.754162258670745
19999.9999999895,21.4233576502982,1.00000000634984,0.734793841916061
20099.999999988,21.8321027902274,1.00000000676674,0.743896025932737
20199.9999999865,22.2632036356051,1.00000000719009,0.737370744699527
20299.9999999851,22.7020183626789,1.00000000724138,0.738443510445237
20399.9999999836,23.1317597048047,1.00000000696954,0.74600030902843
20499.9999999822,23.535305618602,1.00000000728813,0.738025605148584
20599.9999999807,23.9207085166704,1.00000000697803,0.740964849823653
20699.9999999793,24.3088497012124,1.00000000666804,0.73970907178888
20799.9999999778,24.728653130907,1.00000000674027,0.739175592343363
20899.9999999764,25.1567850912942,1.00000000693277,0.747087027533337
20999.9999999749,25.5783818957554,1.00000000684499,0.73717472903491
21099.9999999734,26.0051216067885,1.00000000706974,0.742439456256592
21199.999999972,26.4298264530571,1.00000000729432,0.740297437400726
21299.9999999705,26.8568957529769,1.00000000702464,0.717006913491129
21399.9999999691,27.275267133658,1.00000000680612,0.729985873785148
21499.9999999676,27.7116471155544,1.00000000616427,0.73402275197808
21599.9999999662,28.1495404324881,1.00000000637645,0.744371364983655
21699.9999999647,28.6015505499553,1.00000000770148,0.746082191704847
21799.9999999633,29.0659844554292,1.00000000674925,0.737661808677393
21899.9999999618,29.5370033657433,1.00000000706894,0.747697846730012
21999.9999999603,29.9888930498042,1.00000000742265,0.740697182493372
22099.9999999589,30.4333922848829,1.00000000733536,0.725026878964904
22199.9999999574,30.8785389595246,1.00000000660767,0.734647370335799
22299.999999956,31.3462375985126,1.00000000636279,0.730368615882866
22399.9999999545,31.8237171047087,1.00000000777479,0.731416649226323
22499.9999999531,32.2999096814927,1.00000000695581,0.718670587269407
22599.9999999516,32.7775376279735,1.00000000758038,0.734589299339321
22699.9999999502,33.2503310306119,1.00000000670657,0.74227832297716
22799.9999999487,33.7449135909849,1.00000000684091,0.734805702084321
22899.9999999473,34.2450737310542,1.00000000771897,0.736552953789957
22999.9999999458,34.7434705394199,1.00000000697767,0.745475185502877
23099.9999999443,35.2251412307696,1.00000000762883,0.736015453931282
23199.9999999429,35.7114721212898,1.00000000697622,0.730175340225046
23299.9999999414,36.2087944757125,1.00000000696687,0.746207227530711
23399.99999994,36.6878749937521,1.00000000711915,0.742589641687965
23499.9999999385,37.1825073086653,1.00000000644706,0.732474351697648
23599.9999999371,37.6674969259386,1.00000000690108,0.733918059534177
23699.9999999356,38.1357050298886,1.00000000838863,0.742023761940553
23799.9999999342,38.5940763771554,1.00000000688034,0.732416025578555
23899.9999999327,39.0852809894567,1.00000000721051,0.742248644245021
23999.9999999312,39.6000843568917,1.00000000739065,0.739147387164631
24099.9999999298,40.1343517678064,1.00000000780811,0.748625550000391
24199.9999999283,40.681441291855,1.0000000073223,0.744044044959123
24299.9999999269,41.2293472172864,1.00000000776167,0.744921579050269
24399.9999999254,41.7911678312178,1.00000000720592,0.74057424897094
24499.999999924,42.3672521074536,1.00000000745099,0.74197266505003
24599.9999999225,42.9560772689662,1.00000000796293,0.747318797056039
24699.9999999211,43.5429016749127,1.0000000082677,0.742202064078788
24799.9999999196,44.135008269821,1.00000000827533,0.741986536158474
24899.9999999181,44.7264807865854,1.00000000705411,0.734419524529942
24999.9999999167,45.3168979047693,1.00000000775801,0.742891464491971
25099.9999999152,45.8856335358194,1.00000000742538,0.742665351925601
25199.9999999138,46.475320328836,1.00000000721659,0.729200659828323
25299.9999999123,47.0728309095346,1.00000000829353,0.728060010226341
25399.9999999109,47.6703307056578,1.00000000793337,0.730833120059408
25499.9999999094,48.2958608660399,1.00000000698683,0.732306299783886
25599.999999908,48.9262073640419,1.00000000856764,0.742504305762322
25699.9999999065,49.5581777274149,1.00000000794528,0.738364078205133
25799.9999999051,50.1896982226852,1.00000000755385,0.741868475000725
25899.9999999036,50.8149796661104,1.00000000730639,0.738866045514709
25999.9999999021,51.4594424160652,1.00000000764492,0.742991326728873
26099.9999999007,52.1191219632233,1.00000000718214,0.732150272577033
26199.9999998992,52.7916010843294,1.00000000763426,0.741285975929931
26299.9999998978,53.4473113497996,1.00000000760542,0.744201596750125
26399.9999998963,54.0927140942527,1.00000000811815,0.743259068751712
26499.9999998949,54.7333570162136,1.00000000808925,0.743803011057149
26599.9999998934,55.3665745857465,1.00000000802425,0.738220991490315
26699.999999892,56.0029393420195,1.00000000731328,0.743654415552612
26799.9999998905,56.6565429980717,1.00000000793758,0.740226298685221
26899.999999889,57.3046589072144,1.00000000753857,0.740632136067152
26999.9999998876,57.9472923780211,1.00000000857957,0.736190453896118
27099.9999998861,58.5897326494212,1.00000000844553,0.727247183954571
27199.9999998847,59.2240834471672,1.0000000083585,0.746805271553708
27299.9999998832,59.8539770226298,1.00000000812223,0.748544067131261
27399.9999998818,60.4930272871319,1.00000000845408,0.743481572747906
27499.9999998803,61.145160730536,1.00000000767822,0.729604742999021
27599.9999998789,61.8205666637367,1.00000000747079,0.737558917866107
27699.9999998774,62.5107374972677,1.00000000720971,0.740932328564226
27799.9999998759,63.2025988031558,1.00000000777545,0.731974305981038
27899.9999998745,63.8979591510808,1.00000000830953,0.734055453239325
27999.999999873,64.5983828748459,1.0000000077652,0.742123204049398
28099.9999998716,65.3017711620347,1.00000000855704,0.74029453844805
28199.9999998701,66.0065732850301,1.00000000837987,0.743284788982719
28299.9999998687,66.7037378966848,1.00000000874918,0.744458855784974
28399.9999998672,67.3852919552352,1.0000000079731,0.735250853375365
28499.9999998658,68.073227734616,1.00000000878169,0.734610341764241
28599.9999998643,68.7743463500562,1.00000000843495,0.736568355060164
28699.9999998629,69.4702461166585,1.00000000804256,0.747700710030148
28799.9999998614,70.1549066972317,1.00000000918249,0.742646798003868
28899.9999998599,70.8455923393681,1.00000000848526,0.733406159412885
28999.9999998585,71.546761457779,1.00000000893341,0.738154519864993
