Time,AGPnorm,Energy,Entropy
0,0,1,-1.38748410446483e-17
99.9999999999986,5.50903530181752e-05,0.9999999999969,0.00208446848581184
199.999999999993,0.00494810053444477,1.0000000000007,0.00336519876392833
300,0.0120721298309016,0.999999999998124,0.00574278740377973
400.000000000022,0.0167836695966886,0.999999999998327,0.00986888693163183
500.000000000045,0.0202492648134589,1.00000000000039,0.0130828701995241
600.000000000068,0.0288149491116955,0.999999999997019,0.0180511263747344
700.000000000091,0.0353104422877465,1.00000000000009,0.0231860281673138
800.000000000113,0.0447146236163628,0.999999999998979,0.0282658809721374
900.000000000136,0.0557441840919683,0.999999999997739,0.0348445645938289
1000.00000000016,0.0641480008649135,1.00000000000037,0.0408803098816309
1100.0000000001,0.076045513469866,0.999999999997504,0.0477850801636036
1200,0.0888450756162907,0.999999999999419,0.0554597978991595
1299.99999999991,0.101359175133565,0.999999999999608,0.0628746684382701
1399.99999999982,0.114814506144599,0.999999999997461,0.0716164898445971
1499.99999999973,0.126945833234354,1.00000000000008,0.0803319832007375
1599.99999999964,0.1410136152297,0.999999999998227,0.0896326099580245
1699.99999999955,0.156686140439099,0.999999999998807,0.100249684696703
1799.99999999946,0.170871925720423,0.999999999999828,0.110833077109851
1899.99999999937,0.185036470072003,0.999999999997559,0.122872576336323
1999.99999999928,0.199341603093793,0.999999999999827,0.135887278526849
2099.99999999919,0.214159458422972,0.999999999999765,0.149995108994233
2199.99999999909,0.229619919373367,1.00000000000207,0.166894957976255
2299.999999999,0.243322468874945,1.00000000001462,0.185170946589028
2399.99999999891,0.258536621531172,1.00000000003625,0.205990626552939
2499.99999999882,0.269926672849353,1.00000000008272,0.228626643472181
2599.99999999873,0.289668349812451,1.00000000015751,0.251199027084635
2699.99999999864,0.311329583770513,1.00000000023744,0.274716413699005
2799.99999999855,0.332203687792873,1.00000000035019,0.296929101935867
2899.99999999846,0.394119393833227,1.00000000046309,0.318639936037713
2999.99999999837,0.460884284318332,1.00000000056245,0.340506654887752
3099.99999999828,0.586176160195001,1.0000000006996,0.360460196078014
3199.99999999819,0.788708286615444,1.00000000081368,0.380106905011088
3299.99999999809,1.03989755802165,1.00000000093533,0.39872709855264
3399.999999998,1.43775195006351,1.00000000103293,0.415693152387382
3499.99999999791,1.94170612006474,1.00000000111323,0.432753841118049
3599.99999999782,2.58560636537505,1.00000000123001,0.447869091029656
3699.99999999773,3.43539521275993,1.00000000126378,0.462136430681931
3799.99999999764,4.42532944893099,1.00000000132418,0.476032209500785
3899.99999999755,5.64039642427867,1.00000000137024,0.488058708171383
3999.99999999746,7.0708390254023,1.00000000146495,0.499498692118586
4099.99999999738,8.68657684946906,1.00000000146199,0.510385834518319
4199.99999999775,10.5628624640249,1.00000000158643,0.519505728614858
4299.99999999811,12.6334519833066,1.00000000152398,0.528964035555632
4399.99999999848,14.9197666922411,1.00000000157457,0.537062085532738
4499.99999999884,17.4435924373067,1.00000000154471,0.544407374087479
4599.9999999992,20.1384921321053,1.00000000164156,0.551504327145876
4699.99999999957,23.0470933803045,1.00000000165773,0.557466776757719
4799.99999999993,26.133877532491,1.00000000159847,0.563342218843496
4900.00000000029,29.3664783531749,1.00000000162,0.568694238470685
5000.00000000066,32.7731669934173,1.00000000158167,0.5731445752463
5100.00000000102,36.2945483621036,1.00000000159113,0.577513864278716
5200.00000000139,39.9316671067075,1.00000000157797,0.581380590358019
5300.00000000175,43.6777252273085,1.00000000160806,0.584407379405209
5400.00000000211,47.4829607050069,1.00000000156376,0.587871357930135
5500.00000000248,51.3622708799921,1.00000000151822,0.590422789179835
5600.00000000284,55.2822727078009,1.00000000157956,0.592420259746869
5700.00000000321,59.2182634084883,1.00000000155611,0.594883426494881
5800.00000000357,63.1767175689489,1.00000000150537,0.596551635464884
5900.00000000393,67.1162975205432,1.00000000147664,0.598177854210918
6000.0000000043,71.0364559301901,1.00000000146492,0.599404935086356
6100.00000000466,74.9261792785802,1.000000001411,0.600211412290064
6200.00000000502,78.7545030587897,1.00000000146455,0.601244038637597
6300.00000000539,82.5299815713508,1.00000000141828,0.60176839654061
6400.00000000575,86.2273909088254,1.00000000135249,0.602426922060356
6500.00000000612,89.8370890025952,1.0000000013699,0.602962864095969
6600.00000000648,93.3607754229015,1.00000000135633,0.602832555657841
6700.00000000684,96.7728723781688,1.00000000130408,0.603457188494328
6800.00000000721,100.079678747067,1.00000000135055,0.603101397628707
6900.00000000757,103.271080937806,1.00000000132343,0.603079664448974
7000.00000000793,106.334189739012,1.00000000128303,0.603733454439339
7100.0000000083,109.276967881044,1.0000000011955,0.602941939294481
7200.00000000866,112.083165890465,1.00000000124089,0.602487863055883
7300.00000000903,114.755163186574,1.00000000117468,0.603080868494986
7400.00000000939,117.294005506913,1.00000000116424,0.601744623823381
7500.00000000975,119.687557177412,1.00000000114293,0.602495882275289
7600.00000001012,121.946839832913,1.00000000112707,0.600535928856278
7700.00000001048,124.062337679832,1.00000000114058,0.601712942597057
7800.00000001084,126.035943616575,1.00000000106825,0.600143376154869
7900.00000001121,127.875028175792,1.00000000108675,0.600229159572347
8000.00000001157,129.568570161188,1.00000000106828,0.599410828432757
8100.00000001194,131.131151726741,1.00000000103673,0.599302634953287
8200.0000000123,132.55492373667,1.00000000102898,0.598308945200817
8300.00000001266,133.845616394795,1.00000000099216,0.598354311014731
8400.00000001303,135.008155731092,1.00000000101729,0.597377388825137
8500.00000001339,136.040076932706,1.00000000095241,0.597110519654948
8600.00000001376,136.948249585227,1.00000000096508,0.597255140912777
8700.00000001412,137.736497190624,1.0000000009386,0.596160140061071
8800.00000001448,138.402185301343,1.00000000092865,0.595566148954872
8900.00000001485,138.960068717139,1.0000000009602,0.597188533403683
9000.00000001521,139.403896959872,1.00000000089035,0.592641687874458
9100.00000001557,139.743523499833,1.00000000089892,0.598132353847921
9200.00000001594,139.986791050868,1.0000000008747,0.593087799077157
9300.0000000163,140.1283588463,1.00000000086272,0.592681421327636
9400.00000001667,140.186251603637,1.0000000008888,0.597302716791317
9500.00000001703,140.159265616674,1.00000000082382,0.588645592717679
9600.00000001739,140.048459542489,1.00000000085465,0.592771906734379
9700.00000001776,139.871716715078,1.0000000009026,0.595203363594913
9800.00000001812,139.62401171717,1.00000000079766,0.582511083610533
9900.00000001848,139.309456529796,1.00000000089508,0.59267670474967
10000.0000000188,138.944436858704,1.0000000008967,0.591844027375628
10100.0000000192,138.522388270879,1.00000000078512,0.577388719357968
10200.0000000196,138.044675625462,1.0000000009417,0.590901438376302
10300.0000000199,137.530710606561,1.00000000097107,0.590152637011733
10400.0000000203,136.973041791069,1.0000000008055,0.572589780143668
10500.0000000207,136.367750797016,1.00000000090441,0.587458613198566
10600.000000021,135.739324377221,1.00000000094379,0.589245097282326
10700.0000000214,135.080370644324,1.0000000008349,0.571699177272945
10800.0000000218,134.383676077789,1.00000000088385,0.578775300170495
10900.0000000221,133.671578739751,1.0000000009893,0.58663432771658
11000.0000000225,132.942308412186,1.00000000089428,0.575962629043665
11100.0000000229,132.18732939044,1.0000000008444,0.56677521160511
11200.0000000232,131.415896323196,1.00000000099374,0.582220782756505
11300.0000000236,130.63568611913,1.00000000097304,0.577283119459999
11400.0000000239,129.844735414749,1.00000000087677,0.569271194805598
11500.0000000243,129.035522219604,1.0000000008983,0.568070251948437
11600.0000000247,128.22007842005,1.00000000094902,0.574735638529631
11700.000000025,127.403162007654,1.00000000095342,0.572540102040769
11800.0000000254,126.577501656399,1.00000000089081,0.566022788748097
11900.0000000258,125.745754249577,1.00000000093101,0.564883105032236
12000.0000000261,124.911598595412,1.00000000096265,0.568843022245111
12100.0000000265,124.078376012715,1.00000000095513,0.565986435636967
12200.0000000269,123.244174903821,1.00000000093834,0.566625060863827
12300.0000000272,122.406552451927,1.00000000092874,0.56132685571961
12400.0000000276,121.571031533488,1.00000000097982,0.564444948966044
12500.0000000279,120.738780088398,1.0000000009689,0.555822111497188
12600.0000000283,119.90792338015,1.00000000094445,0.566132940519572
12700.0000000287,119.08065445306,1.00000000094175,0.562868797611024
12800.000000029,118.255144009597,1.00000000097501,0.559821772075468
12900.0000000294,117.4356187705,1.00000000094183,0.553868981313922
13000.0000000298,116.619643562336,1.00000000086632,0.548830168330911
13100.0000000301,115.808103089398,1.0000000009897,0.567479624864367
13200.0000000305,115.002970089594,1.00000000095121,0.561033190984799
13300.0000000309,114.20309396061,1.00000000101111,0.558300658888043
13400.0000000312,113.4099874796,1.00000000092792,0.545982903681377
13500.0000000316,112.621696373003,1.00000000088893,0.542786994625787
13600.0000000319,111.839526064389,1.00000000097174,0.562627895689424
13700.0000000323,111.065221983193,1.0000000009855,0.56501215201049
13800.0000000327,110.297919671676,1.00000000096117,0.557019366293417
13900.000000033,109.538181163679,1.0000000009646,0.54629021076194
14000.0000000334,108.784659611118,1.00000000090644,0.538641038842702
14100.0000000338,108.037580140918,1.00000000097061,0.548260575894671
14200.0000000341,107.298698271773,1.00000000100015,0.565540506373824
14300.0000000345,106.567517565029,1.00000000096086,0.561420341829398
14400.0000000349,105.844676223596,1.00000000094855,0.552079680709736
14500.0000000352,105.129627590982,1.0000000008953,0.542776354565313
14600.0000000356,104.42149253416,1.00000000087878,0.539111556590171
14700.0000000359,103.721408529895,1.0000000009212,0.547222482367387
14800.0000000363,103.029261525127,1.00000000098688,0.564183505403003
14900.0000000367,102.345617175009,1.0000000009178,0.56113342315534
15000.000000037,101.670327819496,1.00000000095463,0.552758600424575
15100.0000000374,101.002812697181,1.00000000095346,0.549110673175978
15200.0000000378,100.343928950539,1.00000000086322,0.541784854278057
15300.0000000381,99.693485142192,1.00000000092903,0.546116292792385
15400.0000000385,99.0513086514467,1.00000000095419,0.554351747875179
15500.0000000389,98.4177148812206,1.000000000951,0.561818883095456
15600.0000000392,97.7922906811351,1.00000000089891,0.557230151345944
15700.0000000396,97.1753461162707,1.00000000098124,0.552286928676969
15800.0000000399,96.5670242449304,1.00000000090154,0.546948906927196
15900.0000000403,95.9675741961344,1.00000000089291,0.550466292395252
16000.0000000407,95.3768657367018,1.00000000090518,0.552314601476708
16100.000000041,94.7947419557123,1.0000000009248,0.548715467250341
16200.0000000414,94.2212421091168,1.00000000092124,0.558978504869639
16300.0000000418,93.6560269484336,1.00000000092903,0.558819275152554
16400.0000000418,93.099420949393,1.00000000087349,0.549653770990764
16500.0000000404,92.5516179015778,1.00000000093951,0.547723958976479
16600.0000000389,92.012057514113,1.00000000091634,0.552558693431142
16700.0000000375,91.480774655601,1.00000000092923,0.553177930002754
16800.000000036,90.9578351697626,1.0000000009323,0.554333808335411
16900.0000000346,90.4430827204465,1.00000000094861,0.549125824590927
17000.0000000331,89.9364878598545,1.00000000094685,0.553853955969818
17100.0000000317,89.4390101925004,1.00000000089931,0.551831165234773
17200.0000000302,88.9502443211489,1.00000000092201,0.54997508167785
17300.0000000287,88.4697640000067,1.00000000093557,0.548682584625711
17400.0000000273,87.9961635775685,1.00000000095372,0.548769217342197
17500.0000000258,87.5303188411896,1.00000000092328,0.548622509183688
17600.0000000244,87.0716543307934,1.00000000096556,0.554374935428251
17700.0000000229,86.6182426036984,1.0000000010412,0.562516563386572
17800.0000000215,86.1719920047912,1.00000000088719,0.544856417959326
17900.00000002,85.7354124556185,1.00000000091281,0.543684692912362
18000.0000000186,85.3081260025101,1.0000000008979,0.550621789020507
18100.0000000171,84.8887370390061,1.00000000093896,0.551100068345462
18200.0000000156,84.4758375413218,1.00000000096775,0.548876592655451
18300.0000000142,84.0698845821665,1.00000000092004,0.543255719675005
18400.0000000127,83.6707659523103,1.00000000090271,0.548709966495885
18500.0000000113,83.2771624465862,1.00000000103463,0.553492531852267
18600.0000000098,82.8863037068388,1.00000000104727,0.563820144604189
18700.0000000084,82.4993077230799,1.00000000097942,0.558688189691251
18800.0000000069,82.1208329602422,1.00000000085279,0.537877473364227
18900.0000000055,81.752626183055,1.00000000085973,0.543909249953975
19000.000000004,81.3934839891615,1.00000000090336,0.549590403719903
19100.0000000026,81.0413051564999,1.00000000098697,0.551443126573171
19200.0000000011,80.6944344988768,1.00000000095723,0.550838390170992
19299.9999999996,80.3546697517848,1.00000000089262,0.542220331107906
19399.9999999982,80.0216138858549,1.00000000091897,0.549109381922327
19499.9999999967,79.6915163156354,1.00000000102234,0.558436568459159
19599.9999999953,79.3627000456326,1.00000000104231,0.558484447679035
19699.9999999938,79.0355065425766,1.00000000097957,0.562687155647395
19799.9999999924,78.7127880434056,1.00000000094872,0.556907222926257
19899.9999999909,78.3985523446255,1.00000000085556,0.542529820639484
19999.9999999895,78.0940670141228,1.00000000087588,0.546371433999909
20099.999999988,77.7982663229155,1.00000000092951,0.554585438061944
20199.9999999865,77.508996128701,1.0000000009556,0.554156874577878
20299.9999999851,77.2254852463281,1.00000000092189,0.5500531184361
20399.9999999836,76.9484388888888,1.00000000094351,0.551700813381228
20499.9999999822,76.6765977051695,1.00000000090802,0.550184090183991
20599.9999999807,76.4084966563765,1.000000000973,0.559200756170702
20699.9999999793,76.1403465349897,1.00000000102802,0.561721054340421
20799.9999999778,75.872788996946,1.00000000102595,0.555786156462896
20899.9999999764,75.6067178804545,1.00000000100325,0.558112740130505
20999.9999999749,75.3444336095903,1.00000000093181,0.562152229153677
21099.9999999734,75.0884715330757,1.00000000091412,0.557018414809639
21199.999999972,74.8401881682575,1.00000000087969,0.550591571663833
21299.9999999705,74.5999852740283,1.00000000092998,0.55694868934508
21399.9999999691,74.3674289669372,1.00000000090418,0.559273930525346
21499.9999999676,74.1426995755648,1.00000000096153,0.553729147246955
21599.9999999662,73.9239303685562,1.00000000098583,0.557955227388558
21699.9999999647,73.7093535997435,1.00000000095358,0.559277665989165
21799.9999999633,73.4981394409686,1.00000000093302,0.56254313317997
21899.9999999618,73.2881440739453,1.00000000102277,0.566839905392391
21999.9999999603,73.0787018263632,1.00000000096707,0.567614756844343
22099.9999999589,72.8711360663615,1.00000000099289,0.558648602034598
22199.9999999574,72.6650452333401,1.00000000096801,0.555416163965455
22299.999999956,72.4599510001107,1.00000000100602,0.564640631142548
22399.9999999545,72.2567613190363,1.00000000097086,0.572774801341165
22499.9999999531,72.0575342583208,1.00000000094607,0.567428073458525
22599.9999999516,71.8645284336098,1.00000000091633,0.559691102887318
22699.9999999502,71.679269571898,1.00000000090731,0.560659533445097
22799.9999999487,71.5012123805278,1.00000000095703,0.564412038230553
22899.9999999473,71.3308107972793,1.00000000088917,0.559701682203081
22999.9999999458,71.1676509424943,1.00000000096579,0.557926615965088
23099.9999999443,71.0091597073236,1.0000000009819,0.564419539434191
23199.9999999429,70.8528785973554,1.00000000097428,0.571932847736199
23299.9999999414,70.6971699793122,1.00000000099178,0.574378754922899
23399.99999994,70.5409217638658,1.00000000103794,0.575528750471425
23499.9999999385,70.3850909115166,1.00000000096539,0.568723362613887
23599.9999999371,70.2320696741771,1.00000000096348,0.561766878765104
23699.9999999356,70.0815791345141,1.00000000096706,0.554947218862293
23799.9999999342,69.932194682571,1.00000000098228,0.556511537085983
23899.9999999327,69.7825708915377,1.00000000103337,0.569708260721239
23999.9999999312,69.631166628644,1.00000000104323,0.580266417469924
24099.9999999298,69.4801504340635,1.00000000098666,0.575921828550663
24199.9999999283,69.3331897164812,1.00000000092843,0.566417490189958
24299.9999999269,69.1939463239166,1.000000000894,0.560655954048224
24399.9999999254,69.0632341114898,1.00000000092923,0.557437517659732
24499.999999924,68.9397519162046,1.0000000009227,0.559745916262046
24599.9999999225,68.8224539170742,1.00000000093638,0.558508608347151
24699.9999999211,68.7103846719623,1.00000000097848,0.564575604280317
24799.9999999196,68.6009883711712,1.00000000095726,0.571471497430778
24899.9999999181,68.492349313186,1.00000000099829,0.580330468447484
24999.9999999167,68.3804395092615,1.00000000106241,0.584865547268734
25099.9999999152,68.2660477570628,1.00000000102601,0.57980714101723
25199.9999999138,68.1513226934122,1.00000000099918,0.574201797865115
25299.9999999123,68.0392184671808,1.00000000091858,0.567870279610911
25399.9999999109,67.9324690871562,1.0000000008894,0.562939141408625
25499.9999999094,67.8297406418598,1.00000000090682,0.557189405424474
25599.999999908,67.7280968873933,1.00000000099983,0.565700166395754
25699.9999999065,67.6226018114304,1.00000000107144,0.578183728956854
25799.9999999051,67.5113959116566,1.00000000108533,0.587465695518253
25899.9999999036,67.3971680484948,1.00000000103622,0.587080404455415
25999.9999999021,67.2840921555013,1.00000000094941,0.581285241366693
26099.9999999007,67.176295687812,1.0000000009182,0.568241280355988
26199.9999998992,67.0774455825864,1.00000000088765,0.561116574531447
26299.9999998978,66.988172773632,1.00000000088147,0.558203639269673
26399.9999998963,66.9070384542923,1.00000000096664,0.562981501951366
26499.9999998949,66.8306737892401,1.00000000095832,0.567434889562264
26599.9999998934,66.7586480975766,1.00000000096448,0.575099343280807
26699.999999892,66.6890403057506,1.00000000098227,0.584911198789523
26799.9999998905,66.6184802058888,1.00000000103655,0.588959312588445
26899.999999889,66.5447616973628,1.00000000103414,0.593778235156629
26999.9999998876,66.4666227020236,1.00000000106114,0.591862299507775
27099.9999998861,66.3866668114747,1.00000000098205,0.583741849606975
27199.9999998847,66.3076794688765,1.00000000097143,0.57818565590928
27299.9999998832,66.2319467302122,1.00000000093089,0.573114767875028
27399.9999998818,66.1615848849584,1.00000000091344,0.576719634477755
27499.9999998803,66.0950829453094,1.00000000094962,0.581622168316237
27599.9999998789,66.0291260305074,1.00000000099442,0.585198987330805
27699.9999998774,65.9606768122473,1.00000000109337,0.589024960518591
27799.9999998759,65.8870541485137,1.00000000109361,0.593259713229253
27899.9999998745,65.8096266758064,1.00000000106624,0.59176258046193
27999.999999873,65.7300164682394,1.00000000100734,0.595177202570013
28099.9999998716,65.6496685783492,1.00000000103991,0.597132844784949
28199.9999998701,65.5713076781389,1.00000000094914,0.589489591641262
28299.9999998687,65.4991799889947,1.00000000088363,0.575669930000985
28399.9999998672,65.4367973167555,1.00000000084451,0.569670216795608
28499.9999998658,65.3845713997535,1.00000000089595,0.571363216247819
28599.9999998643,65.3395971965382,1.00000000092059,0.576768108864184
28699.9999998629,65.2994081837601,1.00000000101907,0.58362932716969
28799.9999998614,65.2588786823055,1.00000000105155,0.594174912967411
28899.9999998599,65.2173236984796,1.00000000103143,0.601318329238153
28999.9999998585,65.1742536455112,1.00000000101041,0.607704387096894
