Time,AGPnorm,Energy,Entropy
0,0,1,-7.30610059048656e-17
99.9999999999986,0.000384536773809696,1.00000000000052,0.00144257751540732
199.999999999993,0.00251749333852039,1.00000000000143,0.00437286806099188
300,0.00522601604413838,1.00000000000127,0.00823211365148498
400.000000000022,0.00814685435066318,1.00000000000031,0.0129882755210006
500.000000000045,0.0115992575708329,1.00000000000004,0.0187876006446652
600.000000000068,0.016386090473933,1.00000000000102,0.0254619759921019
700.000000000091,0.021326138685369,1.0000000000015,0.0328010520206485
800.000000000113,0.027097812268748,1.00000000000091,0.0407093304755725
900.000000000136,0.0331275138627594,0.999999999999939,0.0493275978155807
1000.00000000016,0.0400023985395543,1.00000000000048,0.0586892238529022
1100.0000000001,0.0469894145441719,1.00000000000135,0.0688486147483978
1200,0.0545582754314848,1.00000000000141,0.0796449027322295
1299.99999999991,0.0622201268653904,1.00000000000036,0.0912588910421449
1399.99999999982,0.0702459179990745,1.00000000000009,0.10373583103526
1499.99999999973,0.0786911287999355,1.00000000000098,0.117374065703716
1599.99999999964,0.0868471304169374,1.00000000000174,0.132148763507535
1699.99999999955,0.0954711765853968,1.00000000000165,0.148355941852693
1799.99999999946,0.103719175454155,1.00000000000157,0.16624152247977
1899.99999999937,0.112222138617544,1.00000000000505,0.186308893725758
1999.99999999928,0.120942117931738,1.00000000001232,0.20868746543849
2099.99999999919,0.133045254578122,1.0000000000256,0.233208033417253
2199.99999999909,0.147299718101889,1.00000000004755,0.259346205116338
2299.999999999,0.166832837583631,1.00000000007704,0.286075054955594
2399.99999999891,0.207174034478092,1.0000000001163,0.312612357492633
2499.99999999882,0.294863465121642,1.00000000015391,0.337962121794259
2599.99999999873,0.450271338333989,1.00000000020723,0.361615422997285
2699.99999999864,0.699917706577421,1.00000000024493,0.383262410305802
2799.99999999855,1.09329995342752,1.00000000029289,0.403088748070678
2899.99999999846,1.69316594548022,1.00000000033543,0.420867361933929
2999.99999999837,2.54756105007999,1.00000000038883,0.436887741592002
3099.99999999828,3.6957045880978,1.00000000041141,0.451302636585525
3199.99999999819,5.18066665660233,1.00000000043651,0.464232817522602
3299.99999999809,7.05211516564956,1.00000000046126,0.475633020993375
3399.999999998,9.34407141662825,1.00000000050378,0.48573058873125
3499.99999999791,12.0778384268298,1.00000000050223,0.494819625790022
3599.99999999782,15.2625063638973,1.00000000053825,0.502775856824865
3699.99999999773,18.8979700016062,1.00000000055278,0.509515428896428
3799.99999999764,22.9799523939846,1.00000000053877,0.515431178872072
3899.99999999755,27.5021251260181,1.00000000058492,0.52071862675751
3999.99999999746,32.445606872384,1.00000000057345,0.525383153737789
4099.99999999738,37.7726116659675,1.0000000005558,0.528887653223446
4199.99999999775,43.4432033313051,1.0000000005565,0.531866533339131
4299.99999999811,49.4248959755336,1.00000000053529,0.535094296946765
4399.99999999848,55.6933520835789,1.00000000055384,0.536750235758323
4499.99999999884,62.2030951836517,1.00000000055783,0.53821910447531
4599.9999999992,68.8937344503508,1.00000000056861,0.53935753572823
4699.99999999957,75.7189074185697,1.00000000056241,0.540489603743318
4799.99999999993,82.6561938138799,1.00000000053546,0.540680063937128
4900.00000000029,89.6687794877645,1.00000000053172,0.540768006803237
5000.00000000066,96.7010541274836,1.00000000051009,0.541157671986527
5100.00000000102,103.704825180118,1.00000000051965,0.540287407074424
5200.00000000139,110.654278775344,1.00000000053186,0.540083489151125
5300.00000000175,117.531360713827,1.00000000052756,0.53990442917761
5400.00000000211,124.299809983868,1.00000000050799,0.538729977317313
5500.00000000248,130.914719727484,1.00000000048382,0.537440207471582
5600.00000000284,137.35300858353,1.00000000050199,0.537256362347557
5700.00000000321,143.606106747538,1.00000000047558,0.535771000637128
5800.00000000357,149.659103872398,1.00000000046275,0.533654709395651
5900.00000000393,155.480023953867,1.00000000045405,0.532588870157349
6000.0000000043,161.047169729469,1.00000000043694,0.531946098408606
6100.00000000466,166.353477098254,1.00000000043201,0.530192482774626
6200.00000000502,171.399507340304,1.00000000042935,0.528002535039323
6300.00000000539,176.172664178182,1.00000000042884,0.527033109953075
6400.00000000575,180.656493034361,1.00000000040784,0.526671611140851
6500.00000000612,184.844896696968,1.00000000040956,0.524740078594724
6600.00000000648,188.743828997496,1.00000000039838,0.521565954469836
6700.00000000684,192.357123768668,1.00000000038657,0.520533216203145
6800.00000000721,195.682228995425,1.00000000038503,0.522135177367145
6900.00000000757,198.717204863159,1.00000000037173,0.521526201682507
7000.00000000793,201.46327583115,1.00000000037432,0.516200500713144
7100.0000000083,203.925272758824,1.00000000035842,0.511451821971461
7200.00000000866,206.111057859485,1.00000000034644,0.514444175333543
7300.00000000903,208.035319929575,1.00000000036137,0.522121361064892
7400.00000000939,209.714437118491,1.00000000034722,0.522705892832001
7500.00000000975,211.149819477532,1.00000000033049,0.512069297629396
7600.00000001012,212.326862182389,1.00000000031486,0.498686413911847
7700.00000001048,213.240273166217,1.00000000030476,0.500853509499061
7800.00000001084,213.923282001997,1.00000000032112,0.518799098029734
7900.00000001121,214.430480735236,1.0000000003547,0.532331555691888
8000.00000001157,214.789208199921,1.00000000034747,0.526746703365204
8100.00000001194,214.973460267531,1.00000000030046,0.501553003145254
8200.0000000123,214.930707102641,1.00000000023494,0.477244925063979
8300.00000001266,214.652011190623,1.00000000024481,0.484311850476036
8400.00000001303,214.200547111666,1.00000000030657,0.516194923377137
8500.00000001339,213.665555804186,1.00000000036996,0.541490308893437
8600.00000001376,213.09422698688,1.0000000003764,0.544184024983144
8700.00000001412,212.462992649857,1.00000000034147,0.517610116892711
8800.00000001448,211.699233570362,1.00000000023885,0.471034059940666
8900.00000001485,210.745704406593,1.00000000017837,0.443315176143742
9000.00000001521,209.62153067308,1.00000000022493,0.4671703424821
9100.00000001557,208.408784968776,1.00000000033342,0.514568516576652
9200.00000001594,207.19419176645,1.0000000004282,0.547044843524283
9300.0000000163,206.024056703954,1.00000000040845,0.553977862339667
9400.00000001667,204.886648544545,1.00000000037521,0.532982872994456
9500.00000001703,203.718239130328,1.00000000028697,0.481190007867355
9600.00000001739,202.440524589389,1.00000000017589,0.418850005144251
9700.00000001776,201.020535061366,1.00000000014116,0.400419948715499
9800.00000001812,199.497151067479,1.00000000022108,0.445854694053397
9900.00000001848,197.945506717746,1.00000000034533,0.505215449915649
10000.0000000188,196.430836651856,1.00000000045543,0.542214942767046
10100.0000000192,194.987642303444,1.00000000050705,0.555170029642976
10200.0000000196,193.61636162487,1.00000000047384,0.54733464746262
10300.0000000199,192.282737976762,1.00000000038422,0.510689869845021
10400.0000000203,190.928235440368,1.00000000025933,0.444146800082615
10500.0000000207,189.501347970475,1.00000000015363,0.374816021888537
10600.000000021,187.987905947764,1.00000000013132,0.354806855731373
10700.0000000214,186.417314566019,1.0000000002008,0.400483861157114
10800.0000000218,184.836335297822,1.00000000032546,0.469179241855663
10900.0000000221,183.283782718598,1.00000000042547,0.518825381560794
11000.0000000225,181.784765244188,1.00000000048488,0.541232903946204
11100.0000000229,180.351597477368,1.00000000047088,0.547883026188252
11200.0000000232,178.98099219946,1.0000000004711,0.540652727444727
11300.0000000236,177.652218774068,1.000000000395,0.51435808846973
11400.0000000239,176.332100719462,1.00000000030651,0.461450800363456
11500.0000000243,174.988189413086,1.0000000002165,0.392196212435969
11600.0000000247,173.605532256614,1.00000000014996,0.340812565817672
11700.000000025,172.192643757756,1.00000000014498,0.337342739365441
11800.0000000254,170.771407750623,1.000000000202,0.379158150975286
11900.0000000258,169.359843366295,1.00000000029645,0.44359660935001
12000.0000000261,167.96836039619,1.00000000038604,0.494074880190527
12100.0000000265,166.604734674491,1.0000000004575,0.518579692987487
12200.0000000269,165.276321408368,1.00000000046331,0.526769581279493
12300.0000000272,163.987588885608,1.00000000045469,0.532157275281407
12400.0000000276,162.737289599192,1.00000000046338,0.534034358722629
12500.0000000279,161.516948217898,1.00000000041702,0.519744053040009
12600.0000000283,160.313091488174,1.00000000034688,0.484454027347862
12700.0000000287,159.113158641117,1.00000000027805,0.436286630937161
12800.000000029,157.911438705894,1.00000000021949,0.387570724507447
12900.0000000294,156.711374955577,1.00000000018983,0.353773958891145
13000.0000000298,155.522301694271,1.00000000017611,0.348750468105518
13100.0000000301,154.353337031926,1.00000000020612,0.37175706812237
13200.0000000305,153.20804457257,1.00000000025676,0.408668801725826
13300.0000000309,152.083218664791,1.00000000031475,0.454924916747768
13400.0000000312,150.973348306234,1.00000000034701,0.493302338218181
13500.0000000316,149.875353651869,1.00000000036619,0.507893958510809
13600.0000000319,148.788784707733,1.00000000037012,0.504634822814425
13700.0000000323,147.713825936714,1.0000000004003,0.502689949215804
13800.0000000327,146.651487381756,1.00000000042609,0.513951105020666
13900.000000033,145.6038242485,1.00000000044355,0.53109685068946
14000.0000000334,144.572500896961,1.00000000040054,0.535181058530812
14100.0000000338,143.556742240575,1.00000000036297,0.516268380654982
14200.0000000341,142.554759247217,1.0000000003012,0.47741258379274
14300.0000000345,141.567503160432,1.00000000023238,0.430733297489219
14400.0000000349,140.60054158264,1.0000000001771,0.391589424454001
14500.0000000352,139.661524436773,1.00000000019966,0.368469408971486
14600.0000000356,138.756004704661,1.00000000022658,0.364323774954408
14700.0000000359,137.885476268659,1.00000000024958,0.378251833242861
14800.0000000363,137.04778129931,1.00000000027699,0.407160635710599
14900.0000000367,136.236172859812,1.0000000002898,0.433346462295184
15000.000000037,135.44097687415,1.00000000034155,0.45775090322129
15100.0000000374,134.652902047225,1.00000000036624,0.481410760209084
15200.0000000378,133.867541500557,1.00000000034078,0.501525611739884
15300.0000000381,133.087049971444,1.00000000030809,0.503257936682957
15400.0000000385,132.315658859402,1.00000000027288,0.489803507621938
15500.0000000389,131.553799819309,1.00000000030816,0.476560800928669
15600.0000000392,130.795507560461,1.00000000034666,0.478251964679183
15700.0000000396,130.032554886549,1.00000000041609,0.495405240015684
15800.0000000399,129.261478664407,1.00000000047843,0.517654750911698
15900.0000000403,128.484633041429,1.0000000004843,0.534960368416346
16000.0000000407,127.707282002865,1.00000000044324,0.537788915417856
16100.000000041,126.935452349899,1.00000000038993,0.52256254775962
16200.0000000414,126.175157804759,1.00000000031642,0.492298953699254
16300.0000000418,125.43428961815,1.00000000025768,0.452381138022341
16400.0000000418,124.723409849005,1.00000000018659,0.412970559562585
16500.0000000404,124.053942289182,1.00000000016468,0.38290840658738
16600.0000000389,123.432041346372,1.00000000018346,0.366148066595535
16700.0000000375,122.855489173597,1.00000000023256,0.368384779610103
16800.000000036,122.315421892434,1.00000000027948,0.383366256888162
16900.0000000346,121.802895052991,1.00000000029975,0.406129995670676
17000.0000000331,121.310476919699,1.00000000031408,0.430081524147994
17100.0000000317,120.830598371495,1.0000000003398,0.452851694970787
17200.0000000302,120.355661360724,1.00000000034379,0.469450519453832
17300.0000000287,119.878322008325,1.00000000037078,0.481840153821579
17400.0000000273,119.394663116395,1.00000000037982,0.492426079760958
17500.0000000258,118.903582887903,1.00000000035747,0.501681933107881
17600.0000000244,118.409233989673,1.00000000033367,0.506666235509434
17700.0000000229,117.917840989218,1.00000000029125,0.503719933874659
17800.0000000215,117.435867355129,1.00000000026776,0.496328552450425
17900.00000002,116.965249179492,1.00000000027705,0.486810273864657
18000.0000000186,116.501234499581,1.00000000029817,0.481054297283863
18100.0000000171,116.03449337779,1.00000000035342,0.479344065350062
18200.0000000156,115.556293479115,1.00000000039295,0.484693485985835
18300.0000000142,115.060446713194,1.00000000042368,0.495247449372339
18400.0000000127,114.545735948304,1.00000000044737,0.508676311587091
18500.0000000113,114.014764494866,1.00000000044143,0.524867135549572
18600.0000000098,113.473262014675,1.00000000043091,0.536737839379496
18700.0000000084,112.928361370334,1.00000000039134,0.536560155131098
18800.0000000069,112.387526801545,1.00000000036032,0.522785610066482
18900.0000000055,111.859465265394,1.00000000029227,0.497093335739237
19000.000000004,111.353801474801,1.00000000023268,0.464694524914282
19100.0000000026,110.880254666873,1.00000000020716,0.433994143161044
19200.0000000011,110.44736770987,1.00000000020607,0.413255918157525
19299.9999999996,110.061327201861,1.00000000019614,0.399056551318337
19399.9999999982,109.724917589787,1.00000000020547,0.388693121981119
19499.9999999967,109.436693092139,1.0000000002296,0.385253472257841
19599.9999999953,109.189675269797,1.00000000024048,0.389335249899145
19699.9999999938,108.971460883908,1.00000000030244,0.40576822142774
19799.9999999924,108.767712406812,1.00000000033331,0.430307773015341
19899.9999999909,108.567917564673,1.00000000035041,0.452197233641252
19999.9999999895,108.367798800343,1.00000000035792,0.466826528073146
20099.999999988,108.168943807516,1.00000000032864,0.475324116688793
20199.9999999865,107.975963597408,1.0000000003043,0.478557009090777
20299.9999999851,107.791605574586,1.00000000028095,0.479023395920293
20399.9999999836,107.614119709665,1.00000000029356,0.48160523923937
20499.9999999822,107.436922185295,1.00000000031649,0.489838200832523
20599.9999999807,107.249958417462,1.00000000035814,0.502077077930564
20699.9999999793,107.04396189412,1.00000000039191,0.513798297182209
20799.9999999778,106.814249413857,1.00000000040821,0.523075271391279
20899.9999999764,106.56153126784,1.00000000038659,0.529635512499716
20999.9999999749,106.291545544356,1.00000000037571,0.532274353512896
21099.9999999734,106.012641576802,1.00000000032604,0.530305899734663
21199.999999972,105.732713442085,1.00000000030046,0.523831089362355
21299.9999999705,105.456910162112,1.00000000027465,0.513662848505662
21399.9999999691,105.186622398303,1.00000000026582,0.505368163465758
21499.9999999676,104.921265563623,1.00000000028094,0.500640651321557
21599.9999999662,104.658235613342,1.00000000029871,0.494549003821712
21699.9999999647,104.394234548802,1.00000000031685,0.488629435044083
21799.9999999633,104.124565844991,1.00000000034373,0.488299040851947
21899.9999999618,103.843642689396,1.00000000037697,0.493427795282442
21999.9999999603,103.545754837467,1.00000000041101,0.505110197414847
22099.9999999589,103.227301574815,1.00000000044538,0.519979226005074
22199.9999999574,102.889263257247,1.0000000004676,0.533635566368525
22299.999999956,102.535536017774,1.0000000004215,0.541334789117693
22399.9999999545,102.172382921947,1.00000000040193,0.542471361223047
22499.9999999531,101.806767728029,1.00000000035872,0.538186004469718
22599.9999999516,101.446728973457,1.00000000032784,0.524448711672128
22699.9999999502,101.100384531851,1.00000000028618,0.500962008614581
22799.9999999487,100.776441493149,1.00000000023487,0.476589154245053
22899.9999999473,100.484048072113,1.00000000021798,0.454336493501726
22999.9999999458,100.231573692066,1.00000000019229,0.43335782782973
23099.9999999443,100.025084005454,1.00000000019778,0.418937259347995
23199.9999999429,99.8669750421209,1.00000000020567,0.408816900331619
23299.9999999414,99.754951056149,1.00000000022016,0.400435908162651
23399.99999994,99.683545661107,1.00000000025549,0.399599051194993
23499.9999999385,99.6461351113757,1.00000000027998,0.40337965611453
23599.9999999371,99.6350197224914,1.00000000029071,0.408863349742168
23699.9999999356,99.642622158412,1.00000000030964,0.416391562668756
23799.9999999342,99.6619072865558,1.00000000031844,0.425634648233013
23899.9999999327,99.6869717341078,1.00000000033027,0.43741837974758
23999.9999999312,99.7121983187332,1.00000000033072,0.452868506335854
24099.9999999298,99.7333795727379,1.00000000035597,0.466418205296602
24199.9999999283,99.7481059243205,1.00000000032512,0.475703125780928
24299.9999999269,99.7557477696349,1.00000000033459,0.484611023746705
24399.9999999254,99.7571598862446,1.00000000033742,0.494954148362463
24499.999999924,99.753659275755,1.0000000003337,0.506261804627325
24599.9999999225,99.7475981139107,1.00000000031501,0.513666379242735
24699.9999999211,99.7414983770759,1.00000000029155,0.516481868602736
24799.9999999196,99.7378072417482,1.00000000028354,0.517487005683541
24899.9999999181,99.7366277988535,1.00000000030397,0.518589909092911
24999.9999999167,99.7348710910712,1.00000000031316,0.519982224893484
25099.9999999152,99.7269893593062,1.00000000033126,0.522531899615032
25199.9999999138,99.7066856778265,1.00000000033635,0.525459434731958
25299.9999999123,99.6691826288325,1.00000000035437,0.52678104256538
25399.9999999109,99.6123248589746,1.00000000033527,0.527022225191212
25499.9999999094,99.5360748656473,1.00000000036427,0.524312272473914
25599.999999908,99.441274023831,1.00000000036485,0.520015963369368
25699.9999999065,99.3278011735593,1.00000000036549,0.515648913412089
25799.9999999051,99.1957427493834,1.00000000036451,0.515410978610516
25899.9999999036,99.0465984840314,1.00000000035734,0.523810625579183
25999.9999999021,98.8840312933731,1.00000000035307,0.531734819891652
26099.9999999007,98.713297599642,1.00000000033871,0.532297544497984
26199.9999998992,98.5397861805599,1.00000000031539,0.527907973636587
26299.9999998978,98.3679082344148,1.00000000028515,0.523479176096727
26399.9999998963,98.2002192948706,1.00000000028557,0.520963904641682
26499.9999998949,98.0377395405517,1.00000000028417,0.520898370777908
26599.9999998934,97.8805980504093,1.00000000026189,0.521924300226583
26699.999999892,97.7279969958227,1.00000000026925,0.524098351504059
26799.9999998905,97.5778054340299,1.00000000027478,0.525908368299941
26899.999999889,97.427009822114,1.00000000030101,0.526253397301936
26999.9999998876,97.2730615565902,1.00000000030899,0.525885501620416
27099.9999998861,97.113981275564,1.00000000031718,0.525441503674084
27199.9999998847,96.9482463051593,1.00000000032939,0.524056304053195
27299.9999998832,96.7741829464918,1.00000000034856,0.521772150898339
27399.9999998818,96.589713839803,1.00000000036239,0.519032808862458
27499.9999998803,96.3927065767402,1.00000000039866,0.517845029480045
27599.9999998789,96.1815983339387,1.00000000042709,0.520602972000118
27699.9999998774,95.9556413610603,1.00000000044948,0.527026601457632
27799.9999998759,95.7156598075585,1.00000000044668,0.533587804384532
27899.9999998745,95.4643404939363,1.00000000042247,0.53859991837505
27999.999999873,95.2056756681359,1.00000000040727,0.541451833676463
28099.9999998716,94.9446125897786,1.00000000036838,0.541527107964019
28199.9999998701,94.6864823507735,1.0000000003184,0.535922291574692
28299.9999998687,94.436802296288,1.00000000030613,0.523022880418335
28399.9999998672,94.2014458258655,1.00000000026697,0.507307660386573
28499.9999998658,93.9867215283059,1.00000000024514,0.490668445533064
28599.9999998643,93.7989448898161,1.00000000021581,0.474033520784629
28699.9999998629,93.6441158276135,1.00000000021292,0.459646011288666
28799.9999998614,93.5265952740574,1.00000000019651,0.446250894598785
28899.9999998599,93.4493647378766,1.00000000019869,0.433439935392588
28999.9999998585,93.4136501617728,1.00000000022078,0.422754287501299
