Time,AGPnorm,Energy,Entropy
0,0,1,-7.29465978154437e-17
99.9999999999986,0.00135901754679041,0.999999999999477,0.00435394839246846
199.999999999993,0.009205937339032,0.999999999999193,0.012645063302028
300,0.0183031687998536,0.9999999999999,0.023400130947903
400.000000000022,0.0279831727978813,1.00000000000035,0.0369193658460006
500.000000000045,0.0389826313852254,0.999999999999307,0.0533205344936026
600.000000000068,0.0542736819918394,0.999999999999107,0.0722995800409617
700.000000000091,0.0683489027305589,0.999999999999548,0.0937160255558948
800.000000000113,0.083837897475797,1.00000000000091,0.118412079706497
900.000000000136,0.0984816625183149,1.00000000000043,0.147829637769661
1000.00000000016,0.11524669879871,1.00000000000771,0.183674020366692
1100.0000000001,0.130815443800424,1.00000000005588,0.228428207766895
1200,0.155097128784099,1.00000000020472,0.279384152926647
1299.99999999991,0.191459852953774,1.00000000044064,0.330866672939768
1399.99999999982,0.270282168147844,1.00000000073281,0.377057574090841
1499.99999999973,0.487175493669005,1.00000000100729,0.417358179400791
1599.99999999964,0.936874656211861,1.00000000133815,0.450963126364567
1699.99999999955,1.6744267059963,1.00000000150426,0.480405874803593
1799.99999999946,2.77628979551496,1.00000000172542,0.504362075284192
1899.99999999937,4.31183414483217,1.00000000170161,0.524114868719858
1999.99999999928,6.28537750187889,1.00000000185095,0.539479690247027
2099.99999999919,8.65877926491219,1.0000000018874,0.552906825492795
2199.99999999909,11.4161705303919,1.0000000019147,0.562888758419126
2299.999999999,14.5122227340182,1.00000000193741,0.570271744230393
2399.99999999891,17.8506340993903,1.00000000181998,0.575681895225811
2499.99999999882,21.3418252876131,1.00000000173267,0.580585976031431
2599.99999999873,24.933502306901,1.00000000174588,0.582542730760156
2699.99999999864,28.5718164751727,1.0000000017597,0.583428604176922
2799.99999999855,32.1679724670102,1.0000000016585,0.583463755460126
2899.99999999846,35.6452284016021,1.00000000163929,0.583366202350053
2999.99999999837,38.9661366752235,1.00000000163736,0.582217375981963
3099.99999999828,42.1109609130603,1.00000000154613,0.580184530893387
3199.99999999819,45.0403224904222,1.0000000014574,0.579536765844254
3299.99999999809,47.7094570311539,1.0000000014918,0.578283469079302
3399.999999998,50.1040695240108,1.00000000133612,0.57494363067178
3499.99999999791,52.2313693452095,1.00000000133076,0.572344977649143
3599.99999999782,54.090702213657,1.00000000129059,0.571664480315761
3699.99999999773,55.6734587072636,1.00000000130312,0.568746731508204
3799.99999999764,56.9809506241325,1.00000000121394,0.565670824768954
3899.99999999755,58.0205101071307,1.00000000114914,0.570225975287303
3999.99999999746,58.8151538733458,1.00000000109353,0.558608137935593
4099.99999999738,59.3837535587918,1.00000000115896,0.569494911040493
4199.99999999775,59.7378772698089,1.00000000101184,0.553852599337509
4299.99999999811,59.8850062015725,1.00000000110289,0.568574266441605
4399.99999999848,59.8803921423879,1.00000000101453,0.556944696642695
4499.99999999884,59.7007865304709,1.00000000095253,0.547811043214093
4599.9999999992,59.4222002613695,1.00000000110645,0.572132609236671
4699.99999999957,59.0383027508949,1.00000000086366,0.530072671316825
4799.99999999993,58.529157207499,1.00000000115785,0.562332030764981
4900.00000000029,57.9991434157096,1.00000000128544,0.566772945342426
5000.00000000066,57.3934296033509,1.00000000081155,0.509153863379052
5100.00000000102,56.7112448752237,1.00000000125275,0.559625548981589
5200.00000000139,56.0478642981503,1.00000000133025,0.565459461071312
5300.00000000175,55.3516288296445,1.00000000077724,0.496464005380293
5400.00000000211,54.5876149134405,1.00000000100603,0.522192550279211
5500.00000000248,53.8469131452031,1.0000000015077,0.577482160377388
5600.00000000284,53.1313657520736,1.00000000103245,0.514957011757991
5700.00000000321,52.3763957795349,1.00000000078274,0.47157706994489
5800.00000000357,51.5991994451673,1.00000000125515,0.533542355122961
5900.00000000393,50.8596391532235,1.00000000146665,0.564444106876569
6000.0000000043,50.145485910322,1.00000000098764,0.500600042553252
6100.00000000466,49.4175314318409,1.00000000078945,0.464793029181074
6200.00000000502,48.6780032449395,1.00000000108842,0.500434189097796
6300.00000000539,47.96037863402,1.00000000138829,0.552088033674057
6400.00000000575,47.274382686452,1.00000000125106,0.526673600655901
6500.00000000612,46.6004644027359,1.00000000091856,0.477217092225152
6600.00000000648,45.9284699993202,1.00000000085873,0.476378081290272
6700.00000000684,45.2620267327365,1.00000000107094,0.498577493354347
6800.00000000721,44.6127239835523,1.00000000127648,0.532544899101765
6900.00000000757,43.9852914992092,1.00000000131858,0.530843327930669
7000.00000000793,43.3748357609133,1.00000000101757,0.491474080051055
7100.0000000083,42.7787598254653,1.00000000094033,0.484500594892091
7200.00000000866,42.1968775834803,1.00000000106271,0.501498946007063
7300.00000000903,41.6288829565553,1.00000000096756,0.498322991173902
7400.00000000939,41.0763913621294,1.00000000115365,0.514250374987501
7500.00000000975,40.5376268042698,1.00000000131265,0.526740115119774
7600.00000001012,40.0127723241798,1.00000000114142,0.515138268351
7700.00000001048,39.5079204859795,1.00000000088113,0.482737339632042
7800.00000001084,39.0226959122917,1.0000000010528,0.500533144934615
7900.00000001121,38.5505472260957,1.00000000115948,0.517284296790819
8000.00000001157,38.0934902226092,1.00000000096217,0.500505620361181
8100.00000001194,37.6549735752254,1.00000000101238,0.495344595270761
8200.0000000123,37.2278457033849,1.00000000126419,0.52763720253696
8300.00000001266,36.8050227864603,1.00000000131907,0.525345604833081
8400.00000001303,36.3957981528144,1.00000000097151,0.503388304607537
8500.00000001339,36.0096843546167,1.00000000089994,0.48952610711942
8600.00000001376,35.6419229249219,1.00000000110028,0.505317734491898
8700.00000001412,35.2806209646545,1.00000000133385,0.515580311799692
8800.00000001448,34.9270557893986,1.00000000110168,0.515875784410666
8900.00000001485,34.5928120786288,1.00000000088068,0.490523990501216
9000.00000001521,34.2743770116883,1.00000000107903,0.505407740329772
9100.00000001557,33.9600017242633,1.00000000124055,0.533547935441996
9200.00000001594,33.6462681048001,1.00000000136242,0.534293044603938
9300.0000000163,33.3393972989805,1.00000000111169,0.512906635187112
9400.00000001667,33.0519740092815,1.0000000009992,0.503020122206592
9500.00000001703,32.7832091380312,1.00000000097872,0.508460298867546
9600.00000001739,32.5266609472642,1.00000000110886,0.514790384089901
9700.00000001776,32.2744530879613,1.00000000114105,0.515002039849925
9800.00000001812,32.0264965561896,1.00000000112921,0.513691584575158
9900.00000001848,31.7874644367776,1.00000000104893,0.526205121374195
10000.0000000188,31.5597492128328,1.00000000100394,0.52172190256443
10100.0000000192,31.3408321879302,1.00000000108856,0.521185035872547
10200.0000000196,31.1278629328375,1.00000000120772,0.535272812208269
10300.0000000199,30.9177148234384,1.0000000012041,0.537500207967613
10400.0000000203,30.7084789449703,1.00000000118678,0.536419220060999
10500.0000000207,30.5090178723555,1.00000000104651,0.525034213950873
10600.000000021,30.3287974785797,1.00000000099296,0.512394030931915
10700.0000000214,30.1610685512364,1.00000000111902,0.5216224097775
10800.0000000218,29.9960088359333,1.00000000116081,0.530231530314263
10900.0000000221,29.8402345399588,1.00000000101836,0.513879946017039
11000.0000000225,29.6973557393409,1.00000000099686,0.518978394858658
11100.0000000229,29.562240403315,1.00000000113165,0.518090600635361
11200.0000000232,29.4229682865344,1.00000000122508,0.542324049808333
11300.0000000236,29.2758591778326,1.00000000123903,0.559493195830334
11400.0000000239,29.1288760354185,1.00000000110116,0.554878706809973
11500.0000000243,28.9877088419062,1.00000000103572,0.545854412430858
11600.0000000247,28.8559419300546,1.0000000010859,0.543705701786363
11700.000000025,28.7285992150485,1.00000000119405,0.549267141243831
11800.0000000254,28.6027021605802,1.00000000125427,0.551134436099862
11900.0000000258,28.4774516463486,1.00000000115322,0.541787934141953
12000.0000000261,28.3608536411563,1.00000000099791,0.538277787694445
12100.0000000265,28.258343659132,1.00000000103519,0.536800477323931
12200.0000000269,28.1679417140859,1.00000000103325,0.531293091033061
12300.0000000272,28.0827108108784,1.00000000115447,0.538544732086275
12400.0000000276,27.9955302436852,1.0000000012188,0.542956807687222
12500.0000000279,27.9110084889579,1.00000000102572,0.534295733071557
12600.0000000283,27.8382170860731,1.00000000104853,0.527508613438567
12700.0000000287,27.7778172696217,1.00000000109018,0.539961618323201
12800.000000029,27.7199987931372,1.0000000011662,0.555618381922146
12900.0000000294,27.6590092847383,1.00000000109619,0.549215849585655
13000.0000000298,27.5896869048484,1.00000000120468,0.562280587825926
13100.0000000301,27.5114139315912,1.00000000122399,0.567905191279292
13200.0000000305,27.4259885921398,1.00000000117206,0.576781264650264
13300.0000000309,27.3368177754505,1.00000000114835,0.582729681151926
13400.0000000312,27.2478270777244,1.00000000105329,0.580290018284677
13500.0000000316,27.1648013524705,1.00000000107957,0.572899101560601
13600.0000000319,27.0890472408094,1.00000000110715,0.565077766004821
13700.0000000323,27.020019490191,1.00000000120384,0.558782737170773
13800.0000000327,26.9534381220634,1.00000000119073,0.558265236846704
13900.000000033,26.8890289459137,1.00000000111667,0.55563850700974
14000.0000000334,26.8316865629973,1.00000000112432,0.558398313748122
14100.0000000338,26.7872269035724,1.00000000102834,0.552300419924196
14200.0000000341,26.7509371549863,1.0000000011967,0.552136535572822
14300.0000000345,26.7158213657154,1.00000000110824,0.553317038014108
14400.0000000349,26.6837783029535,1.00000000109235,0.551960901456597
14500.0000000352,26.6582150222528,1.00000000112777,0.543619518062844
14600.0000000356,26.6363940979422,1.00000000107302,0.536446048796513
14700.0000000359,26.6177654341362,1.00000000109238,0.547276828407722
14800.0000000363,26.6017340023318,1.00000000112295,0.556362998047307
14900.0000000367,26.586584658247,1.00000000112732,0.571571508370479
15000.000000037,26.5702441472227,1.00000000118372,0.577838553772962
15100.0000000374,26.5521528441741,1.00000000120181,0.586582111025692
15200.0000000378,26.5317130182808,1.00000000114622,0.592590518043152
15300.0000000381,26.5125142386,1.00000000108313,0.586922356732396
15400.0000000385,26.4927863992703,1.00000000109637,0.581976638333512
15500.0000000389,26.4696200705926,1.00000000119539,0.582091204928529
15600.0000000392,26.4364246738814,1.00000000120767,0.583775258078629
15700.0000000396,26.3949791356867,1.00000000124136,0.585592312099467
15800.0000000399,26.3417354880241,1.0000000013736,0.593794227289862
15900.0000000403,26.2805247506851,1.00000000130066,0.598109171930723
16000.0000000407,26.2166205994207,1.00000000118115,0.604764818878386
16100.000000041,26.1553169962756,1.00000000106086,0.598058597914311
16200.0000000414,26.1015699787658,1.00000000112039,0.591891461258441
16300.0000000418,26.0555632331927,1.00000000110189,0.581948532131176
16400.0000000418,26.016122235842,1.00000000119041,0.572844393485135
16500.0000000404,25.9812683401449,1.00000000125604,0.577724744174209
16600.0000000389,25.9485971539415,1.00000000121966,0.574050866526896
16700.0000000375,25.9199708564727,1.00000000120231,0.571525782077509
16800.000000036,25.8975874331103,1.00000000114869,0.571171691933786
16900.0000000346,25.8835390250761,1.00000000113026,0.571930496277895
17000.0000000331,25.8769080166973,1.00000000117565,0.575383543010363
17100.0000000317,25.8756893693743,1.00000000121179,0.569704134862388
17200.0000000302,25.8767204879156,1.00000000123065,0.564008366606826
17300.0000000287,25.8790656089132,1.00000000116308,0.560207450183626
17400.0000000273,25.8854289991313,1.0000000011212,0.556633270783302
17500.0000000258,25.8972359813862,1.00000000113731,0.563514538281448
17600.0000000244,25.9119746990347,1.00000000109144,0.565245470501716
17700.0000000229,25.9291666374912,1.00000000115292,0.562346943466373
17800.0000000215,25.9467794640853,1.00000000117606,0.561135041317278
17900.00000002,25.9615088236968,1.00000000126584,0.561883516871137
18000.0000000186,25.9733584578722,1.00000000126577,0.563306091393478
18100.0000000171,25.9820824822474,1.00000000121672,0.570218059105711
18200.0000000156,25.9890069518968,1.0000000012264,0.579966535103499
18300.0000000142,25.9968278235738,1.00000000111924,0.583556117576533
18400.0000000127,26.0056728295367,1.00000000115522,0.584813597926525
18500.0000000113,26.0116145281055,1.00000000121277,0.591097119294464
18600.0000000098,26.0126966501241,1.00000000126988,0.590811085577098
18700.0000000084,26.0088760034756,1.00000000126836,0.599281233957088
18800.0000000069,26.0020476377526,1.00000000119763,0.602066253102235
18900.0000000055,25.9941864378394,1.00000000118028,0.608680378392577
19000.000000004,25.984039924987,1.00000000120238,0.610705419727525
19100.0000000026,25.9703998246702,1.00000000122944,0.611747460528636
19200.0000000011,25.9517062057124,1.00000000124855,0.611240783057574
19299.9999999996,25.9285020026161,1.00000000118693,0.609725940973059
19399.9999999982,25.9022194840972,1.00000000119003,0.603721663433715
19499.9999999967,25.8724485667582,1.00000000129076,0.601884269059008
19599.9999999953,25.8351200380383,1.00000000129754,0.602927550554403
19699.9999999938,25.7898645345697,1.00000000132013,0.605472915296143
19799.9999999924,25.7380782033783,1.0000000013325,0.602847643516718
19899.9999999909,25.6830743027912,1.00000000123987,0.600369335011033
19999.9999999895,25.6274795708969,1.00000000115644,0.597926843628056
20099.999999988,25.5749528634983,1.00000000113959,0.593363608407633
20199.9999999865,25.5276007183812,1.00000000110702,0.586263117767657
20299.9999999851,25.4865290592907,1.0000000011778,0.583069435649165
20399.9999999836,25.4506471122932,1.00000000123761,0.580997524899458
20499.9999999822,25.4200136672477,1.00000000117702,0.582181995309782
20599.9999999807,25.3930886938163,1.00000000120582,0.579088910123312
20699.9999999793,25.3710852851483,1.00000000128185,0.573076077919783
20799.9999999778,25.3529450260125,1.00000000114312,0.560133259605871
20899.9999999764,25.340315136964,1.0000000012101,0.557785838448436
20999.9999999749,25.3326228682774,1.00000000122102,0.562587595603079
21099.9999999734,25.3306633834682,1.0000000012011,0.571520870366265
21199.999999972,25.3357769241582,1.00000000120641,0.572913466216679
21299.9999999705,25.3462618639417,1.00000000120632,0.574500357932505
21399.9999999691,25.3597159264947,1.00000000128228,0.568573033516548
21499.9999999676,25.3739691040846,1.00000000121027,0.570108506542449
21599.9999999662,25.3928017086707,1.00000000114462,0.564765215776213
21699.9999999647,25.4151081934623,1.00000000116836,0.558443012005979
21799.9999999633,25.43959758629,1.00000000125415,0.557559484669407
21899.9999999618,25.4680251951066,1.00000000117485,0.558938480309208
21999.9999999603,25.5017568274779,1.00000000113841,0.562960009218818
22099.9999999589,25.5375860784852,1.00000000126216,0.568208668549823
22199.9999999574,25.5709540898837,1.00000000130715,0.57358825094643
22299.999999956,25.6026619147874,1.00000000124286,0.575314844006121
22399.9999999545,25.6317441747665,1.0000000012954,0.572073740582113
22499.9999999531,25.6587680502181,1.00000000123539,0.576197946156727
22599.9999999516,25.6835385688362,1.00000000120989,0.585814082891401
22699.9999999502,25.7068566062791,1.00000000125486,0.59907352319127
22799.9999999487,25.7301800504807,1.00000000126394,0.603153540822727
22899.9999999473,25.7527920438835,1.00000000124181,0.612915033514444
22999.9999999458,25.7734715323752,1.00000000128748,0.616743620910894
23099.9999999443,25.7909985174389,1.00000000130455,0.619991577718942
23199.9999999429,25.8047088440696,1.00000000127137,0.618202735416097
23299.9999999414,25.8150129781513,1.0000000012619,0.618738727313465
23399.99999994,25.8250637091162,1.00000000116921,0.627279743696694
23499.9999999385,25.8359573008864,1.00000000125762,0.630848147669759
23599.9999999371,25.8470789797089,1.000000001233,0.624386180687448
23699.9999999356,25.8598421063121,1.00000000120122,0.623168334680298
23799.9999999342,25.8718430806579,1.00000000130992,0.624754044402536
23899.9999999327,25.877104788664,1.00000000136915,0.630797260788154
23999.9999999312,25.8783688902131,1.00000000125882,0.639848664280386
24099.9999999298,25.8760439483721,1.00000000134399,0.64530810876043
24199.9999999283,25.8720612022847,1.00000000128629,0.643433915068813
24299.9999999269,25.8662394895871,1.00000000127093,0.643959816157145
24399.9999999254,25.8582834304201,1.00000000128079,0.641098617587369
24499.999999924,25.8516969206953,1.00000000116633,0.634393464180174
24599.9999999225,25.8460667421862,1.00000000121486,0.630097120155367
24699.9999999211,25.837339713862,1.00000000132177,0.63281664401896
24799.9999999196,25.8247063814799,1.00000000130663,0.63085654015162
24899.9999999181,25.8097620798306,1.0000000013109,0.638919285183927
24999.9999999167,25.7905416455738,1.00000000131297,0.641867832477544
25099.9999999152,25.7688227313266,1.00000000121664,0.639093930470969
25199.9999999138,25.7455024755265,1.00000000130247,0.64884900155063
25299.9999999123,25.719277529039,1.00000000133519,0.646298110288207
25399.9999999109,25.6938886694693,1.00000000116991,0.646788526447905
25499.9999999094,25.6685658271421,1.00000000129823,0.646559899761594
25599.999999908,25.6408320104515,1.00000000126953,0.64808246674466
25699.9999999065,25.6107224817133,1.00000000127324,0.641337403574086
25799.9999999051,25.5782880078599,1.00000000125326,0.646159496133671
25899.9999999036,25.5425143372344,1.00000000125446,0.650824366677345
25999.9999999021,25.5045037609824,1.00000000134822,0.650678989366556
26099.9999999007,25.4649854950984,1.00000000128996,0.648638854137018
26199.9999998992,25.4225480798595,1.00000000135761,0.654501994276435
26299.9999998978,25.3750133331495,1.00000000141781,0.654455338783833
26399.9999998963,25.3233519766763,1.00000000137946,0.658949830793358
26499.9999998949,25.2694736687673,1.00000000135684,0.656262784179301
26599.9999998934,25.2156848306449,1.00000000125968,0.65521231480281
26699.999999892,25.1621939652617,1.00000000126386,0.663717992528461
26799.9999998905,25.1111041075438,1.00000000118341,0.661482839688844
26899.999999889,25.0632533253697,1.00000000118503,0.65585412509556
26999.9999998876,25.0194211514952,1.00000000115653,0.645466898930591
27099.9999998861,24.9793306507419,1.00000000117087,0.642674179668433
27199.9999998847,24.9438072323886,1.0000000012887,0.642410628001392
27299.9999998832,24.9136098896753,1.0000000012502,0.637365490819029
27399.9999998818,24.8875376454702,1.0000000013161,0.642772453897999
27499.9999998803,24.8651507023812,1.00000000128014,0.636867261652503
27599.9999998789,24.8465282413652,1.00000000130784,0.631387621342016
27699.9999998774,24.8307967940924,1.00000000127726,0.629756085070574
27799.9999998759,24.8192591770614,1.00000000125641,0.617218885847333
27899.9999998745,24.8125041818914,1.0000000012582,0.609898067649411
27999.999999873,24.8096413299243,1.00000000130358,0.615911768452799
28099.9999998716,24.8123617804721,1.0000000012882,0.609812532401817
28199.9999998701,24.8204721257174,1.00000000129744,0.604967102198426
28299.9999998687,24.8314285345637,1.00000000129372,0.610527391489757
28399.9999998672,24.8465881189732,1.00000000128635,0.603790545920647
28499.9999998658,24.8666756565742,1.00000000131323,0.598403965775953
28599.9999998643,24.8874011490902,1.00000000139676,0.595330584891807
28699.9999998629,24.9091547261048,1.00000000131428,0.590683319245761
28799.9999998614,24.9362885222965,1.00000000124884,0.587497499204612
28899.9999998599,24.9668043518776,1.00000000132487,0.59256428633395
28999.9999998585,24.9969025214753,1.00000000135103,0.587676542932979
