Time,AGPnorm,Energy,Entropy
0,0,1,-1.08115644503753e-17
99.9999999999986,1.99455873235037e-05,1.00000000000108,0.000867486545794332
199.999999999993,0.00178296646040842,0.999999999998602,0.00139589767688146
300,0.00440429728303204,1.00000000000137,0.0024891817919027
400.000000000022,0.00610297352945958,0.999999999999631,0.00422127799360057
500.000000000045,0.00753725091204208,0.999999999999477,0.00574681121065664
600.000000000068,0.0107498402494754,1.00000000000144,0.00796125282665125
700.000000000091,0.0132818470902537,0.999999999998562,0.0102265006717368
800.000000000113,0.0169299341985043,1.00000000000107,0.0126658128528704
900.000000000136,0.0213227155007406,1.00000000000015,0.0154963825562393
1000.00000000016,0.0250530815899958,0.999999999998977,0.0183151841366285
1100.0000000001,0.0298785592687533,1.00000000000165,0.0214502733884006
1200,0.034981914114078,0.999999999998738,0.0247501262231533
1299.99999999991,0.0403108867694622,1.00000000000062,0.02818990957383
1399.99999999982,0.0463204457716466,1.00000000000069,0.0318532701377515
1499.99999999973,0.0521290930320448,0.999999999998594,0.0356410355762002
1599.99999999964,0.0585334680767154,1.00000000000167,0.0396144108807792
1699.99999999955,0.0655579496953488,0.999999999999102,0.0437650037876402
1799.99999999946,0.0724334818314547,1.00000000000006,0.0481131163838543
1899.99999999937,0.0796484376184517,1.00000000000117,0.0525805775375958
1999.99999999928,0.0870327606849889,0.999999999998404,0.0572640372329594
2099.99999999919,0.094640770586868,1.00000000000149,0.0621317119881096
2199.99999999909,0.102961088557816,0.999999999999597,0.0671533551192687
2299.999999999,0.111082395910834,0.999999999999489,0.072460997688438
2399.99999999891,0.11917037722348,1.0000000000015,0.0778670580352093
2499.99999999882,0.127619391648447,0.999999999998446,0.0835439406969848
2599.99999999873,0.136039046301286,1.00000000000114,0.0895000864401975
2699.99999999864,0.145016357666871,1.00000000000016,0.09561250964084
2799.99999999855,0.153919334970075,0.999999999998975,0.10212372666526
2899.99999999846,0.162529480927501,1.00000000000164,0.10882404006469
2999.99999999837,0.171582529428048,0.999999999998683,0.115874006082874
3099.99999999828,0.180494589660157,1.0000000000007,0.123391729981683
3199.99999999819,0.189614445663031,1.00000000000082,0.131198598871482
3299.99999999809,0.198713592807016,0.999999999998782,0.139625364416882
3399.999999998,0.207508108335291,1.00000000000193,0.148545305217848
3499.99999999791,0.216602280044487,0.999999999999967,0.158118525659397
3599.99999999782,0.22566306651317,1.00000000000228,0.168592510362499
3699.99999999773,0.234833671083537,1.00000000000561,0.179742258631039
3799.99999999764,0.243194826338408,1.00000000000714,0.191839136955833
3899.99999999755,0.25287914667433,1.00000000001718,0.204682227301711
3999.99999999746,0.261954521425067,1.00000000002562,0.218072253748162
4099.99999999738,0.271789464021801,1.00000000003927,0.232033356066471
4199.99999999775,0.286204725275114,1.00000000005823,0.245988327887029
4299.99999999811,0.298732841980679,1.00000000007446,0.260002807361205
4399.99999999848,0.32256412897161,1.00000000009878,0.27391753480589
4499.99999999884,0.354433484648683,1.00000000012465,0.287432216618467
4599.9999999992,0.397385445400016,1.00000000014759,0.300962766098234
4699.99999999957,0.468878027546732,1.00000000017597,0.313954699647686
4799.99999999993,0.56014154637474,1.0000000002026,0.326648384777797
4900.00000000029,0.693826264947637,1.00000000023194,0.339135910122158
5000.00000000066,0.877889156364254,1.00000000026806,0.35094999552278
5100.00000000102,1.11477295795925,1.00000000029992,0.362734320127497
5200.00000000139,1.43147774086812,1.00000000032537,0.373979197584728
5300.00000000175,1.82996543090278,1.00000000035383,0.384707989293354
5400.00000000211,2.32737746132133,1.00000000037973,0.395421057209704
5500.00000000248,2.94350605526467,1.00000000041467,0.405288645785398
5600.00000000284,3.68446949433523,1.0000000004378,0.415050914299689
5700.00000000321,4.56681108443102,1.00000000044396,0.42448254682395
5800.00000000357,5.609463069838,1.00000000046759,0.433147723458452
5900.00000000393,6.81712052051095,1.00000000047238,0.442003453950653
6000.0000000043,8.20466519354007,1.00000000049908,0.450021783215455
6100.00000000466,9.79135040592257,1.0000000005225,0.457688533910757
6200.00000000502,11.5679303200524,1.00000000055086,0.465329378530378
6300.00000000539,13.5623971863358,1.00000000056378,0.472175528020327
6400.00000000575,15.7764136868199,1.00000000058253,0.47907597849988
6500.00000000612,18.1999347131294,1.00000000057761,0.485522084285639
6600.00000000648,20.870182030814,1.00000000059737,0.491339754547024
6700.00000000684,23.7544945444796,1.00000000059011,0.497447627644441
6800.00000000721,26.8723536484082,1.00000000059898,0.502702300863706
6900.00000000757,30.237848381175,1.00000000060174,0.507863039932042
7000.00000000793,33.8076298023657,1.00000000062408,0.512855297104033
7100.0000000083,37.6302492632656,1.00000000061693,0.51715057576895
7200.00000000866,41.6669412719218,1.00000000061649,0.521785120661399
7300.00000000903,45.9117343241768,1.00000000064503,0.525701350826609
7400.00000000939,50.4000981265906,1.00000000063011,0.529438927028156
7500.00000000975,55.0627198407253,1.00000000063343,0.533345368618287
7600.00000001012,59.9446252755,1.00000000065538,0.536279206888355
7700.00000001048,65.0205765349824,1.00000000063679,0.539653145109075
7800.00000001084,70.2520080454512,1.00000000065118,0.542673279046336
7900.00000001121,75.6929949399255,1.00000000064367,0.545087028861731
8000.00000001157,81.2658715913124,1.00000000064087,0.548141539799884
8100.00000001194,86.9972500534828,1.00000000063128,0.550334414247379
8200.0000000123,92.8873319097511,1.00000000064335,0.552415416345224
8300.00000001266,98.8702726463849,1.00000000064653,0.554698307950399
8400.00000001303,105.007198004902,1.00000000063371,0.556316936774515
8500.00000001339,111.229741696562,1.00000000061842,0.558451633318576
8600.00000001376,117.538522686687,1.00000000062266,0.560014761302879
8700.00000001412,123.959423685153,1.00000000063216,0.561197822735514
8800.00000001448,130.412806700024,1.0000000006046,0.562988746111766
8900.00000001485,136.952680880271,1.00000000060019,0.563894957945402
9000.00000001521,143.53400205751,1.00000000062178,0.565076284948227
9100.00000001557,150.130981173811,1.00000000061616,0.56627906952878
9200.00000001594,156.788089426809,1.00000000058842,0.566881001075278
9300.0000000163,163.425102029496,1.00000000061556,0.567966530402713
9400.00000001667,170.081645136285,1.00000000061096,0.568541418673212
9500.00000001703,176.736651742176,1.00000000058966,0.569094070829676
9600.00000001739,183.347575484998,1.00000000059591,0.570216598335548
9700.00000001776,189.96543901057,1.00000000056251,0.570086432517825
9800.00000001812,196.522188174928,1.00000000059431,0.570854253775045
9900.00000001848,203.0385557656,1.00000000057985,0.571213728222027
10000.0000000188,209.515837729577,1.00000000058097,0.571142559929807
10100.0000000192,215.903005672409,1.00000000056979,0.572050206295194
10200.0000000196,222.2480248396,1.00000000055615,0.571623245661261
10300.0000000199,228.501842698534,1.0000000005426,0.572531314759668
10400.0000000203,234.666547173767,1.00000000055973,0.572188413206068
10500.0000000207,240.75957827258,1.00000000054916,0.572229525576881
10600.000000021,246.730277077364,1.00000000052463,0.572495857938461
10700.0000000214,252.618282615299,1.00000000051914,0.572021878653734
10800.0000000218,258.393257924285,1.00000000052942,0.572539338749345
10900.0000000221,264.044959745387,1.00000000053153,0.571805912058644
11000.0000000225,269.598675934458,1.00000000051543,0.57189129961684
11100.0000000229,275.011121875295,1.00000000050544,0.572189447226638
11200.0000000232,280.309510433073,1.00000000052459,0.57100597347233
11300.0000000236,285.479604375396,1.00000000051056,0.571950693505963
11400.0000000239,290.504328361203,1.00000000049581,0.571133789079022
11500.0000000243,295.411459269557,1.0000000004899,0.570455916050643
11600.0000000247,300.16481701494,1.00000000048362,0.571412720789449
11700.000000025,304.785841789931,1.00000000047949,0.569989249520069
11800.0000000254,309.267267046026,1.00000000047046,0.569806069952922
11900.0000000258,313.59176698571,1.00000000047364,0.57035309016855
12000.0000000261,317.788692441727,1.00000000045874,0.568748986121152
12100.0000000265,321.826023800906,1.00000000045944,0.569349617719091
12200.0000000269,325.720050537899,1.00000000045124,0.569069957349802
12300.0000000272,329.473281917171,1.000000000434,0.56775585768634
12400.0000000276,333.063147285747,1.00000000045481,0.568563551818406
12500.0000000279,336.521090441351,1.00000000043926,0.567489915544943
12600.0000000283,339.822737323843,1.00000000043443,0.566886698156779
12700.0000000287,342.975008197436,1.00000000042845,0.567257365221507
12800.000000029,345.990887714255,1.00000000042987,0.56603000238637
12900.0000000294,348.845993291495,1.00000000041997,0.566093829389099
13000.0000000298,351.567617291998,1.00000000041217,0.566338534432077
13100.0000000301,354.142373210415,1.00000000041304,0.565142406832597
13200.0000000305,356.568708525595,1.00000000040237,0.564650514106421
13300.0000000309,358.863581149838,1.00000000040072,0.56439553692478
13400.0000000312,361.008803498554,1.00000000039657,0.564536470500492
13500.0000000316,363.023291632809,1.00000000039496,0.564344808267095
13600.0000000319,364.901511956931,1.0000000004016,0.563771468650073
13700.0000000323,366.640027735183,1.00000000039034,0.562541153394985
13800.0000000327,368.254310431765,1.00000000037364,0.56167495018057
13900.000000033,369.729285349695,1.00000000037252,0.563777843953573
14000.0000000334,371.08411294777,1.0000000003788,0.564890968734202
14100.0000000338,372.317191153019,1.00000000038017,0.56177710711131
14200.0000000341,373.42003323339,1.00000000036389,0.559183384584086
14300.0000000345,374.40626157461,1.00000000034604,0.559703102680783
14400.0000000349,375.268823835672,1.00000000035567,0.564230238602649
14500.0000000352,376.025127236512,1.00000000036868,0.565700033992522
14600.0000000356,376.677148205093,1.00000000035895,0.561677592129057
14700.0000000359,377.21362148889,1.00000000033151,0.55604153506303
14800.0000000363,377.642337427357,1.00000000033161,0.5556932506747
14900.0000000367,377.959486289795,1.00000000033367,0.562220440406016
15000.000000037,378.185665623361,1.00000000036112,0.567655926145061
15100.0000000374,378.332351664211,1.00000000036722,0.565636666506666
15200.0000000378,378.38594794267,1.00000000032743,0.554500628494674
15300.0000000381,378.346722213489,1.00000000032143,0.549487461322462
15400.0000000385,378.203056868765,1.000000000312,0.552979852664473
15500.0000000389,377.979434382479,1.00000000036604,0.566410722007574
15600.0000000392,377.695846023594,1.00000000038525,0.570471874425139
15700.0000000396,377.355730406772,1.0000000003758,0.562820342863034
15800.0000000399,376.945951347854,1.00000000030859,0.547149122905599
15900.0000000403,376.448778500184,1.00000000028737,0.540937821823989
16000.0000000407,375.866024631956,1.00000000030416,0.549729027659933
16100.000000041,375.226403336827,1.0000000003719,0.56670790220851
16200.0000000414,374.547369512721,1.00000000040233,0.573705571990389
16300.0000000418,373.843163712024,1.00000000038732,0.563187778314745
16400.0000000418,373.088476047077,1.00000000031349,0.543329416211996
16500.0000000404,372.261036682395,1.00000000026001,0.529903578433819
16600.0000000389,371.359653150147,1.00000000027433,0.53580858080094
16700.0000000375,370.40314500293,1.00000000035793,0.559758187291128
16800.000000036,369.429910070536,1.0000000004222,0.576314426084336
16900.0000000346,368.452154798378,1.00000000041915,0.570520612320703
17000.0000000331,367.453895726173,1.00000000036229,0.548914147790489
17100.0000000317,366.411979821572,1.00000000027838,0.524662455719319
17200.0000000302,365.301334658666,1.00000000024079,0.514536497800737
17300.0000000287,364.135148745757,1.00000000030198,0.533314518305954
17400.0000000273,362.941804557884,1.00000000040242,0.564565005289124
17500.0000000258,361.751304232106,1.0000000004847,0.579174107811097
17600.0000000244,360.574868390303,1.0000000004363,0.56864986321604
17700.0000000229,359.390564886553,1.0000000003525,0.542113334869944
17800.0000000215,358.174009967089,1.00000000026464,0.512763790703198
17900.00000002,356.902642356934,1.00000000022483,0.499031840491623
18000.0000000186,355.581034875263,1.00000000027702,0.517641265486006
18100.0000000171,354.241111528103,1.00000000037366,0.554995949698797
18200.0000000156,352.909545411064,1.00000000047975,0.578179392599209
18300.0000000142,351.601572887822,1.00000000047688,0.575823929227819
18400.0000000127,350.308725628175,1.000000000423,0.552759277898276
18500.0000000113,349.003599983154,1.0000000003138,0.518221046773828
18600.0000000098,347.665972117562,1.00000000023337,0.491962882535621
18700.0000000084,346.282518671548,1.00000000022966,0.489993687683665
18800.0000000069,344.869269036354,1.00000000030475,0.519736582041459
18900.0000000055,343.453002794008,1.00000000041538,0.558697837096503
19000.000000004,342.05427491904,1.00000000049878,0.579552234812354
19100.0000000026,340.685392310072,1.00000000049145,0.574817848315763
19200.0000000011,339.334712450379,1.00000000042997,0.549873824995388
19299.9999999996,337.981874336574,1.00000000032275,0.514691276698413
19399.9999999982,336.608483703597,1.00000000025091,0.486722877685318
19499.9999999967,335.201891988498,1.00000000022779,0.479959577105703
19599.9999999953,333.772369023475,1.00000000027905,0.49993815659752
19699.9999999938,332.334920010054,1.00000000036421,0.537109804850476
19799.9999999924,330.909897973612,1.00000000046879,0.568693149841423
19899.9999999909,329.511811269067,1.00000000050496,0.576814126977447
19999.9999999895,328.138295467582,1.00000000047858,0.563707277436472
20099.999999988,326.780611778563,1.00000000039011,0.535800032803179
20199.9999999865,325.421783877711,1.00000000032398,0.503023659715109
20299.9999999851,324.048316751294,1.00000000024895,0.481270612170499
20399.9999999836,322.657443445586,1.00000000024263,0.478407195380342
20499.9999999822,321.250719395139,1.0000000002882,0.494060958025146
20599.9999999807,319.841648372718,1.0000000003522,0.523549007857556
20699.9999999793,318.442675429213,1.00000000045639,0.553487468393797
20799.9999999778,317.063309871996,1.00000000049959,0.569522913466356
20899.9999999764,315.707750537751,1.00000000050411,0.563457699579091
20999.9999999749,314.370377329964,1.00000000044389,0.543876731036111
21099.9999999734,313.042248407208,1.00000000037146,0.518203748769986
21199.999999972,311.714416061836,1.00000000030112,0.49481115686501
21299.9999999705,310.379304429023,1.00000000026177,0.481998288616141
21399.9999999691,309.037919706339,1.00000000027492,0.482250605417802
21499.9999999676,307.690568792714,1.00000000029534,0.493940404914227
21599.9999999662,306.344997272914,1.00000000035034,0.515483323468051
21699.9999999647,305.008555888112,1.00000000042899,0.537411078894528
21799.9999999633,303.686116457796,1.00000000045667,0.553502624122918
21899.9999999618,302.381580849145,1.00000000046875,0.555083906520237
21999.9999999603,301.093083395018,1.00000000045183,0.543549132897774
22099.9999999589,299.816519132208,1.00000000041905,0.52719918266595
22199.9999999574,298.547714185574,1.00000000035862,0.509408619907273
22299.999999956,297.281035124293,1.00000000031213,0.494718324863064
22399.9999999545,296.01595036494,1.00000000028486,0.488499698684971
22499.9999999531,294.750800539145,1.00000000029086,0.489205751079111
22599.9999999516,293.488084787816,1.00000000030733,0.496350759047018
22699.9999999502,292.229952069636,1.00000000033522,0.506394394146612
22799.9999999487,290.978687534081,1.00000000039012,0.520390465102181
22899.9999999473,289.738090645298,1.00000000040986,0.532138041451664
22999.9999999458,288.509659087164,1.00000000043035,0.538786146834686
23099.9999999443,287.29322286717,1.00000000043478,0.53938561046033
23199.9999999429,286.088519460573,1.00000000041177,0.530619645772603
23299.9999999414,284.893048582371,1.0000000003873,0.520803577917376
23399.99999994,283.705438859334,1.00000000035017,0.511160643049334
23499.9999999385,282.524504192543,1.00000000033664,0.50582903018883
23599.9999999371,281.349593433443,1.00000000031563,0.499673538121997
23699.9999999356,280.181068058012,1.00000000030988,0.498490702660887
23799.9999999342,279.018116649872,1.00000000030182,0.497178632547294
23899.9999999327,277.862082894021,1.00000000031995,0.500068825649783
23999.9999999312,276.713142656697,1.00000000034563,0.504895307509933
24099.9999999298,275.572308593152,1.00000000036923,0.511552193156554
24199.9999999283,274.440779633327,1.00000000038125,0.518752860370165
24299.9999999269,273.318696082697,1.00000000042125,0.525649573419336
24399.9999999254,272.205748545564,1.00000000040428,0.528859847726734
24499.999999924,271.102094266297,1.00000000039278,0.528163815383354
24599.9999999225,270.006811094586,1.00000000036459,0.522747197149637
24699.9999999211,268.920047027454,1.00000000036001,0.518728768641466
24799.9999999196,267.841477905552,1.00000000035564,0.516232038905518
24899.9999999181,266.771392994077,1.00000000034205,0.517153119170646
24999.9999999167,265.709994876188,1.00000000034314,0.513967976376121
25099.9999999152,264.657327038531,1.00000000032232,0.507374816085699
25199.9999999138,263.613692545395,1.00000000031266,0.501151413931361
25299.9999999123,262.578611388143,1.00000000030212,0.4944373166418
25399.9999999109,261.552810876648,1.00000000030454,0.493125701205282
25499.9999999094,260.536263814641,1.00000000032156,0.497452670247097
25599.999999908,259.528671832661,1.00000000036281,0.505797703791165
25699.9999999065,258.529510310702,1.00000000039953,0.514119279410237
25799.9999999051,257.538070488311,1.00000000041991,0.522230578522482
25899.9999999036,256.553540780655,1.00000000039818,0.527040209928863
25999.9999999021,255.576509973898,1.00000000038152,0.527469414769632
26099.9999999007,254.607324398482,1.00000000034579,0.522996784946556
26199.9999998992,253.646459796817,1.00000000034645,0.518086341445242
26299.9999998978,252.693703655289,1.00000000036394,0.522495982895342
26399.9999998963,251.748794075494,1.00000000037895,0.530167004166176
26499.9999998949,250.81185871849,1.00000000037953,0.529476184030673
26599.9999998934,249.883470874504,1.0000000003683,0.520095060182954
26699.999999892,248.964869294844,1.00000000032529,0.508926046798665
26799.9999998905,248.05678269826,1.00000000029409,0.494440300096536
26899.999999889,247.160837833719,1.00000000027244,0.48086760455159
26999.9999998876,246.277362977988,1.0000000002768,0.478238063841534
27099.9999998861,245.405542729774,1.00000000032144,0.484709380550653
27199.9999998847,244.543379514984,1.0000000003619,0.496606383492551
27299.9999998832,243.688942597882,1.00000000040758,0.508036642946287
27399.9999998818,242.839450714276,1.00000000042984,0.519323698863338
27499.9999998803,241.993788326424,1.00000000041873,0.520432821492389
27599.9999998789,241.153025696732,1.00000000038403,0.520694096234914
27699.9999998774,240.318503600124,1.0000000003512,0.5226693365269
27799.9999998759,239.491750090133,1.00000000032307,0.519309632021832
27899.9999998745,238.672720564637,1.00000000034854,0.518109595419629
27999.999999873,237.860059413303,1.00000000039474,0.526679599757748
28099.9999998716,237.052468549875,1.0000000004257,0.538115757664398
28199.9999998701,236.249572100435,1.00000000040983,0.539101733557208
28299.9999998687,235.452243329317,1.00000000039241,0.52780409897372
28399.9999998672,234.663135070878,1.00000000035374,0.513636567511851
28499.9999998658,233.884691230509,1.00000000030693,0.499043127348802
28599.9999998643,233.119659058718,1.0000000002711,0.481432428697077
28699.9999998629,232.370671690263,1.00000000024335,0.467622240095862
28799.9999998614,231.637435935074,1.00000000026694,0.467344429318897
28899.9999998599,230.918052091048,1.00000000032774,0.477162718730595
