Time,AGPnorm,Energy,Entropy
0,0,1,8.1153471429978e-18
99.9999999999986,0.0144766785082838,1.00000000000318,0.0368403189309933
199.999999999993,0.036866663957653,1.00000000000153,0.10950738524679
300,0.0664466422844505,1.00000000012253,0.236984689897496
400.000000000022,0.141903177418258,1.00000000222698,0.417938401151398
500.000000000045,0.602112631994744,1.00000000434756,0.533481281518449
600.000000000068,1.84186634543682,1.0000000054438,0.58697190176025
700.000000000091,3.72630739522842,1.00000000528153,0.602388683920903
800.000000000113,5.74772849469465,1.00000000487878,0.604984886538318
900.000000000136,7.59962464038368,1.00000000465701,0.593613399359788
1000.00000000016,8.97122762887411,1.0000000041148,0.586821859554811
1100.0000000001,9.85673540908541,1.0000000035503,0.576055850253201
1200,10.2571277963828,1.00000000337323,0.577518466268186
1299.99999999991,10.2848073622501,1.00000000338252,0.575937333594614
1399.99999999982,10.0708272221753,1.00000000340458,0.554171631763329
1499.99999999973,9.74365789321693,1.00000000237857,0.491676429530666
1599.99999999964,9.3766614881323,1.00000000352022,0.532082917259917
1699.99999999955,8.95264824219227,1.00000000401696,0.540076272198398
1799.99999999946,8.56131209136618,1.00000000248009,0.463251187838041
1899.99999999937,8.15702220227218,1.00000000357966,0.52542209829718
1999.99999999928,7.78744746430832,1.0000000029789,0.491769507701166
2099.99999999919,7.44699242440719,1.000000003325,0.504717008125326
2199.99999999909,7.11718059323944,1.00000000388679,0.556637988076009
2299.999999999,6.82313210446838,1.00000000249521,0.478242212012941
2399.99999999891,6.57806195190352,1.00000000361942,0.505389442052967
2499.99999999882,6.33758692979863,1.00000000294734,0.515760516709172
2599.99999999873,6.10573216722063,1.00000000401736,0.55654144847344
2699.99999999864,5.91470783443934,1.00000000255222,0.470869837542409
2799.99999999855,5.77650188675422,1.00000000319602,0.510158321657823
2899.99999999846,5.62669331787245,1.00000000357911,0.550819170693213
2999.99999999837,5.48633959408158,1.00000000363345,0.569486990065013
3099.99999999828,5.34131023154562,1.00000000386771,0.568304273644383
3199.99999999819,5.20922135451229,1.0000000031897,0.522223772264972
3299.99999999809,5.15579117727117,1.00000000282659,0.491656438809681
3399.999999998,5.10755652848638,1.00000000376321,0.556160916512857
3499.99999999791,5.05013247562488,1.0000000036644,0.564445738606689
3599.99999999782,4.99675719492649,1.00000000353001,0.57001915051823
3699.99999999773,4.92536825327999,1.00000000390099,0.599367250077121
3799.99999999764,4.84313811217425,1.00000000367586,0.604138703673131
3899.99999999755,4.7593420371382,1.00000000399211,0.580295244807606
3999.99999999746,4.68675423600666,1.00000000317433,0.539876542564922
4099.99999999738,4.69026308707203,1.00000000269856,0.506816672424659
4199.99999999775,4.72581255724467,1.0000000038624,0.558682852448339
4299.99999999811,4.74251613910621,1.00000000362052,0.573310147674844
4399.99999999848,4.75465934978717,1.00000000349052,0.589349453977108
4499.99999999884,4.74874372677986,1.00000000372339,0.612113882811307
4599.9999999992,4.74276388323843,1.00000000357241,0.608626498227608
4699.99999999957,4.73072400235119,1.00000000397481,0.640483062581285
4799.99999999993,4.71004285806632,1.00000000388042,0.61895119425456
4900.00000000029,4.6725722496141,1.00000000397125,0.639052740115983
5000.00000000066,4.62439172611566,1.00000000380989,0.639008730082394
5100.00000000102,4.57274440403607,1.00000000393901,0.646173288577768
5200.00000000139,4.52138013508635,1.00000000418298,0.636837277350081
5300.00000000175,4.47533668016414,1.00000000386425,0.585234032359936
5400.00000000211,4.47348090236373,1.00000000313792,0.547000859984248
5500.00000000248,4.54632050106034,1.00000000370011,0.552549888999529
5600.00000000284,4.6377546253287,1.00000000429685,0.588066430264775
5700.00000000321,4.71500151217767,1.00000000419348,0.60841544130411
5800.00000000357,4.7815785860241,1.00000000375964,0.61814784192589
5900.00000000393,4.83546052944887,1.00000000409565,0.627005250919857
6000.0000000043,4.88106027143998,1.00000000390825,0.649738026164529
6100.00000000466,4.90720348863657,1.00000000432944,0.662933792007368
6200.00000000502,4.92158313852007,1.00000000396377,0.661229185336773
6300.00000000539,4.92950343614579,1.00000000431067,0.670229213037644
6400.00000000575,4.93488904583623,1.00000000416721,0.663143375140931
6500.00000000612,4.94969925242368,1.00000000414816,0.670332538263191
6600.00000000648,4.95819991029342,1.00000000451265,0.6759462981136
6700.00000000684,4.96024479723642,1.00000000449141,0.65104479971565
6800.00000000721,4.96385321160382,1.00000000407184,0.66588414735508
6900.00000000757,4.96845227521012,1.00000000423778,0.681909770720551
7000.00000000793,4.95807641737463,1.00000000453325,0.690883759676452
7100.0000000083,4.94596338558169,1.00000000427122,0.662156236338716
7200.00000000866,4.93299944663551,1.00000000413267,0.669211022687901
7300.00000000903,4.9143522716814,1.00000000440447,0.671941682045756
7400.00000000939,4.88758184724206,1.00000000430706,0.681871250788386
7500.00000000975,4.85108501657594,1.00000000428475,0.678127236887301
7600.00000001012,4.81289286629396,1.00000000455457,0.690491741596562
7700.00000001048,4.77449941588173,1.0000000045692,0.68122085312562
7800.00000001084,4.74026466817921,1.0000000043224,0.685184000291033
7900.00000001121,4.70978006578039,1.0000000044034,0.659622019048115
8000.00000001157,4.6919168609994,1.00000000444933,0.605118906985747
8100.00000001194,4.71476324366457,1.0000000037313,0.572644905021352
8200.0000000123,4.80547171447194,1.00000000379904,0.568920070342572
8300.00000001266,4.94456480817644,1.00000000438518,0.588099477360008
8400.00000001303,5.09515722006654,1.00000000466524,0.60476836645893
8500.00000001339,5.23962446353913,1.00000000464995,0.62311479216673
8600.00000001376,5.37555818810939,1.00000000452603,0.622551124109042
8700.00000001412,5.50095016570482,1.00000000490392,0.620849484247856
8800.00000001448,5.62059283170728,1.00000000439779,0.620447509557073
8900.00000001485,5.72925351800711,1.0000000052776,0.649765969307079
9000.00000001521,5.82091476980799,1.00000000500727,0.670394068315328
9100.00000001557,5.90447235283976,1.00000000459453,0.651796135621333
9200.00000001594,5.98813211976011,1.00000000493785,0.678908731443395
9300.0000000163,6.06394416564516,1.00000000497389,0.671479844156065
9400.00000001667,6.12698646592851,1.00000000518615,0.667935339318183
9500.00000001703,6.18474403050299,1.00000000487832,0.687358640296526
9600.00000001739,6.25118688230932,1.0000000050257,0.6973136289663
9700.00000001776,6.31298196007333,1.00000000497883,0.699751004312334
9800.00000001812,6.37426405703074,1.00000000527835,0.710805884144838
9900.00000001848,6.42899972805188,1.00000000515167,0.694270098250702
10000.0000000188,6.48893201101574,1.00000000475427,0.705956172361109
10100.0000000192,6.54569721132305,1.00000000489309,0.706886786084127
10200.0000000196,6.5973359044665,1.00000000534484,0.708483926930108
10300.0000000199,6.64004776117439,1.00000000523501,0.703808960367008
10400.0000000203,6.68942299648749,1.00000000497767,0.699968815958262
10500.0000000207,6.74019200681621,1.00000000602774,0.704821841281077
10600.000000021,6.78493780039585,1.00000000471925,0.685466203530341
10700.0000000214,6.84336763162112,1.00000000556559,0.684071180270938
10800.0000000218,6.91440029082026,1.00000000541599,0.698689206293853
10900.0000000221,6.98965409701435,1.00000000504284,0.689052762870344
11000.0000000225,7.07466860794139,1.0000000054839,0.697339231523387
11100.0000000229,7.14796347918578,1.00000000571417,0.68919402760762
11200.0000000232,7.23320750019218,1.00000000486727,0.655823155010785
11300.0000000236,7.31317306266658,1.00000000556534,0.660573408669906
11400.0000000239,7.40152539133635,1.00000000508933,0.681113481337988
11500.0000000243,7.49426542642366,1.00000000571296,0.714372792415387
11600.0000000247,7.5728246018453,1.0000000052825,0.711219242426791
11700.000000025,7.64087829993025,1.00000000559947,0.72437436223833
11800.0000000254,7.71199405679656,1.00000000540042,0.715470130279025
11900.0000000258,7.77904515143925,1.00000000546414,0.707487991821235
12000.0000000261,7.85291325466601,1.00000000520679,0.708088471446597
12100.0000000265,7.93310894491526,1.00000000577969,0.70972351463284
12200.0000000269,8.01282800542398,1.0000000063063,0.698681192753147
12300.0000000272,8.09638595200003,1.00000000497278,0.707127302248051
12400.0000000276,8.1787529221091,1.00000000557919,0.704404036826156
12500.0000000279,8.26099309965294,1.00000000594985,0.690412475160901
12600.0000000283,8.33909948043089,1.00000000575611,0.706732185137457
12700.0000000287,8.41787715254208,1.00000000631812,0.701929965905749
12800.000000029,8.51175636467262,1.00000000513051,0.701207897374474
12900.0000000294,8.60545438453048,1.00000000574562,0.721288568873628
13000.0000000298,8.68905832678244,1.00000000560627,0.707573096740443
13100.0000000301,8.77818218531752,1.00000000553718,0.713675383231101
13200.0000000305,8.87357260287511,1.00000000600966,0.725898134798599
13300.0000000309,8.95754236923105,1.00000000618723,0.723095060526241
13400.0000000312,9.03697703522054,1.00000000600733,0.717650622300878
13500.0000000316,9.11654489714586,1.00000000575541,0.712985388916569
13600.0000000319,9.18930686647142,1.00000000667033,0.704275079741937
13700.0000000323,9.26355909195053,1.00000000562598,0.707449240859588
13800.0000000327,9.32625176884922,1.0000000057986,0.718567091837644
13900.000000033,9.38698466908444,1.0000000060457,0.701342530976875
14000.0000000334,9.45584187746301,1.00000000629976,0.708039800415709
14100.0000000338,9.51998821142294,1.00000000564764,0.711823571009217
14200.0000000341,9.58144392772015,1.00000000624886,0.722213976489698
14300.0000000345,9.64648814420116,1.00000000593323,0.705737183336706
14400.0000000349,9.70872522778622,1.00000000615896,0.711739358283615
14500.0000000352,9.7618987006236,1.00000000646274,0.719263778933258
14600.0000000356,9.80643277161411,1.00000000571639,0.717072327955346
14700.0000000359,9.84031858992695,1.0000000064014,0.708572322006956
14800.0000000363,9.87121671641859,1.00000000619119,0.710252248723342
14900.0000000367,9.89119119303935,1.00000000606968,0.714094892008239
15000.000000037,9.90603606888939,1.00000000662635,0.710479908080964
15100.0000000374,9.91432500465916,1.00000000618576,0.715551571296718
15200.0000000378,9.9269550240859,1.00000000685329,0.729767158492695
15300.0000000381,9.93937547839319,1.00000000638532,0.716384991766691
15400.0000000385,9.95613342660466,1.00000000632733,0.733931499064388
15500.0000000389,9.98385509037387,1.00000000651309,0.717324960535788
15600.0000000392,10.0130815600663,1.00000000677482,0.71816342900202
15700.0000000396,10.0563154442531,1.00000000652695,0.708581978845685
15800.0000000399,10.1040450353104,1.0000000067206,0.702357772946238
15900.0000000403,10.1740932235587,1.00000000625652,0.684509232096401
16000.0000000407,10.2549951432482,1.00000000633492,0.680140648681088
16100.000000041,10.3776969653915,1.0000000064343,0.657163371769267
16200.0000000414,10.5357059467805,1.00000000613767,0.646592642209474
16300.0000000418,10.7540923590832,1.00000000627568,0.642606073961154
16400.0000000418,11.0275499891454,1.00000000637638,0.644095641607627
16500.0000000404,11.3748618170476,1.000000006187,0.651766389125118
16600.0000000389,11.7544469119974,1.00000000672905,0.659319076737032
16700.0000000375,12.1771787362361,1.00000000647993,0.660207695617959
16800.000000036,12.5905340492694,1.00000000718583,0.666534215434231
16900.0000000346,13.0243621988308,1.0000000075142,0.67271012173501
17000.0000000331,13.4320679384445,1.00000000657602,0.669421728610942
17100.0000000317,13.8551816734416,1.0000000063881,0.672381524117415
17200.0000000302,14.2670203185171,1.00000000647165,0.673775259773508
17300.0000000287,14.6901021744793,1.0000000075622,0.679925660471618
17400.0000000273,15.1266764379048,1.00000000644243,0.672996843753541
17500.0000000258,15.5592118292116,1.00000000687144,0.683396267523664
17600.0000000244,16.0092828256484,1.00000000682191,0.681856541521
17700.0000000229,16.4589409686724,1.00000000699783,0.688852835198744
17800.0000000215,16.9091218322089,1.00000000712063,0.702320869302446
17900.00000002,17.3504930984645,1.00000000774426,0.707877352508898
18000.0000000186,17.7593627615267,1.00000000752708,0.707772626118765
18100.0000000171,18.1627727481137,1.00000000711036,0.725595590103918
18200.0000000156,18.5437624042987,1.00000000670527,0.721250817458607
18300.0000000142,18.9131980203706,1.00000000767185,0.729247346275998
18400.0000000127,19.2635334469693,1.00000000722583,0.734868920579939
18500.0000000113,19.6061950756228,1.00000000712452,0.72524527734667
18600.0000000098,19.9433334526833,1.00000000737941,0.727752724085997
18700.0000000084,20.2709394461262,1.00000000682057,0.725346699943617
18800.0000000069,20.5949503220386,1.00000000723584,0.744195644186674
18900.0000000055,20.9119756995498,1.0000000073133,0.737171228870346
19000.000000004,21.2387387670509,1.00000000723673,0.734941874888651
19100.0000000026,21.5677179262913,1.00000000706903,0.734401941508688
19200.0000000011,21.9075747327727,1.00000000710062,0.735453681340178
19299.9999999996,22.2365072214406,1.00000000756713,0.736953755212265
19399.9999999982,22.5592936710752,1.00000000714949,0.742702178632663
19499.9999999967,22.8854588778435,1.00000000697683,0.749352863786187
19599.9999999953,23.1990294484127,1.0000000077814,0.751559222919504
19699.9999999938,23.5153870156518,1.00000000734544,0.747966574828455
19799.9999999924,23.841746530921,1.00000000713484,0.740943253313871
19899.9999999909,24.1749595005753,1.00000000739304,0.733259317854918
19999.9999999895,24.4931770856036,1.00000000784006,0.741570769448276
20099.999999988,24.8084092779442,1.00000000761801,0.743971623103024
20199.9999999865,25.1474376945612,1.00000000727078,0.742049370076699
20299.9999999851,25.5026925550113,1.00000000710645,0.746432150371054
20399.9999999836,25.8561793416306,1.00000000794394,0.743424854258244
20499.9999999822,26.206121820236,1.00000000742505,0.729459733515392
20599.9999999807,26.5803606150309,1.00000000706136,0.739718968092582
20699.9999999793,26.9605796573171,1.00000000798084,0.753897473987538
20799.9999999778,27.3270352369385,1.00000000807319,0.753588782269595
20899.9999999764,27.6861961509703,1.00000000719443,0.749156004628011
20999.9999999749,28.0403144659195,1.00000000760788,0.737610053770709
21099.9999999734,28.4001240169664,1.00000000764353,0.744855490387784
21199.999999972,28.7651174037535,1.00000000759715,0.738638343561394
21299.9999999705,29.1293123819827,1.0000000078426,0.740817425267703
21399.9999999691,29.4955506307698,1.00000000745607,0.74393777999738
21499.9999999676,29.8659242435383,1.00000000803024,0.749072190031029
21599.9999999662,30.2407710378896,1.00000000674631,0.731385083534963
21699.9999999647,30.6222851122346,1.00000000695904,0.740204400212479
21799.9999999633,31.0193806340936,1.000000008194,0.75093633081968
21899.9999999618,31.4198013917767,1.00000000804203,0.73953545892152
21999.9999999603,31.839172751986,1.00000000801746,0.735057466142538
22099.9999999589,32.2579977749858,1.00000000791911,0.754020432953152
22199.9999999574,32.6823046928867,1.00000000770586,0.748021540334305
22299.999999956,33.100795145564,1.00000000812034,0.742197554898672
22399.9999999545,33.5091627688744,1.00000000785288,0.752040215747641
22499.9999999531,33.9112172267719,1.00000000802693,0.742070171547275
22599.9999999516,34.3134361367562,1.00000000835075,0.746233936074893
22699.9999999502,34.7010200078577,1.00000000852705,0.753259789329117
22799.9999999487,35.093994210983,1.00000000783615,0.742807353435299
22899.9999999473,35.5248137319657,1.00000000698133,0.727133417579674
22999.9999999458,35.980673036728,1.00000000839688,0.747428006364461
23099.9999999443,36.4297065997294,1.00000000818702,0.742335450882191
23199.9999999429,36.8807103369599,1.00000000749447,0.740146530727359
23299.9999999414,37.3189583097823,1.00000000858636,0.749237471475215
23399.99999994,37.7479303795166,1.0000000080967,0.737344629486319
23499.9999999385,38.1870699887672,1.00000000848236,0.745513613248287
23599.9999999371,38.625217340818,1.00000000888616,0.742488093750563
23699.9999999356,39.0663624227882,1.00000000906632,0.75286085590635
23799.9999999342,39.5103106010483,1.00000000798585,0.749283352103889
23899.9999999327,39.9697780364125,1.00000000798068,0.744509872535312
23999.9999999312,40.4484939247266,1.00000000814669,0.739609482497749
24099.9999999298,40.9453098971803,1.00000000857833,0.733650576941164
24199.9999999283,41.4535969607709,1.00000000824824,0.736088232324083
24299.9999999269,41.9723942557884,1.00000000843893,0.749482640107444
24399.9999999254,42.4956932932442,1.00000000895278,0.758227409094607
24499.999999924,43.0243602125316,1.00000000811551,0.756760737206785
24599.9999999225,43.5637527849327,1.00000000880753,0.750105943917576
24699.9999999211,44.1130789627973,1.00000000764883,0.741347830434802
24799.9999999196,44.689927159411,1.00000000843348,0.728231730740865
24899.9999999181,45.2850082199281,1.00000000908156,0.746891028870924
24999.9999999167,45.8851245657936,1.00000000949068,0.752116771279291
25099.9999999152,46.4834407434475,1.00000000855424,0.748481465672923
25199.9999999138,47.0915977771415,1.00000000880388,0.749165961186458
25299.9999999123,47.7042873477685,1.00000000881487,0.749218742079246
25399.9999999109,48.3201926160057,1.00000000902207,0.753766918678376
25499.9999999094,48.9227898566715,1.00000000930722,0.753943354727198
25599.999999908,49.5178506269246,1.00000000806245,0.747402124834169
25699.9999999065,50.1231310110963,1.00000000912938,0.741697683546145
25799.9999999051,50.7274237418035,1.00000000856967,0.745379967536597
25899.9999999036,51.3340406243918,1.00000000888129,0.740529203441991
25999.9999999021,51.9546739479933,1.00000000865476,0.748231677159023
26099.9999999007,52.5830674524082,1.00000001011877,0.749645914120835
26199.9999998992,53.2089431122783,1.00000000897488,0.740732671809339
26299.9999998978,53.8516680925818,1.00000000902915,0.743976704762074
26399.9999998963,54.4997989799927,1.00000000970205,0.755336614520224
26499.9999998949,55.1484512148108,1.00000000843044,0.754880692778474
26599.9999998934,55.7945062438383,1.00000000892964,0.75202891063433
26699.999999892,56.4409350715133,1.00000000959346,0.756508479741673
26799.9999998905,57.0860746209074,1.00000000976933,0.752915117582733
26899.999999889,57.7284203229508,1.00000000865528,0.747188866190517
26999.9999998876,58.3712050837008,1.00000000982425,0.746378450099642
27099.9999998861,59.0318606125395,1.00000000886759,0.736355691646099
27199.9999998847,59.7302604972699,1.00000000941963,0.741382085192625
27299.9999998832,60.4443549541219,1.00000000936508,0.754683060451785
27399.9999998818,61.1513653259452,1.00000000924678,0.757879822450343
27499.9999998803,61.8456360901357,1.00000000868216,0.750146451773288
27599.9999998789,62.5470392160249,1.00000001003869,0.753969415074632
27699.9999998774,63.2509652583323,1.00000000969086,0.748866752758656
27799.9999998759,63.9560281926838,1.00000000949194,0.751741213323912
27899.9999998745,64.6633900241833,1.00000000907573,0.753635659417472
27999.999999873,65.3828960995917,1.00000000959237,0.75492636722492
28099.9999998716,66.1099365938806,1.00000000931278,0.751466381521716
28199.9999998701,66.8390444310903,1.00000001007194,0.760060743872954
28299.9999998687,67.5636446735842,1.00000000943141,0.759122674904049
28399.9999998672,68.282182545713,1.00000000994379,0.758215496441044
28499.9999998658,69.0143713356258,1.00000000941207,0.762282280577832
28599.9999998643,69.7564117389193,1.00000000903594,0.753367195041648
28699.9999998629,70.5100412775643,1.0000000095095,0.75131440654532
28799.9999998614,71.2781918258954,1.00000000944332,0.748675823767288
28899.9999998599,72.0723057683847,1.00000000940404,0.760298668534423
28999.9999998585,72.8774906794664,1.00000001051114,0.759233461223059
29099.999999857,73.6840859296993,1.00000000981865,0.76218635608437
