Time,AGPnorm,Energy,Entropy
0,0,1,-7.40449154738944e-17
99.9999999999986,0.000570629846564782,0.999999999996169,0.00210515833522006
199.999999999993,0.00402012236341231,0.999999999996064,0.00620520195897744
300,0.00811563360666571,0.999999999999958,0.0116505971605608
400.000000000022,0.012228072221793,1.00000000000122,0.0186409087719811
500.000000000045,0.0176302343424684,0.999999999997614,0.0270631465166572
600.000000000068,0.0250565798850884,0.999999999995378,0.0364287143441777
700.000000000091,0.0324799329484803,0.999999999998202,0.0467535404421372
800.000000000113,0.040558491577927,1.00000000000143,0.0583121496686844
900.000000000136,0.0490092459057515,0.999999999999333,0.0711369637926599
1000.00000000016,0.0591948074325546,0.999999999995907,0.0849455620194125
1100.0000000001,0.0691411051052263,0.999999999996525,0.0999414886646281
1200,0.0793529260892958,1.00000000000061,0.116596973596327
1299.99999999991,0.0891215778661302,1.00000000000089,0.135420161249107
1399.99999999982,0.0999630954515578,0.999999999998314,0.156388840906162
1499.99999999973,0.110729516862116,0.999999999999866,0.180274812318615
1599.99999999964,0.121995549271413,1.00000000001362,0.20769960124199
1699.99999999955,0.134436368062175,1.00000000004146,0.239192186780612
1799.99999999946,0.147771394327247,1.00000000008963,0.27288035165927
1899.99999999937,0.175034241498722,1.00000000014583,0.306726410417559
1999.99999999928,0.24218199484772,1.00000000023605,0.338623119809977
2099.99999999919,0.37486700121011,1.00000000032159,0.368541726920749
2199.99999999909,0.609413259764882,1.00000000041253,0.395648329872101
2299.999999999,1.0205235706356,1.00000000050023,0.419499961176979
2399.99999999891,1.67947589724371,1.00000000058628,0.440177451125937
2499.99999999882,2.62177414620687,1.00000000064687,0.458754112302096
2599.99999999873,3.89537916475748,1.00000000070506,0.475546727279009
2699.99999999864,5.58243928812452,1.00000000073807,0.489924186060644
2799.99999999855,7.72590716227431,1.00000000079114,0.501778943779187
2899.99999999846,10.2975841753547,1.00000000083991,0.512081462202461
2999.99999999837,13.2834101250059,1.00000000085652,0.521580763795173
3099.99999999828,16.7256379279737,1.00000000086195,0.529391546663327
3199.99999999819,20.6258818363188,1.00000000080248,0.535627874343637
3299.99999999809,24.9035335607984,1.00000000085379,0.540377294980437
3399.999999998,29.4770400986025,1.00000000087418,0.545212980855265
3499.99999999791,34.3477783156507,1.00000000083282,0.548995834523972
3599.99999999782,39.507985878872,1.0000000008952,0.551323180667401
3699.99999999773,44.8729307647285,1.00000000089372,0.552853675755299
3799.99999999764,50.3397067650159,1.0000000008611,0.554553291989333
3899.99999999755,55.8703865166722,1.00000000080375,0.556373291453147
3999.99999999746,61.4662299242175,1.00000000077837,0.556433790822305
4099.99999999738,67.0778898149873,1.00000000079597,0.555511078680641
4199.99999999775,72.6153613651668,1.00000000081265,0.555348659784445
4299.99999999811,78.0221546256733,1.00000000076219,0.556053124276537
4399.99999999848,83.3034179058172,1.0000000007742,0.553699677000829
4499.99999999884,88.4471034207077,1.00000000069904,0.552874856320795
4599.9999999992,93.398186484408,1.00000000070337,0.551531794215492
4699.99999999957,98.1083045469891,1.00000000067548,0.55042165195119
4799.99999999993,102.567667659517,1.00000000071525,0.549030287948232
4900.00000000029,106.789217538958,1.0000000006725,0.547255796497306
5000.00000000066,110.75546652669,1.00000000066174,0.544891410383693
5100.00000000102,114.440355442045,1.00000000062247,0.544436517488219
5200.00000000139,117.827584517508,1.00000000063449,0.543475130220909
5300.00000000175,120.932850763284,1.00000000060751,0.540092559788255
5400.00000000211,123.766382516572,1.00000000056607,0.539855255344928
5500.00000000248,126.32179717399,1.0000000005999,0.539584331387976
5600.00000000284,128.584990362492,1.00000000054314,0.534976873916539
5700.00000000321,130.558861329587,1.00000000052974,0.532940347409167
5800.00000000357,132.272309165335,1.0000000005291,0.538615767753085
5900.00000000393,133.742381987393,1.00000000053299,0.535924748695195
6000.0000000043,134.953054923251,1.0000000004763,0.52313577447847
6100.00000000466,135.894137636958,1.00000000049191,0.526413908656018
6200.00000000502,136.613807116195,1.00000000051443,0.543092186844429
6300.00000000539,137.15516771,1.00000000051879,0.539107969899972
6400.00000000575,137.489646077508,1.00000000043346,0.51190394320729
6500.00000000612,137.584049576891,1.00000000039051,0.510973094674302
6600.00000000648,137.496878142909,1.00000000049414,0.542793893593288
6700.00000000684,137.314415255596,1.00000000058762,0.553136149860123
6800.00000000721,137.028904932104,1.00000000045574,0.520480078668694
6900.00000000757,136.561907776929,1.00000000032612,0.482798056095235
7000.00000000793,135.909264240027,1.00000000041183,0.508655127521407
7100.0000000083,135.178647029709,1.00000000055695,0.555044732650295
7200.00000000866,134.451789710453,1.00000000063378,0.561022285745748
7300.00000000903,133.695314516564,1.00000000046998,0.515512848757848
7400.00000000939,132.811016450536,1.00000000028637,0.456254097748884
7500.00000000975,131.775867582764,1.00000000032918,0.473707723694647
7600.00000001012,130.683832005715,1.00000000056457,0.538790027909745
7700.00000001048,129.631226552409,1.0000000007087,0.568549065198717
7800.00000001084,128.630746693439,1.00000000063112,0.551159204657429
7900.00000001121,127.612696734198,1.00000000041272,0.480864777551533
8000.00000001157,126.49407022666,1.00000000022669,0.417010191765708
8100.00000001194,125.277564502186,1.00000000030624,0.444717364578233
8200.0000000123,124.040620598953,1.00000000057571,0.522751640267194
8300.00000001266,122.850995496735,1.00000000074639,0.562103382347974
8400.00000001303,121.730951579892,1.00000000070925,0.560225190237956
8500.00000001339,120.648883294805,1.00000000056334,0.516486992511319
8600.00000001376,119.542670189081,1.00000000034982,0.431685336333395
8700.00000001412,118.374220323877,1.000000000224,0.380865576300293
8800.00000001448,117.158924776342,1.00000000032912,0.422645112713662
8900.00000001485,115.942033637619,1.00000000060084,0.503610342983007
9000.00000001521,114.76308203809,1.00000000073979,0.546069569157528
9100.00000001557,113.641377767608,1.00000000073296,0.552593926843735
9200.00000001594,112.570057395049,1.000000000634,0.535396543452786
9300.0000000163,111.518997755284,1.00000000049837,0.486508452371566
9400.00000001667,110.454392251104,1.00000000033865,0.414621724161333
9500.00000001703,109.365419401301,1.00000000026336,0.375352200450306
9600.00000001739,108.265269655978,1.00000000031921,0.398269929531555
9700.00000001776,107.171842436222,1.00000000047564,0.461777390277788
9800.00000001812,106.09804715968,1.00000000061757,0.514758788736484
9900.00000001848,105.053609596242,1.00000000069621,0.533398644273267
10000.0000000188,104.043757103974,1.00000000070993,0.537449437419641
10100.0000000192,103.064500584172,1.0000000006064,0.528916564320801
10200.0000000196,102.103424456978,1.00000000047259,0.492709326308657
10300.0000000199,101.148613411847,1.00000000038225,0.443471996861857
10400.0000000203,100.198435320141,1.00000000032881,0.403705009610671
10500.0000000207,99.2600667489554,1.00000000032901,0.394670903472345
10600.000000021,98.3393714568977,1.00000000037784,0.421067676243741
10700.0000000214,97.4366937580217,1.00000000044004,0.458067258116219
10800.0000000218,96.5495981205364,1.00000000053761,0.49628178770023
10900.0000000221,95.676516609014,1.00000000058355,0.511036001014158
11000.0000000225,94.8166067162479,1.00000000061721,0.513868614111011
11100.0000000229,93.9700318892665,1.00000000064434,0.527657309319262
11200.0000000232,93.1382340088775,1.0000000006362,0.536093275500692
11300.0000000236,92.3217445172387,1.00000000053179,0.511316893813928
11400.0000000239,91.5211616744828,1.00000000038573,0.462509663743052
11500.0000000243,90.740846565086,1.00000000032082,0.42462528394111
11600.0000000247,89.9862507142402,1.00000000036253,0.411577164576398
11700.000000025,89.2584413911261,1.0000000004198,0.417754174283612
11800.0000000254,88.5544520923678,1.00000000048522,0.445761507077563
11900.0000000258,87.8688561293301,1.00000000048848,0.467090788179134
12000.0000000261,87.1968306898559,1.00000000049922,0.480811869027714
12100.0000000265,86.5367211534631,1.00000000047332,0.494855456275263
12200.0000000269,85.8895655322964,1.00000000046028,0.494617592752179
12300.0000000272,85.2525782151256,1.00000000051597,0.493844839245363
12400.0000000276,84.6171156385134,1.00000000062215,0.509010483819466
12500.0000000279,83.9775307361272,1.00000000069145,0.528869866231116
12600.0000000283,83.337233294706,1.00000000064436,0.538866071007354
12700.0000000287,82.7040664521496,1.00000000054484,0.520768043540101
12800.000000029,82.0874606906013,1.00000000041915,0.479491377060502
12900.0000000294,81.4989588777197,1.00000000032637,0.439012201588312
13000.0000000298,80.9472271726654,1.00000000029163,0.416781870001439
13100.0000000301,80.4303854660833,1.00000000038803,0.416597368726901
13200.0000000305,79.9381307611163,1.00000000048589,0.431614358435305
13300.0000000309,79.4603753256875,1.00000000051973,0.453024935876736
13400.0000000312,78.9911418015151,1.00000000052249,0.476618886875035
13500.0000000316,78.5281151643419,1.00000000053825,0.489094746002634
13600.0000000319,78.0715355382521,1.00000000048921,0.493104464877364
13700.0000000323,77.6232461810339,1.00000000044462,0.494414569028263
13800.0000000327,77.1857855098644,1.00000000043979,0.497920906428257
13900.000000033,76.7593657012387,1.00000000043202,0.498978354261946
14000.0000000334,76.337978247321,1.00000000046676,0.497877343936967
14100.0000000338,75.9122246735083,1.0000000005749,0.503057302924881
14200.0000000341,75.4747249395052,1.00000000065629,0.514910597253615
14300.0000000345,75.024435009212,1.00000000069147,0.529829643836807
14400.0000000349,74.5678519168464,1.00000000063944,0.537273013852801
14500.0000000352,74.1149384190267,1.00000000052123,0.524222677368352
14600.0000000356,73.6763175146134,1.00000000042807,0.496507379409755
14700.0000000359,73.2626562473731,1.0000000003771,0.464131779156533
14800.0000000363,72.8831893720711,1.00000000035805,0.444077925226326
14900.0000000367,72.5415172538738,1.00000000035356,0.435898489931346
15000.000000037,72.2345667614075,1.00000000039263,0.432404542612731
15100.0000000374,71.9527983920598,1.00000000045711,0.439296469923272
15200.0000000378,71.6829889721439,1.00000000050764,0.461562616946457
15300.0000000381,71.4174047831284,1.00000000052987,0.477454112357947
15400.0000000385,71.1572634379674,1.00000000048521,0.480885257342819
15500.0000000389,70.9053108777582,1.00000000048612,0.485401981958746
15600.0000000392,70.6607377290993,1.0000000004609,0.492275590904061
15700.0000000396,70.4164455322477,1.00000000051581,0.505558876568764
15800.0000000399,70.1661493426468,1.00000000055532,0.52181509134776
15900.0000000403,69.9069288024393,1.000000000554,0.530428982150454
16000.0000000407,69.6421690016953,1.00000000049869,0.536099429176817
16100.000000041,69.3770356991398,1.00000000045727,0.53331716650057
16200.0000000414,69.1147686534654,1.00000000043869,0.523487367845337
16300.0000000418,68.8559795061819,1.00000000045609,0.512880334229619
16400.0000000418,68.5982240105825,1.00000000051065,0.500043898734422
16500.0000000404,68.3366243479274,1.00000000055364,0.502210294201974
16600.0000000389,68.0648666230194,1.00000000063045,0.517449895674948
16700.0000000375,67.7790133604231,1.00000000065845,0.535650353640299
16800.000000036,67.4818128637824,1.00000000063258,0.547425897564422
16900.0000000346,67.1827303596324,1.00000000055258,0.542679264503217
17000.0000000331,66.8932846596724,1.00000000044203,0.520306665889039
17100.0000000317,66.6263291117295,1.00000000038319,0.49391582027007
17200.0000000302,66.3921930240112,1.00000000035711,0.468883096937242
17300.0000000287,66.1947563531516,1.00000000036553,0.455165577495685
17400.0000000273,66.0306193091577,1.00000000040803,0.451797649475939
17500.0000000258,65.8928279008869,1.00000000045534,0.454814490850843
17600.0000000244,65.7731778908814,1.00000000047713,0.460394219373635
17700.0000000229,65.6642870514053,1.00000000050076,0.463186773786539
17800.0000000215,65.5605289217399,1.00000000050269,0.470965726420597
17900.00000002,65.4568283036035,1.00000000051845,0.483230078331423
18000.0000000186,65.3510845697665,1.00000000052792,0.496976839065487
18100.0000000171,65.247799708275,1.00000000048901,0.504152518927109
18200.0000000156,65.1547160980069,1.0000000004425,0.50484031109243
18300.0000000142,65.0764488185081,1.00000000042823,0.504943585569407
18400.0000000127,65.0107925794734,1.00000000044007,0.508609075638215
18500.0000000113,64.9472558607333,1.00000000047408,0.518474835263589
18600.0000000098,64.8740206255944,1.00000000055592,0.530138518504897
18700.0000000084,64.7811366092293,1.000000000605,0.536072999910306
18800.0000000069,64.6642270839139,1.00000000061129,0.540028201832425
18900.0000000055,64.5239998160278,1.00000000058965,0.54019315162762
19000.000000004,64.3662448838273,1.00000000052537,0.544778545762545
19100.0000000026,64.1993795252077,1.00000000048695,0.552402765785544
19200.0000000011,64.0319281275442,1.00000000046661,0.550906641479589
19299.9999999996,63.8695372322062,1.00000000044907,0.539936060062503
19399.9999999982,63.714338843336,1.00000000040936,0.532778343793372
19499.9999999967,63.5656103592411,1.00000000045099,0.533546988653737
19599.9999999953,63.4187297896109,1.00000000050257,0.53030831157003
19699.9999999938,63.2691989473575,1.00000000051427,0.525716209617409
19799.9999999924,63.1135618082613,1.00000000051807,0.525517854520626
19899.9999999909,62.9488532039935,1.00000000057434,0.531818837031074
19999.9999999895,62.7731906081185,1.00000000062394,0.542026332124213
20099.999999988,62.5862118267195,1.00000000064789,0.55308824755884
20199.9999999865,62.3922005255503,1.0000000005934,0.556348534501562
20299.9999999851,62.1987553628207,1.00000000049999,0.549769624357956
20399.9999999836,62.0156420617911,1.00000000044378,0.537116369208599
20499.9999999822,61.8527726979674,1.00000000040901,0.518039318392629
20599.9999999807,61.7171287255521,1.00000000038971,0.497442655340229
20699.9999999793,61.6117149289002,1.00000000037943,0.483210615513328
20799.9999999778,61.5365203391611,1.00000000039261,0.473148734927081
20899.9999999764,61.4887098884038,1.00000000040488,0.473631497034619
20999.9999999749,61.46341249757,1.00000000043668,0.476026578329425
21099.9999999734,61.4555925952049,1.00000000048107,0.474559618608732
21199.999999972,61.457479982807,1.00000000048679,0.471546847639311
21299.9999999705,61.461723238471,1.00000000053396,0.47605750815169
21399.9999999691,61.4665135451465,1.00000000052101,0.479624027039038
21499.9999999676,61.4755981017108,1.00000000046283,0.476835923387066
21599.9999999662,61.493644493246,1.00000000044435,0.475754464349593
21699.9999999647,61.5216704353752,1.00000000044719,0.486239493238755
21799.9999999633,61.5553469107364,1.00000000047609,0.505289701986477
21899.9999999618,61.5875347298985,1.00000000050582,0.518504540317481
21999.9999999603,61.6117776427955,1.00000000053711,0.528346725088929
22099.9999999589,61.6242210149047,1.00000000054488,0.538395935225308
22199.9999999574,61.6254415157333,1.00000000055108,0.548094990883647
22299.999999956,61.6206970170366,1.00000000052066,0.552052875107262
22399.9999999545,61.6142800709402,1.00000000049019,0.549002159036247
22499.9999999531,61.6078906126013,1.00000000049273,0.547868993656133
22599.9999999516,61.6015998898513,1.00000000047714,0.552254784777336
22699.9999999502,61.5942248220553,1.00000000047682,0.559782091378151
22799.9999999487,61.583845265387,1.00000000047986,0.561791335738246
22899.9999999473,61.5667937419761,1.00000000048714,0.561614264685439
22999.9999999458,61.5399076129699,1.00000000052246,0.559603732950699
23099.9999999443,61.5007726465694,1.00000000052649,0.557355212495119
23199.9999999429,61.4472962232733,1.00000000054544,0.554718496840799
23299.9999999414,61.3789613094121,1.00000000053976,0.545739837592454
23399.99999994,61.297728114008,1.000000000548,0.537572981525248
23499.9999999385,61.2061950833466,1.00000000054753,0.541878377411396
23599.9999999371,61.1060724602922,1.00000000051464,0.553264880146837
23699.9999999356,60.9982740724435,1.00000000050561,0.562089747029079
23799.9999999342,60.8849078822448,1.00000000050573,0.567726097209595
23899.9999999327,60.7687697321992,1.00000000048113,0.565788871357911
23999.9999999312,60.6535841352829,1.00000000046273,0.561454683225507
24099.9999999298,60.5426357855714,1.00000000043625,0.558253922848669
24199.9999999283,60.4372320619339,1.00000000044951,0.560867044673555
24299.9999999269,60.3359132860604,1.00000000045468,0.562369243168222
24399.9999999254,60.2364042082212,1.00000000045353,0.559653811094255
24499.999999924,60.1366500696741,1.00000000049826,0.559957829219764
24599.9999999225,60.0350463539093,1.00000000050505,0.561425165307816
24699.9999999211,59.9304313127345,1.00000000053261,0.558685995455752
24799.9999999196,59.8213129043643,1.00000000055812,0.552985942196883
24899.9999999181,59.7064180482231,1.00000000059639,0.548999588069474
24999.9999999167,59.5851440140528,1.00000000061973,0.549275326793233
25099.9999999152,59.4561082374417,1.00000000062616,0.55105426516096
25199.9999999138,59.3197157483576,1.00000000057905,0.553082264098938
25299.9999999123,59.1802760059941,1.00000000055666,0.556020183433302
25399.9999999109,59.0439076877507,1.000000000501,0.553280053396477
25499.9999999094,58.9170816375977,1.00000000046163,0.546731993737981
25599.999999908,58.8062869528643,1.00000000040051,0.533864940428676
25699.9999999065,58.7164186038322,1.00000000038402,0.52155808487579
25799.9999999051,58.651008795084,1.00000000038202,0.514076742496158
25899.9999999036,58.6114068101807,1.0000000003884,0.505167326552189
25999.9999999021,58.5972951213559,1.00000000041651,0.497442805979228
26099.9999999007,58.6058110406432,1.00000000043398,0.491796647746771
26199.9999998992,58.6340538774346,1.00000000042231,0.48923030951262
26299.9999998978,58.6793540656131,1.00000000045912,0.487463710069873
26399.9999998963,58.73557280612,1.00000000049434,0.488530894325297
26499.9999998949,58.7968547696909,1.00000000052842,0.492823691741298
26599.9999998934,58.8612298881423,1.00000000049067,0.496351143804017
26699.999999892,58.9295433255312,1.00000000049014,0.495729794079154
26799.9999998905,59.0045147724187,1.00000000046163,0.48936768593458
26899.999999889,59.0862357008809,1.00000000047063,0.487526241376367
26999.9999998876,59.1718308157753,1.00000000048205,0.492915801454889
27099.9999998861,59.2588256559943,1.00000000049516,0.503635575719342
27199.9999998847,59.3463200927242,1.00000000048986,0.512213280670995
27299.9999998832,59.4337578853704,1.0000000004954,0.522189456808744
27399.9999998818,59.5202427345085,1.00000000052338,0.531115051150416
27499.9999998803,59.6035299300134,1.00000000052344,0.538777524512469
27599.9999998789,59.6821723010083,1.00000000052477,0.545118179505931
27699.9999998774,59.7546847438507,1.00000000053293,0.553487913445282
27799.9999998759,59.8209339060749,1.00000000053093,0.559165990584907
27899.9999998745,59.8810679915481,1.00000000050257,0.565222356782904
27999.999999873,59.9356807165927,1.00000000050117,0.569648894122237
28099.9999998716,59.9839554157589,1.00000000050597,0.569593231610289
28199.9999998701,60.0252298066382,1.00000000054662,0.567562445559529
28299.9999998687,60.0586443324437,1.00000000052645,0.567317162277371
28399.9999998672,60.0833601213851,1.0000000005303,0.570539203476367
28499.9999998658,60.099464988081,1.00000000051406,0.571132383395868
28599.9999998643,60.1081384220468,1.00000000051619,0.574392066078197
28699.9999998629,60.11207313177,1.00000000047827,0.580157395672281
28799.9999998614,60.1143355984715,1.00000000048453,0.577923152515741
28899.9999998599,60.1178910882317,1.00000000046866,0.569472833944404
28999.9999998585,60.1219959777926,1.00000000046656,0.56868812067094
