Time,AGPnorm,Energy,Entropy
0,0,1,-3.23012172468006e-18
99.9999999999986,0.00516113903141187,1.00000000000118,0.0155415853741186
199.999999999993,0.0138668006868478,1.00000000000025,0.0451902482443728
300,0.0287634151074359,1.00000000000097,0.088628493024853
400.000000000022,0.0443880564083539,1.00000000000298,0.145708888340298
500.000000000045,0.060569566735495,1.00000000004422,0.225496647131707
600.000000000068,0.0980653457643199,1.0000000003476,0.33019472602727
700.000000000091,0.233121119918614,1.0000000009455,0.429103616474923
800.000000000113,0.811906359198511,1.00000000153235,0.497639998082861
900.000000000136,2.08544129973541,1.00000000185036,0.538638952775614
1000.00000000016,4.19601225967565,1.00000000190301,0.560364563049826
1100.0000000001,7.0445784182487,1.00000000204449,0.569645450012072
1200,10.3449570307504,1.00000000188899,0.570912605619185
1299.99999999991,13.8430334547528,1.00000000183132,0.56846787580232
1399.99999999982,17.2271841435185,1.00000000188017,0.561214237459755
1499.99999999973,20.3048297896985,1.00000000168697,0.551355879776697
1599.99999999964,22.9281987535113,1.00000000161252,0.546525869605462
1699.99999999955,25.025124340211,1.00000000143103,0.534703388437614
1799.99999999946,26.6049338926005,1.00000000141364,0.540700052372825
1899.99999999937,27.6427501672889,1.00000000116827,0.511934816464967
1999.99999999928,28.2543157455484,1.00000000135666,0.547218537371556
2099.99999999919,28.4352165468755,1.00000000089673,0.476491579295176
2199.99999999909,28.2977394783708,1.00000000146092,0.561475321201906
2299.999999999,28.0233222644602,1.00000000100714,0.478718096473027
2399.99999999891,27.4359504772862,1.00000000099838,0.476076733528448
2499.99999999882,26.8493219795732,1.00000000170208,0.583476827434059
2599.99999999873,26.2611791780112,1.000000000923,0.435232495305979
2699.99999999864,25.4982054445638,1.00000000086671,0.407973521184875
2799.99999999855,24.7404893414472,1.00000000178847,0.564115307942715
2899.99999999846,24.1010459810492,1.0000000016469,0.548004951633835
2999.99999999837,23.4486830728557,1.00000000063174,0.361692153203732
3099.99999999828,22.7474138997806,1.00000000085318,0.389774123164705
3199.99999999819,22.0559400666568,1.00000000150058,0.528261684485916
3299.99999999809,21.4238968916041,1.00000000167587,0.556361065606514
3399.999999998,20.85758445364,1.00000000139308,0.529883701206276
3499.99999999791,20.3035951678135,1.0000000006476,0.360515398605976
3599.99999999782,19.7929911242601,1.00000000080833,0.367075861589818
3699.99999999773,19.3088256617869,1.00000000144483,0.49442105675388
3799.99999999764,18.8245274066593,1.00000000124408,0.529402719675629
3899.99999999755,18.3555998800965,1.00000000140492,0.508319578770564
3999.99999999746,17.8990251904798,1.00000000163822,0.576979267361427
4099.99999999738,17.4735237488578,1.000000001208,0.513109379638465
4199.99999999775,17.1022668105413,1.00000000058081,0.36654362224264
4299.99999999811,16.8364656352337,1.00000000075142,0.351128197942908
4399.99999999848,16.625079174839,1.00000000117589,0.458581512730716
4499.99999999884,16.3894820932018,1.00000000159582,0.526807797271947
4599.9999999992,16.1162423601801,1.0000000014553,0.552877866976669
4699.99999999957,15.8518152134875,1.00000000094884,0.511988236859052
4799.99999999993,15.594080132543,1.00000000128036,0.51359908540526
4900.00000000029,15.3115779313638,1.0000000016587,0.534302752864355
5000.00000000066,15.0157248869356,1.00000000180857,0.579436561747886
5100.00000000102,14.7299823366057,1.00000000129633,0.550177627307581
5200.00000000139,14.4912512358621,1.00000000067242,0.428047888968941
5300.00000000175,14.368051890443,1.00000000060292,0.356271736939522
5400.00000000211,14.3738929253594,1.00000000090561,0.373490372817251
5500.00000000248,14.4227118273465,1.00000000142066,0.458894018188588
5600.00000000284,14.4253170181542,1.00000000155121,0.52848923801195
5700.00000000321,14.392781594413,1.00000000121629,0.537622945102393
5800.00000000357,14.339633215501,1.00000000125725,0.539861282321272
5900.00000000393,14.2501254967617,1.00000000135169,0.558476654628591
6000.0000000043,14.131025079453,1.00000000120475,0.53989571123679
6100.00000000466,14.0061113184394,1.00000000121436,0.545742520899779
6200.00000000502,13.8805733238271,1.00000000122712,0.545005637300072
6300.00000000539,13.7594758967631,1.00000000113833,0.546284222264638
6400.00000000575,13.6260999318141,1.00000000136654,0.548804205128579
6500.00000000612,13.4688380321679,1.00000000145807,0.557153450994643
6600.00000000648,13.2915090225884,1.00000000166434,0.568860404883876
6700.00000000684,13.103908119142,1.00000000169734,0.589017297444158
6800.00000000721,12.9195663639375,1.00000000125974,0.558267544128021
6900.00000000757,12.7642262732917,1.00000000080478,0.475171717701409
7000.00000000793,12.6958641499221,1.00000000063987,0.394654430863991
7100.0000000083,12.7637615088241,1.00000000068898,0.371569450354746
7200.00000000866,12.9593347536058,1.00000000088491,0.389207404579172
7300.00000000903,13.2043960683032,1.00000000128218,0.443365813496245
7400.00000000939,13.4274748534256,1.00000000142185,0.496450184942976
7500.00000000975,13.6063050698981,1.0000000014751,0.536577485190426
7600.00000001012,13.7375160847278,1.00000000134381,0.551578858806908
7700.00000001048,13.8347993116308,1.00000000130911,0.559769346968964
7800.00000001084,13.8974362899635,1.00000000128679,0.57899424651827
7900.00000001121,13.9168564789526,1.00000000145427,0.587728861489967
8000.00000001157,13.9048643520815,1.00000000124878,0.576219348756342
8100.00000001194,13.875418400175,1.0000000012906,0.56379602985991
8200.0000000123,13.8372931019761,1.00000000124326,0.560449080897997
8300.00000001266,13.7861130936987,1.0000000012858,0.552767927596192
8400.00000001303,13.7244230280483,1.00000000131201,0.550262909691305
8500.00000001339,13.665830723639,1.00000000114611,0.552390018623202
8600.00000001376,13.6121014516757,1.00000000123272,0.552980336838008
8700.00000001412,13.5547677793089,1.0000000013048,0.556732800692527
8800.00000001448,13.4957205091787,1.00000000124235,0.563044178541912
8900.00000001485,13.4361454399344,1.0000000012537,0.561205520485958
9000.00000001521,13.3709259184886,1.00000000130512,0.559285992396047
9100.00000001557,13.2945042620113,1.00000000135205,0.561455048498116
9200.00000001594,13.2052845399554,1.00000000133652,0.586942839248114
9300.0000000163,13.1089710268398,1.00000000116921,0.597868257613079
9400.00000001667,13.0143032760009,1.00000000114194,0.582693483976286
9500.00000001703,12.9187565700425,1.00000000122589,0.590890899761723
9600.00000001739,12.8171757583724,1.00000000126983,0.587813854748499
9700.00000001776,12.7078163525798,1.00000000152193,0.59263813505099
9800.00000001812,12.5934998437175,1.00000000150884,0.601507398901349
9900.00000001848,12.4809432007825,1.00000000157129,0.595618439406441
10000.0000000188,12.3732512137921,1.00000000185553,0.601230601594891
10100.0000000192,12.2665335084476,1.00000000148648,0.592565350905015
10200.0000000196,12.1540180689658,1.00000000126047,0.571309555053596
10300.0000000199,12.0391091167646,1.00000000088647,0.516514277221235
10400.0000000203,11.9480722553757,1.00000000074034,0.460184873848914
10500.0000000207,11.9233853950957,1.00000000060962,0.409059555340753
10600.000000021,12.005585870219,1.00000000072875,0.384230211824009
10700.0000000214,12.2113393508539,1.0000000006826,0.385807311874469
10800.0000000218,12.5263142406953,1.00000000107643,0.406239474133794
10900.0000000221,12.8932259057784,1.00000000115643,0.436728242862883
11000.0000000225,13.2727744421507,1.00000000141836,0.468124292100973
11100.0000000229,13.6201488007757,1.00000000144766,0.500178271392906
11200.0000000232,13.9363920048284,1.00000000139313,0.517996597675883
11300.0000000236,14.2136026257887,1.00000000148757,0.547685421054579
11400.0000000239,14.4549183131589,1.00000000139546,0.562809133487597
11500.0000000243,14.6629652741838,1.00000000140577,0.568410044746023
11600.0000000247,14.8367140751953,1.00000000144392,0.580897224152878
11700.000000025,14.9797558490534,1.00000000133718,0.594490522695522
11800.0000000254,15.0916176577426,1.0000000014496,0.605833248013466
11900.0000000258,15.173829273384,1.00000000147997,0.608431042341905
12000.0000000261,15.2278460756388,1.00000000134433,0.609449604567703
12100.0000000265,15.2605368258834,1.00000000142401,0.612045978540623
12200.0000000269,15.2744355050437,1.0000000014425,0.609280613871064
12300.0000000272,15.2766417196254,1.00000000124769,0.593329278021468
12400.0000000276,15.2721905026907,1.00000000140593,0.592209130662506
12500.0000000279,15.2506528335425,1.00000000151967,0.594925977668158
12600.0000000283,15.2226585777681,1.00000000128327,0.581461170945754
12700.0000000287,15.1878660593847,1.00000000137871,0.590440991446755
12800.000000029,15.1400189849704,1.00000000147397,0.592445078472981
12900.0000000294,15.0860991730643,1.00000000135616,0.600079733224406
13000.0000000298,15.0253750710952,1.00000000133045,0.599532097731966
13100.0000000301,14.9577523609768,1.00000000149284,0.611400667923522
13200.0000000305,14.8842709921233,1.00000000142559,0.612010132365131
13300.0000000309,14.8126640284767,1.0000000013485,0.599798883742437
13400.0000000312,14.7469129058137,1.0000000012389,0.583327841918251
13500.0000000316,14.6887063849843,1.00000000131996,0.565572169078294
13600.0000000319,14.6378974464142,1.00000000136168,0.566920798162764
13700.0000000323,14.5871762611817,1.00000000140028,0.579398404061527
13800.0000000327,14.5377518486947,1.00000000148216,0.577797724993513
13900.000000033,14.4867138704107,1.00000000145354,0.574809063982489
14000.0000000334,14.4365341499129,1.00000000141116,0.582830164781883
14100.0000000338,14.3919571606757,1.00000000128219,0.58750154531413
14200.0000000341,14.3512248414274,1.00000000149994,0.584035871431178
14300.0000000345,14.3082469548306,1.00000000142462,0.581686296616726
14400.0000000349,14.2681637187279,1.00000000123327,0.586324707327398
14500.0000000352,14.2338175246659,1.00000000134827,0.571116443975868
14600.0000000356,14.2025921830605,1.00000000148453,0.558806328664846
14700.0000000359,14.1687306559731,1.00000000154626,0.558259327080375
14800.0000000363,14.1364507474459,1.00000000133825,0.566395682144707
14900.0000000367,14.1090934709448,1.0000000014058,0.581028648135379
15000.000000037,14.0811004240957,1.00000000134813,0.605400009412629
15100.0000000374,14.0517160760368,1.00000000132929,0.610074361237826
15200.0000000378,14.0235492763669,1.0000000014077,0.59688994630177
15300.0000000381,13.9929560974397,1.00000000155454,0.585616206441908
15400.0000000385,13.9596525371236,1.00000000155382,0.598933274465849
15500.0000000389,13.9304557171473,1.00000000125419,0.599438622599627
15600.0000000392,13.9011520331956,1.00000000141034,0.611771787650179
15700.0000000396,13.8680959965935,1.00000000147926,0.615886588518843
15800.0000000399,13.834108156438,1.00000000135616,0.608711315881469
15900.0000000403,13.7971654253569,1.00000000148551,0.617000867047294
16000.0000000407,13.7536045261278,1.00000000151485,0.623796360956615
16100.000000041,13.706315176143,1.00000000150721,0.613768386133023
16200.0000000414,13.6564069702845,1.00000000151263,0.612335363452084
16300.0000000418,13.6048612481777,1.00000000146486,0.61638327103709
16400.0000000418,13.5570360769272,1.0000000013005,0.619480745487829
16500.0000000404,13.5143929705897,1.00000000137058,0.616138545834456
16600.0000000389,13.4707698761701,1.00000000159948,0.618835634452165
16700.0000000375,13.420028153449,1.00000000145115,0.612000843564961
16800.000000036,13.3674013888348,1.00000000135521,0.617239594278834
16900.0000000346,13.3194066991973,1.0000000013017,0.624389486399485
17000.0000000331,13.2692452603661,1.00000000158601,0.624303845939973
17100.0000000317,13.2180645508723,1.00000000139835,0.611367139473808
17200.0000000302,13.1708644015248,1.00000000135679,0.610160008279509
17300.0000000287,13.1238317176013,1.0000000015018,0.609733398384706
17400.0000000273,13.0735376229165,1.00000000145367,0.61585200700309
17500.0000000258,13.0212654070184,1.00000000145303,0.623276308425179
17600.0000000244,12.9657564590064,1.0000000015196,0.627951306906661
17700.0000000229,12.9082640566351,1.00000000147709,0.615525493907826
17800.0000000215,12.8494147071988,1.00000000159188,0.626253655416324
17900.00000002,12.7869539399348,1.00000000157929,0.636387747330846
18000.0000000186,12.722727166393,1.00000000147754,0.634992613498055
18100.0000000171,12.6599639965183,1.00000000134135,0.627486850434754
18200.0000000156,12.5969570457963,1.00000000152405,0.64688666559273
18300.0000000142,12.5308979317366,1.00000000159928,0.635446278036122
18400.0000000127,12.4640176325932,1.00000000154194,0.64044899306463
18500.0000000113,12.397647582113,1.00000000143213,0.626273752224103
18600.0000000098,12.3317682306828,1.00000000136999,0.624939125122411
18700.0000000084,12.2662933906724,1.00000000145738,0.642459052492899
18800.0000000069,12.2015764381261,1.00000000128742,0.632041398192857
18900.0000000055,12.1379525368689,1.00000000133131,0.631048962030066
19000.000000004,12.0756732169431,1.00000000137082,0.630182195465104
19100.0000000026,12.0160349652079,1.00000000144809,0.635124669958985
19200.0000000011,11.9594376595175,1.00000000149765,0.635915449017038
19299.9999999996,11.9082773021797,1.00000000146996,0.635485577179167
19399.9999999982,11.8652764734647,1.00000000168146,0.64526399119248
19499.9999999967,11.83136994654,1.00000000173602,0.643434328564563
19599.9999999953,11.814424554701,1.00000000172779,0.651898142418682
19699.9999999938,11.8093900138894,1.00000000190946,0.649189593818175
19799.9999999924,11.8322727710433,1.00000000186808,0.645874257700774
19899.9999999909,11.8659214854333,1.00000000193251,0.640132237591771
19999.9999999895,11.929759121381,1.00000000188973,0.620168213413003
20099.999999988,11.9943733571297,1.00000000194678,0.612696775924722
20199.9999999865,12.0745204176482,1.00000000181838,0.601248778004263
20299.9999999851,12.1364944085286,1.00000000158123,0.590911210198622
20399.9999999836,12.182530365735,1.00000000152631,0.583469179922411
20499.9999999822,12.1961612800692,1.00000000138313,0.55569803834776
20599.9999999807,12.1778814024123,1.00000000113947,0.526899622247526
20699.9999999793,12.1366963083924,1.0000000008694,0.494124215677369
20799.9999999778,12.0855162987046,1.00000000098194,0.468925862974018
20899.9999999764,12.0476989816549,1.00000000088591,0.441121006933235
20999.9999999749,12.0482216555845,1.00000000086103,0.421968695927168
21099.9999999734,12.1130225503946,1.00000000079845,0.403858450487385
21199.999999972,12.2608720236849,1.00000000077999,0.392776203933663
21299.9999999705,12.5200751130117,1.00000000086107,0.394843843817238
21399.9999999691,12.8719871976581,1.00000000096668,0.398600429230944
21499.9999999676,13.3472701171109,1.00000000107545,0.409027459804164
21599.9999999662,13.8788918499933,1.00000000127047,0.42081961176064
21699.9999999647,14.495896672945,1.00000000138378,0.43496970658799
21799.9999999633,15.1246298358007,1.00000000153432,0.444381803250274
21899.9999999618,15.7837633691219,1.00000000144894,0.456416201461591
21999.9999999603,16.4372301096452,1.00000000159985,0.470225868119438
22099.9999999589,17.0692402918993,1.00000000154929,0.488185358977954
22199.9999999574,17.6926451749523,1.00000000164203,0.497837029475759
22299.999999956,18.2704228591222,1.00000000157462,0.51198875291383
22399.9999999545,18.8437254044849,1.0000000016062,0.523050220057994
22499.9999999531,19.3767690717381,1.00000000162528,0.532118717834259
22599.9999999516,19.8882654840884,1.00000000151261,0.536827334783472
22699.9999999502,20.372158508246,1.00000000147902,0.552673776789034
22799.9999999487,20.8293050447291,1.00000000164077,0.561553792941938
22899.9999999473,21.2649701809597,1.00000000147819,0.566890057621775
22999.9999999458,21.6614662471643,1.00000000153807,0.578763024513246
23099.9999999443,22.0453356227576,1.00000000151552,0.596018019720114
23199.9999999429,22.3923169492721,1.00000000150794,0.594474517828661
23299.9999999414,22.7177497366754,1.00000000149416,0.604326058943269
23399.99999994,23.0103425250885,1.00000000154496,0.620572511467256
23499.9999999385,23.2768927595873,1.00000000169721,0.625367811723531
23599.9999999371,23.5224693943542,1.0000000015443,0.624900071311708
23699.9999999356,23.7391174196688,1.00000000150508,0.626470827160156
23799.9999999342,23.9349120499233,1.00000000157595,0.640264885897957
23899.9999999327,24.0980006694562,1.00000000162446,0.643848678853922
23999.9999999312,24.2466773056441,1.00000000147921,0.637972375305057
24099.9999999298,24.3727716117837,1.00000000155992,0.625307972878968
24199.9999999283,24.4829711085947,1.00000000192624,0.631277557311805
24299.9999999269,24.5734327051557,1.00000000155643,0.644542139785842
24399.9999999254,24.6403944022823,1.00000000143757,0.63862676566054
24499.999999924,24.6954181485008,1.00000000152501,0.636319781254007
24599.9999999225,24.7404450239712,1.00000000148126,0.627710702848615
24699.9999999211,24.7817206319481,1.00000000154896,0.624423390122668
24799.9999999196,24.8124050197543,1.00000000158031,0.616450077179264
24899.9999999181,24.8308901823691,1.0000000016344,0.639952827667322
24999.9999999167,24.8279233752216,1.00000000179468,0.651692105961293
25099.9999999152,24.8165836543729,1.00000000148645,0.631438136645242
25199.9999999138,24.8056932775749,1.00000000149059,0.6247263536539
25299.9999999123,24.7927331213903,1.00000000153134,0.613655406758925
25399.9999999109,24.7766524696965,1.00000000166423,0.615180148883062
25499.9999999094,24.7531376543208,1.00000000157946,0.605120570021023
25599.999999908,24.7282743340405,1.00000000158576,0.622495332112092
25699.9999999065,24.6982571365116,1.00000000153002,0.635174904823582
25799.9999999051,24.6659218647022,1.00000000167828,0.636720995375193
25899.9999999036,24.6317386245406,1.0000000014874,0.620036721674191
25999.9999999021,24.599734545024,1.00000000149431,0.595970275990221
26099.9999999007,24.5675425986875,1.00000000160448,0.605165831311719
26199.9999998992,24.5282773325374,1.00000000160969,0.59493334862349
26299.9999998978,24.4813234035594,1.00000000173626,0.60443801884435
26399.9999998963,24.4279141361854,1.00000000164118,0.60789571086739
26499.9999998949,24.3764859214441,1.00000000129905,0.602007209121799
26599.9999998934,24.3272627832173,1.00000000150206,0.62836765884901
26699.999999892,24.274467359214,1.00000000167779,0.6380936563778
26799.9999998905,24.2158023395131,1.00000000170423,0.634977543205248
26899.999999889,24.1553316153299,1.00000000173198,0.629282122918623
26999.9999998876,24.0980895050853,1.00000000168314,0.61935568378452
27099.9999998861,24.0439956045014,1.00000000151183,0.619395128895468
27199.9999998847,23.9936921935299,1.00000000161254,0.619964112353797
27299.9999998832,23.9438408452868,1.00000000150597,0.613404817847489
27399.9999998818,23.8990058999458,1.00000000144598,0.594082878394629
27499.9999998803,23.8623120462792,1.00000000141407,0.598799708281687
27599.9999998789,23.824674448835,1.00000000169249,0.622667035266447
27699.9999998774,23.7796717291209,1.00000000177782,0.628245420541828
27799.9999998759,23.7270341084946,1.00000000167563,0.627697933788361
27899.9999998745,23.6761640063749,1.00000000131305,0.601872838968556
27999.999999873,23.6299118522334,1.00000000165224,0.623968720632092
28099.9999998716,23.5814704298047,1.00000000210277,0.642747058151685
28199.9999998701,23.5287667042855,1.00000000167824,0.631417609925414
28299.9999998687,23.4746800198884,1.00000000151403,0.61772481229934
28399.9999998672,23.4237765992686,1.00000000144976,0.609447342786634
28499.9999998658,23.3767942421833,1.00000000153006,0.616538087236153
28599.9999998643,23.3332095220081,1.00000000159754,0.61832113302549
28699.9999998629,23.2869036534999,1.00000000172061,0.622953240514063
28799.9999998614,23.2366335413194,1.00000000160643,0.623802731399515
28899.9999998599,23.1880079887273,1.00000000146918,0.616497107499979
28999.9999998585,23.1383682990627,1.00000000158499,0.627786391947883
