Time,AGPnorm,Energy,Entropy
0,0,1,-7.40906787096632e-17
99.9999999999986,0.00124743539262262,0.999999999999726,0.00412659267577354
199.999999999993,0.00858215502139698,1.0000000000004,0.0121094663094526
300,0.0173838385333575,1.00000000000107,0.0224745594616211
400.000000000022,0.0264673721436258,1.00000000000066,0.0354605889967481
500.000000000045,0.0373372615337681,0.999999999999368,0.0511359879921246
600.000000000068,0.0515948029451853,0.999999999999835,0.0692592569077335
700.000000000091,0.0656806480302226,1.00000000000095,0.0898196981146233
800.000000000113,0.0799549329882936,1.00000000000139,0.113259434653846
900.000000000136,0.0950949895168072,1.00000000000038,0.14088678771986
1000.00000000016,0.110863573669174,1.00000000000414,0.174065486919399
1100.0000000001,0.126573736651215,1.00000000003344,0.215432650081508
1200,0.14677955228041,1.00000000013709,0.264087585673819
1299.99999999991,0.175534263775188,1.00000000033649,0.31484921546216
1399.99999999982,0.232472924865378,1.00000000060939,0.361796210020479
1499.99999999973,0.395981898166095,1.00000000088209,0.402892491458471
1599.99999999964,0.757015553284085,1.00000000105967,0.438360181046522
1699.99999999955,1.37819269031326,1.00000000132832,0.468639798196364
1799.99999999946,2.33855122875668,1.00000000144328,0.494043217102717
1899.99999999937,3.71154575055818,1.00000000164789,0.51443736384176
1999.99999999928,5.51627772125978,1.00000000171238,0.5316323005406
2099.99999999919,7.74080252498474,1.0000000017687,0.545780370352315
2199.99999999909,10.37682113081,1.00000000180035,0.556865412913742
2299.999999999,13.3822486943928,1.00000000174132,0.565003537535249
2399.99999999891,16.6651636046879,1.0000000019561,0.571120710540353
2499.99999999882,20.1464223966253,1.00000000186309,0.576694361676337
2599.99999999873,23.7816537264167,1.00000000175587,0.579691855507679
2699.99999999864,27.5097854024249,1.00000000172554,0.581126151418393
2799.99999999855,31.2345589707134,1.00000000171729,0.581674467613076
2899.99999999846,34.8744641395421,1.00000000159625,0.58246964791756
2999.99999999837,38.3968623628929,1.00000000149924,0.581925668027547
3099.99999999828,41.7750389952777,1.00000000155603,0.580236897794803
3199.99999999819,44.9580897301277,1.00000000147036,0.579240053542042
3299.99999999809,47.8950639839968,1.00000000138788,0.578092701833109
3399.999999998,50.5692215894164,1.00000000133461,0.574314089482887
3499.99999999791,52.9876414730933,1.0000000012804,0.572184757777182
3599.99999999782,55.1406486994928,1.00000000136891,0.571329678660779
3699.99999999773,57.0125712794371,1.00000000122993,0.56892144381947
3799.99999999764,58.6024093524836,1.00000000117691,0.565704716671284
3899.99999999755,59.9152882766255,1.0000000012505,0.568082465334811
3999.99999999746,60.9749431331434,1.00000000107962,0.561089784484801
4099.99999999738,61.7886649117405,1.00000000104522,0.564038206239876
4199.99999999775,62.3732629158785,1.00000000102074,0.561394575355896
4299.99999999811,62.7266802399078,1.00000000097176,0.555747531149593
4399.99999999848,62.8976219156723,1.0000000010577,0.568590760333548
4499.99999999884,62.8955842250588,1.00000000090861,0.541865129915671
4599.9999999992,62.7305792623187,1.00000000103917,0.569051950409843
4699.99999999957,62.4716031860158,1.00000000100512,0.552185551583186
4799.99999999993,62.062386128013,1.000000000767,0.528569975291924
4900.00000000029,61.5725276996183,1.00000000129722,0.579531421270685
5000.00000000066,61.0475056103902,1.00000000100361,0.535922132174562
5100.00000000102,60.411295336902,1.00000000080034,0.513115316903315
5200.00000000139,59.7378253362631,1.00000000127031,0.581255939308289
5300.00000000175,59.0739838674522,1.0000000010203,0.537015339196203
5400.00000000211,58.3385395378223,1.00000000073303,0.489798488828596
5500.00000000248,57.5619246858974,1.00000000122973,0.556120114397803
5600.00000000284,56.8245490890623,1.00000000128939,0.567193878108781
5700.00000000321,56.0833931765534,1.00000000080827,0.48789741335697
5800.00000000357,55.290313810685,1.00000000079721,0.480026752192036
5900.00000000393,54.4973256265533,1.00000000128332,0.557209659166711
6000.0000000043,53.7499931280258,1.00000000132919,0.552390835436732
6100.00000000466,53.0119642237341,1.00000000085306,0.478664196410757
6200.00000000502,52.2491823540525,1.00000000081588,0.464160984988629
6300.00000000539,51.4821689252405,1.00000000119889,0.517649577207062
6400.00000000575,50.7470345338635,1.00000000140883,0.556030396391302
6500.00000000612,50.0417562295293,1.00000000114845,0.511388626341244
6600.00000000648,49.3409786026059,1.00000000077629,0.466514417550619
6700.00000000684,48.6384016095199,1.00000000087485,0.475165842822767
6800.00000000721,47.9433810919862,1.00000000112766,0.505573123853506
6900.00000000757,47.269771949965,1.00000000129191,0.537244203178531
7000.00000000793,46.619073198901,1.00000000121874,0.524356435488299
7100.0000000083,45.9834595883851,1.00000000088738,0.479654957466302
7200.00000000866,45.36059885498,1.00000000083964,0.474791620826476
7300.00000000903,44.7508839637434,1.00000000098812,0.499323174957943
7400.00000000939,44.1554872900008,1.00000000101765,0.499913714649732
7500.00000000975,43.5760100580477,1.00000000112991,0.520249847615961
7600.00000001012,43.0106613111248,1.00000000125651,0.529532497837113
7700.00000001048,42.4604052937232,1.00000000100792,0.503650629892491
7800.00000001084,41.929981831096,1.00000000083164,0.472008073099054
7900.00000001121,41.4196894460713,1.00000000102024,0.494529339528008
8000.00000001157,40.9229304548333,1.00000000115549,0.51727895219267
8100.00000001194,40.4418384434737,1.00000000087161,0.494548522061643
8200.0000000123,39.9785178736393,1.0000000010154,0.496448513456932
8300.00000001266,39.5257205734994,1.00000000128424,0.524162071308996
8400.00000001303,39.0781310199429,1.00000000120107,0.522789810249812
8500.00000001339,38.6446756620282,1.00000000088864,0.497176704949373
8600.00000001376,38.2355281110345,1.00000000083383,0.479368307389265
8700.00000001412,37.8461692876092,1.0000000011222,0.497286649390222
8800.00000001448,37.4638206824925,1.0000000012167,0.510245021254635
8900.00000001485,37.0894387431095,1.00000000100071,0.516739801325672
9000.00000001521,36.7338247693872,1.0000000008826,0.488142305608506
9100.00000001557,36.3937939941739,1.00000000103206,0.499112357617589
9200.00000001594,36.0589086141604,1.00000000122134,0.527762094322414
9300.0000000163,35.7239411926996,1.00000000133288,0.529504793710375
9400.00000001667,35.3953313776664,1.00000000104767,0.510234871299605
9500.00000001703,35.0864996325238,1.00000000089056,0.495553517933742
9600.00000001739,34.7985673801794,1.00000000100758,0.497559453988378
9700.00000001776,34.5249817237601,1.00000000100358,0.506238133099881
9800.00000001812,34.2572256075781,1.00000000116346,0.511683512806108
9900.00000001848,33.992371101195,1.00000000107929,0.510537488235731
10000.0000000188,33.7351804214298,1.00000000101686,0.522580168360936
10100.0000000192,33.4905377316988,1.00000000097601,0.514435977613104
10200.0000000196,33.2544487676256,1.00000000104073,0.514761949718389
10300.0000000199,33.022680800674,1.00000000114236,0.527462689433436
10400.0000000203,32.7937551761039,1.00000000119409,0.535219125463538
10500.0000000207,32.56659536868,1.00000000117539,0.5322465685639
10600.000000021,32.3473950179324,1.00000000099457,0.516904999266817
10700.0000000214,32.147172851624,1.00000000089705,0.504381490004928
10800.0000000218,31.964173180503,1.00000000105268,0.511174855546705
10900.0000000221,31.7873400898819,1.00000000111072,0.523384349499299
11000.0000000225,31.6186811492391,1.00000000098277,0.511220417535219
11100.0000000229,31.4612234268525,1.00000000095085,0.51340623738111
11200.0000000232,31.31110327579,1.00000000106219,0.513051711818977
11300.0000000236,31.1607369120016,1.00000000110299,0.533203574214764
11400.0000000239,31.0031059357777,1.00000000120948,0.549544315018821
11500.0000000243,30.8444572955678,1.00000000103408,0.549908738395609
11600.0000000247,30.688401777084,1.00000000095025,0.535949967645928
11700.000000025,30.5394462784735,1.00000000099928,0.534534830606794
11800.0000000254,30.3952051592736,1.00000000112474,0.536207339084972
11900.0000000258,30.2529438728438,1.00000000114743,0.540763190592676
12000.0000000261,30.1117374775551,1.0000000011916,0.538058226567871
12100.0000000265,29.9762659504209,1.00000000104069,0.52983712736663
12200.0000000269,29.8545782929405,1.00000000097355,0.527289704524906
12300.0000000272,29.7493624099862,1.00000000096297,0.521904769577586
12400.0000000276,29.6556759424695,1.0000000011161,0.523050074957143
12500.0000000279,29.5615736185138,1.00000000115902,0.531166978124642
12600.0000000283,29.4660407341562,1.00000000109791,0.534475876355575
12700.0000000287,29.3795953029435,1.00000000097255,0.516664994251188
12800.000000029,29.3055168486467,1.0000000009789,0.526528618669391
12900.0000000294,29.2367908410343,1.00000000107614,0.546071021380877
13000.0000000298,29.1666420360225,1.00000000104095,0.542898640705181
13100.0000000301,29.0905798772238,1.0000000011082,0.551103948576375
13200.0000000305,29.0054053277995,1.00000000119988,0.558937681233916
13300.0000000309,28.9136305027542,1.00000000110716,0.565414245587283
13400.0000000312,28.8160471391523,1.00000000113974,0.570950702413867
13500.0000000316,28.7156222295172,1.00000000105626,0.57299854947203
13600.0000000319,28.6164785922538,1.00000000100923,0.565838430162496
13700.0000000323,28.5222088515576,1.0000000009908,0.559403750409486
13800.0000000327,28.4344333367679,1.00000000113347,0.552075801742412
13900.000000033,28.3515567627666,1.00000000120606,0.54978533297149
14000.0000000334,28.2709182349702,1.00000000110962,0.550696862533889
14100.0000000338,28.1942849065888,1.00000000102143,0.547193970132511
14200.0000000341,28.1297294677961,1.00000000098657,0.547973581542796
14300.0000000345,28.079800683803,1.00000000100226,0.543143055440015
14400.0000000349,28.0380849302395,1.00000000108032,0.542172857668836
14500.0000000352,27.998579051251,1.00000000105024,0.54578679240637
14600.0000000356,27.9643384792404,1.00000000105398,0.539198410249309
14700.0000000359,27.9349957496608,1.00000000103445,0.533524680649912
14800.0000000363,27.9083740182128,1.00000000103861,0.536538305440694
14900.0000000367,27.8856013201135,1.00000000106952,0.544696363689327
15000.000000037,27.8645435316815,1.00000000103838,0.555394191212746
15100.0000000374,27.8421508366985,1.00000000107341,0.566222857321027
15200.0000000378,27.81633630264,1.00000000112031,0.575447693952333
15300.0000000381,27.7859272776071,1.00000000109484,0.580011649608541
15400.0000000385,27.7551421617018,1.00000000102139,0.581376743238969
15500.0000000389,27.7259295668331,1.00000000099762,0.576447266609755
15600.0000000392,27.6960550834092,1.00000000110625,0.577497539235958
15700.0000000396,27.6611941929807,1.00000000104864,0.578863808630453
15800.0000000399,27.6188969069731,1.00000000112925,0.579698960810756
15900.0000000403,27.5663202047366,1.00000000114375,0.581008747441504
16000.0000000407,27.5030668366073,1.00000000118456,0.586133243516583
16100.000000041,27.430890745853,1.00000000111821,0.591001860629622
16200.0000000414,27.3571210686125,1.00000000101278,0.597232006009349
16300.0000000418,27.2860263988682,1.00000000102576,0.589620212524592
16400.0000000418,27.2207025510255,1.00000000103455,0.580642476752164
16500.0000000404,27.1612529329622,1.00000000109995,0.573634114892561
16600.0000000389,27.1071430405479,1.00000000118114,0.567406662380729
16700.0000000375,27.0570548679126,1.00000000116604,0.569774828621807
16800.000000036,27.0105266304242,1.0000000011412,0.569376061405611
16900.0000000346,26.9694805686659,1.00000000108834,0.567250092579478
17000.0000000331,26.9364729747795,1.00000000101246,0.56441318545192
17100.0000000317,26.9133854593002,1.00000000098917,0.565576722582543
17200.0000000302,26.901347738835,1.00000000105803,0.567464433562109
17300.0000000287,26.8961997628379,1.00000000110982,0.562584361527451
17400.0000000273,26.8941872923503,1.0000000011301,0.558961216331601
17500.0000000258,26.894705009363,1.00000000102983,0.556005688952324
17600.0000000244,26.8980577187298,1.00000000106835,0.55580590941351
17700.0000000229,26.9066819527521,1.00000000104803,0.562727035371559
17800.0000000215,26.9194767621169,1.00000000106064,0.564124094514073
17900.00000002,26.9324319946847,1.000000001062,0.563483266579879
18000.0000000186,26.9443014726895,1.00000000108597,0.565852391279824
18100.0000000171,26.9534020532945,1.00000000116479,0.562134642476627
18200.0000000156,26.9586427166853,1.00000000116901,0.563335848502587
18300.0000000142,26.9606666477418,1.00000000116014,0.570419413336564
18400.0000000127,26.9595914181497,1.00000000106161,0.583275465977886
18500.0000000113,26.9587805890025,1.00000000106444,0.586193367441851
18600.0000000098,26.9585216816265,1.00000000112436,0.588401530353961
18700.0000000084,26.9552722358907,1.00000000115752,0.59115427847723
18800.0000000069,26.9467033264252,1.00000000117592,0.588059880444425
18900.0000000055,26.9335045591973,1.00000000115864,0.594829209230834
19000.000000004,26.9177239922263,1.0000000011074,0.596515740237514
19100.0000000026,26.9017453092597,1.00000000115772,0.606317244236032
19200.0000000011,26.8857447558535,1.0000000011292,0.606309978365928
19299.9999999996,26.8663888224723,1.00000000111797,0.612005543622548
19399.9999999982,26.8420845263273,1.0000000011596,0.610702264880169
19499.9999999967,26.8145874533848,1.00000000105655,0.608503625867096
19599.9999999953,26.7844934451095,1.00000000114416,0.601885209048598
19699.9999999938,26.7502292595317,1.00000000118168,0.595923048391319
19799.9999999924,26.7089284861304,1.00000000118337,0.597560830036087
19899.9999999909,26.6588899151989,1.00000000119457,0.602500224677444
19999.9999999895,26.6014487152389,1.00000000118493,0.601239483881415
20099.999999988,26.5388757158989,1.00000000111498,0.598876006806488
20199.9999999865,26.4754896516096,1.00000000112092,0.599564427228395
20299.9999999851,26.4132698667254,1.00000000106876,0.595334763133114
20399.9999999836,26.3544881686162,1.00000000104487,0.594699885535615
20499.9999999822,26.3006350312188,1.00000000109281,0.594931691505187
20599.9999999807,26.2504961776877,1.0000000010961,0.586788760909396
20699.9999999793,26.2058342667755,1.00000000113965,0.58604616812425
20799.9999999778,26.1659210334355,1.00000000110106,0.584301909630885
20899.9999999764,26.1302257926586,1.00000000112498,0.579517921748506
20999.9999999749,26.0988249591445,1.0000000011221,0.570785081130332
21099.9999999734,26.0729630129513,1.00000000114106,0.563136208112462
21199.999999972,26.0534456027835,1.00000000115324,0.565569784562529
21299.9999999705,26.0418155931719,1.0000000010665,0.568183353677987
21399.9999999691,26.0392393023515,1.00000000110316,0.572047215851406
21499.9999999676,26.0453509403004,1.00000000110431,0.575770720255188
21599.9999999662,26.057062462672,1.00000000113798,0.571508177392093
21699.9999999647,26.0715866146305,1.00000000116194,0.569315075577847
21799.9999999633,26.0898704063458,1.0000000010976,0.569804451751979
21899.9999999618,26.1132474070423,1.00000000116552,0.567656449441483
21999.9999999603,26.1396200238267,1.00000000109531,0.559362425468592
22099.9999999589,26.1684739487638,1.00000000108654,0.561513816066542
22199.9999999574,26.2005461037556,1.00000000111388,0.567522790637314
22299.999999956,26.2359674284416,1.0000000011203,0.570327326532361
22399.9999999545,26.2693365288244,1.00000000115718,0.572531894854845
22499.9999999531,26.300083598611,1.00000000119813,0.579738685261747
22599.9999999516,26.3283248318646,1.00000000115824,0.579775626158566
22699.9999999502,26.3536915654756,1.0000000012056,0.578823115609887
22799.9999999487,26.3750254857074,1.00000000118382,0.584929121576334
22899.9999999473,26.3934680358579,1.00000000112787,0.595081028276143
22999.9999999458,26.4100120663314,1.00000000111936,0.603347531282274
23099.9999999443,26.4259502682587,1.00000000116133,0.609019042892288
23199.9999999429,26.4403921817852,1.00000000112059,0.612776830303509
23299.9999999414,26.4523041389134,1.00000000120449,0.616709065464971
23399.99999994,26.4601771198122,1.00000000127812,0.619196551139242
23499.9999999385,26.4645105833661,1.00000000126566,0.615967006117361
23599.9999999371,26.4659093956171,1.00000000116967,0.619376318121118
23699.9999999356,26.4670774930381,1.00000000111482,0.62049046326139
23799.9999999342,26.4690582449319,1.00000000115621,0.615306814669624
23899.9999999327,26.4727029637605,1.00000000112366,0.609247639172921
23999.9999999312,26.477829267925,1.00000000115723,0.607602720106858
24099.9999999298,26.4803329942238,1.00000000126114,0.611280500339168
24199.9999999283,26.4779597458148,1.00000000129714,0.626115655658929
24299.9999999269,26.4721237636297,1.00000000120469,0.629256856544854
24399.9999999254,26.4636548006511,1.00000000112897,0.629585795035588
24499.999999924,26.4557378331269,1.00000000119079,0.629744887312909
24599.9999999225,26.4459247576624,1.0000000012007,0.632594940449023
24699.9999999211,26.4354341295708,1.00000000114028,0.636104605405403
24799.9999999196,26.4266380388439,1.00000000112116,0.626842712929138
24899.9999999181,26.4175181357561,1.00000000119475,0.624048265615801
24999.9999999167,26.4051617535299,1.00000000123234,0.626044036547924
25099.9999999152,26.3892798820121,1.00000000122037,0.629087079839757
25199.9999999138,26.3704924852744,1.000000001273,0.634157414423113
25299.9999999123,26.3472227447385,1.00000000125659,0.632818429124739
25399.9999999109,26.3216808887052,1.00000000120377,0.635078046369964
25499.9999999094,26.2943239002771,1.00000000119366,0.64206702572874
25599.999999908,26.2647661511085,1.0000000011541,0.637163506830994
25699.9999999065,26.2361730449531,1.00000000111473,0.637501072247852
25799.9999999051,26.2063372186692,1.00000000124594,0.639575047723865
25899.9999999036,26.1737646971998,1.00000000117154,0.630536922331929
25999.9999999021,26.1397126242131,1.0000000011781,0.631554553996444
26099.9999999007,26.1038590246422,1.00000000119762,0.634987483244703
26199.9999998992,26.0659398019262,1.00000000117021,0.636141350814074
26299.9999998978,26.0262805816391,1.00000000124046,0.640189111023171
26399.9999998963,25.9842667606904,1.00000000126071,0.639249842091831
26499.9999998949,25.938655539017,1.00000000131201,0.639007860976787
26599.9999998934,25.8882111314028,1.00000000129309,0.643322021305062
26699.999999892,25.8340504313419,1.00000000126484,0.647355325767119
26799.9999998905,25.7775679032185,1.00000000118312,0.648248445103159
26899.999999889,25.7203878411992,1.0000000011543,0.648201976768904
26999.9999998876,25.6626458435615,1.00000000121189,0.652312768053947
27099.9999998861,25.6061392805244,1.00000000113876,0.648980851821684
27199.9999998847,25.5513866828727,1.00000000115988,0.641043143218004
27299.9999998832,25.4995015957668,1.00000000109485,0.63043675851846
27399.9999998818,25.4506057595022,1.00000000118348,0.62856103180905
27499.9999998803,25.4054848957386,1.00000000121522,0.633655728019586
27599.9999998789,25.3652080553142,1.00000000117231,0.633573651150209
27699.9999998774,25.3291214472762,1.00000000124372,0.635544385033346
27799.9999998759,25.2966387485065,1.00000000126051,0.633313538732494
27899.9999998745,25.2685869089657,1.00000000118906,0.626435260924175
27999.999999873,25.2437015682459,1.00000000123827,0.619750843305826
28099.9999998716,25.2234505369611,1.0000000011484,0.605782257164022
28199.9999998701,25.2087971640347,1.00000000119085,0.598864813629334
28299.9999998687,25.1995902103865,1.00000000117438,0.600407648561601
28399.9999998672,25.196944461996,1.00000000116413,0.598265506444644
28499.9999998658,25.2015534979298,1.00000000117002,0.590519986669036
28599.9999998643,25.2117304324788,1.00000000121186,0.596091002842222
28699.9999998629,25.2282754282603,1.00000000119617,0.59269102229521
28799.9999998614,25.2514660035947,1.00000000116997,0.585237668207531
28899.9999998599,25.2761188803202,1.00000000127058,0.582566822430702
28999.9999998585,25.3035773003328,1.0000000012135,0.57996993005159
