Time,AGPnorm,Energy,Entropy
0,0,1,-1.29338345091527e-17
99.9999999999986,7.58555732855593e-06,1.00000000000523,0.000372928106070862
199.999999999993,0.000591986657153546,1.00000000000338,0.000550985528356583
300,0.00155068610899466,1.00000000000101,0.00103343424036472
400.000000000022,0.00212107444482384,1.0000000000065,0.00175248388990997
500.000000000045,0.00262353141375548,1.00000000000043,0.00233160081349095
600.000000000068,0.00381679113634363,1.00000000000425,0.00335496733582202
700.000000000091,0.00469670325730936,1.00000000000445,0.0042182078149592
800.000000000113,0.00608754722680516,1.00000000000035,0.00529012871067158
900.000000000136,0.00755761120259685,1.00000000000645,0.00653822064504637
1000.00000000016,0.00891433419717958,1.00000000000118,0.00762777718558712
1100.0000000001,0.0107886185693802,1.00000000000316,0.00910098599414903
1200,0.0125440412627001,1.00000000000537,0.0104247357385648
1299.99999999991,0.0146246739809953,1.00000000000002,0.0118988678106487
1399.99999999982,0.0168308362402703,1.00000000000603,0.0135604204099533
1499.99999999973,0.0190155961749738,1.00000000000214,0.0150258244650074
1599.99999999964,0.0215749528485084,1.0000000000021,0.0168601890872632
1699.99999999955,0.0240366633737357,1.00000000000603,0.0185693732961547
1799.99999999946,0.0268230683116544,1.00000000000008,0.020356132558072
1899.99999999937,0.0297597652428971,1.0000000000053,0.0223755571382777
1999.99999999928,0.0326493711010316,1.0000000000032,0.0241664930555142
2099.99999999919,0.035837715870545,1.00000000000119,0.0263070321806606
2199.99999999909,0.0389445187544467,1.00000000000635,0.0283678031628476
2299.999999999,0.0424040464856589,1.00000000000049,0.0304249803078912
2399.99999999891,0.0459818564619725,1.00000000000437,0.032772826730503
2499.99999999882,0.0494392234425316,1.00000000000422,0.0348772532531029
2599.99999999873,0.053203566453978,1.00000000000053,0.0372879169763883
2699.99999999864,0.0569400189120372,1.00000000000633,0.0396901148528086
2799.99999999855,0.060984696287765,1.00000000000121,0.0420087652209086
2899.99999999846,0.0650676933680532,1.00000000000332,0.0446700002666233
2999.99999999837,0.0689782835855874,1.00000000000507,0.0470968173454594
3099.99999999828,0.073280348967264,1.00000000000023,0.0497616023308117
3199.99999999819,0.0776083180414289,1.00000000000598,0.0525143806202774
3299.99999999809,0.0820968156110971,1.00000000000212,0.0551095151279324
3399.999999998,0.086562303072902,1.00000000000228,0.0580805747273821
3499.99999999791,0.0908612943421148,1.00000000000569,0.0608530985000107
3599.99999999782,0.0956591863113085,1.0000000000003,0.0637840592176011
3699.99999999773,0.100456745859442,1.00000000000534,0.0669080287431127
3799.99999999764,0.105233005676283,1.00000000000306,0.0698194521271048
3899.99999999755,0.109993233100223,1.00000000000139,0.0731094990637029
3999.99999999746,0.114674321884775,1.00000000000604,0.0762708224025151
4099.99999999738,0.119876935991065,1.00000000000072,0.0795121605275706
4199.99999999775,0.124970973617981,1.00000000000447,0.0830419719708123
4299.99999999811,0.129897745946839,1.00000000000393,0.0863332263631428
4399.99999999848,0.134916841389873,1.00000000000078,0.0899789763090166
4499.99999999884,0.139983582869734,1.00000000000608,0.0936070824334082
4599.9999999992,0.145433831994156,1.00000000000141,0.0972332490842342
4699.99999999957,0.150665699084296,1.00000000000347,0.101232894805066
4799.99999999993,0.155650513588703,1.00000000000467,0.105004393264378
4900.00000000029,0.160934066702552,1.00000000000053,0.109090504882283
5000.00000000066,0.166303340732307,1.00000000000583,0.11330840662804
5100.00000000102,0.171814084384037,1.00000000000221,0.117448809541236
5200.00000000139,0.17707007945344,1.00000000000249,0.122035337532955
5300.00000000175,0.182080086115027,1.00000000000531,0.126460456492574
5400.00000000211,0.187614235605634,1.00000000000069,0.131167406163099
5500.00000000248,0.193134078691862,1.00000000000539,0.136174693930217
5600.00000000284,0.198507230797779,1.00000000000311,0.141075264285271
5700.00000000321,0.203788246494514,1.00000000000185,0.146482507726515
5800.00000000357,0.208853534092643,1.00000000000597,0.15188025178247
5900.00000000393,0.214563204842185,1.00000000000154,0.157530586573064
6000.0000000043,0.220198887976668,1.00000000000528,0.163674586324135
6100.00000000466,0.225216577647397,1.00000000000483,0.169714334573521
6200.00000000502,0.230849125177016,1.00000000000285,0.17630248481531
6300.00000000539,0.236107279410721,1.00000000000819,0.183061181188382
6400.00000000575,0.241997922736578,1.00000000000525,0.18998029006149
6500.00000000612,0.248523044110015,1.0000000000085,0.1974793505791
6600.00000000648,0.253422051281493,1.00000000001092,0.204801796912472
6700.00000000684,0.261158106528035,1.00000000000964,0.212561449410844
6800.00000000721,0.268610129313134,1.00000000001656,0.220510380095363
6900.00000000757,0.276943644468183,1.00000000001645,0.228356827920673
7000.00000000793,0.289796002825663,1.00000000001995,0.236636842240069
7100.0000000083,0.300396633136317,1.00000000002634,0.24457533488186
7200.00000000866,0.319859155500001,1.00000000002656,0.252680646368215
7300.00000000903,0.342901322440799,1.0000000000343,0.260932315182358
7400.00000000939,0.369811072400872,1.00000000003824,0.268758459967712
7500.00000000975,0.413111436897738,1.00000000004189,0.276855609953205
7600.00000001012,0.458646462104642,1.00000000004967,0.284606726194199
7700.00000001048,0.526648555410453,1.00000000005212,0.292226700037422
7800.00000001084,0.61241115632706,1.0000000000623,0.300041110837565
7900.00000001121,0.71250984003696,1.00000000006688,0.307268655778894
8000.00000001157,0.853683875522498,1.0000000000689,0.314686504604417
8100.00000001194,1.01265580462518,1.00000000007821,0.321845795597251
8200.0000000123,1.21790083614236,1.00000000008125,0.328721876278918
8300.00000001266,1.47036869486775,1.00000000009088,0.335821117903857
8400.00000001303,1.75800466262893,1.00000000009691,0.3423390431945
8500.00000001339,2.12475930469501,1.00000000010067,0.348936454945619
8600.00000001376,2.5384718683084,1.00000000011128,0.355474761638187
8700.00000001412,3.03100971309595,1.00000000011283,0.361595275985982
8800.00000001448,3.61504516035929,1.00000000012376,0.367901712519541
8900.00000001485,4.26385022574383,1.00000000012518,0.373794661333212
9000.00000001521,5.03828661538567,1.0000000001288,0.379560661901752
9100.00000001557,5.90045761543685,1.00000000014035,0.385485109100428
9200.00000001594,6.87754674830325,1.00000000013949,0.390851637789815
9300.0000000163,7.99932590178751,1.00000000015356,0.396319561681546
9400.00000001667,9.22007654940118,1.00000000015906,0.401587495540048
9500.00000001703,10.6130221605166,1.0000000001561,0.406607583994655
9600.00000001739,12.1414963117348,1.00000000016202,0.411877465353967
9700.00000001776,13.8177219477226,1.00000000016704,0.41651231460024
9800.00000001812,15.6921739547841,1.00000000017569,0.421222067356787
9900.00000001848,17.6996636184493,1.00000000017914,0.425965673399472
10000.0000000188,19.9181694714278,1.0000000001825,0.430210336114787
10100.0000000192,22.3206660516055,1.00000000018114,0.434825906216218
10200.0000000196,24.8951014642965,1.00000000019451,0.438844810653338
10300.0000000199,27.7130619990361,1.00000000019327,0.44283810010874
10400.0000000203,30.6951823669309,1.00000000019717,0.44704650066193
10500.0000000207,33.9131154614502,1.0000000002016,0.450659747338727
10600.000000021,37.3581358283278,1.00000000019393,0.454535949983944
10700.0000000214,40.9878977925176,1.00000000020369,0.458192780403333
10800.0000000218,44.8924923160849,1.0000000002086,0.461428709878279
10900.0000000221,48.9871437604203,1.00000000021335,0.465126568051322
11000.0000000225,53.3255347398857,1.00000000020681,0.468274005067654
11100.0000000229,57.923468416777,1.00000000020873,0.471389991543195
11200.0000000232,62.7083375104884,1.0000000002217,0.474599625136557
11300.0000000236,67.7813494506033,1.00000000021404,0.477438090850383
11400.0000000239,73.0641269591219,1.00000000022623,0.480407492592266
11500.0000000243,78.581092475059,1.00000000022385,0.483226609831894
11600.0000000247,84.376660763747,1.0000000002274,0.485673935917885
11700.000000025,90.353237449308,1.00000000021401,0.48866779853754
11800.0000000254,96.612339658582,1.0000000002265,0.490931112023121
11900.0000000258,103.093750132782,1.0000000002263,0.493347953233344
12000.0000000261,109.785587859231,1.00000000023361,0.495741612478029
12100.0000000265,116.758668496726,1.00000000022667,0.497891218823535
12200.0000000269,123.903152077147,1.0000000002281,0.500147815930072
12300.0000000272,131.30630100005,1.00000000022772,0.50220325277993
12400.0000000276,138.93603403941,1.00000000023319,0.504097071180508
12500.0000000279,146.743073777157,1.00000000023398,0.506169689949669
12600.0000000283,154.818341403618,1.00000000023287,0.507856086857012
12700.0000000287,163.053202684131,1.00000000022631,0.509767976685082
12800.000000029,171.509367112756,1.00000000023937,0.511316545598252
12900.0000000294,180.185843355592,1.00000000023274,0.513000874334021
13000.0000000298,189.003373274107,1.00000000024042,0.514554357997054
13100.0000000301,198.062099398024,1.00000000023141,0.516045236370885
13200.0000000305,207.265953774089,1.00000000023817,0.517459461985305
13300.0000000309,216.644984737702,1.00000000023435,0.518836515771587
13400.0000000312,226.228836025285,1.00000000023917,0.519958311047836
13500.0000000316,235.918400272917,1.00000000022536,0.521524864961752
13600.0000000319,245.810200275039,1.00000000024141,0.522396598909758
13700.0000000323,255.831979682599,1.00000000023145,0.523684392086111
13800.0000000327,265.977749219582,1.00000000023933,0.524628036643121
13900.000000033,276.304609479483,1.00000000023058,0.525678097134891
14000.0000000334,286.703362393427,1.00000000023617,0.526799845114835
14100.0000000338,297.258271906423,1.00000000022221,0.52757337447936
14200.0000000341,307.92489812733,1.00000000023753,0.528334273831004
14300.0000000345,318.666966852007,1.00000000022912,0.529297592844564
14400.0000000349,329.556017732014,1.00000000023278,0.529923256506916
14500.0000000352,340.490297806412,1.00000000022648,0.530914302919719
14600.0000000356,351.528969942856,1.00000000022376,0.531335851799014
14700.0000000359,362.660309389391,1.0000000002258,0.531894824102979
14800.0000000363,373.818445496235,1.00000000022615,0.532772950502336
14900.0000000367,385.088939553424,1.00000000022923,0.533163747083251
15000.000000037,396.377880010396,1.00000000022124,0.533792555881884
15100.0000000374,407.721574501291,1.0000000002352,0.534153017887898
15200.0000000378,419.134180538787,1.00000000021707,0.53445379842296
15300.0000000381,430.535288682547,1.00000000023397,0.534975758954633
15400.0000000385,442.005355506823,1.00000000022027,0.535435657334227
15500.0000000389,453.47641685589,1.00000000023064,0.535809054582187
15600.0000000392,464.953201038857,1.00000000021481,0.536028604018393
15700.0000000396,476.471932971207,1.00000000022713,0.536056988582106
15800.0000000399,487.948686053812,1.00000000021945,0.536623220926727
15900.0000000403,499.451119966703,1.00000000021312,0.536806315565863
16000.0000000407,510.936849058282,1.00000000021858,0.53710797896914
16100.000000041,522.384526979059,1.00000000021137,0.537470402695851
16200.0000000414,533.847866640397,1.00000000021511,0.537327057763389
16300.0000000418,545.242991100169,1.00000000020596,0.537317400712311
16400.0000000418,556.623416943893,1.00000000021877,0.537432005060535
16500.0000000404,567.972232681327,1.00000000020902,0.537765338845708
16600.0000000389,579.245519807682,1.00000000020731,0.538048254072387
16700.0000000375,590.507137948769,1.00000000021978,0.537930073182931
16800.000000036,601.68183123796,1.00000000020493,0.53778298426374
16900.0000000346,612.805237974964,1.00000000021644,0.537800932423678
17000.0000000331,623.880369102243,1.00000000021021,0.53738059220307
17100.0000000317,634.853234578071,1.00000000020827,0.538048739612497
17200.0000000302,645.784937935911,1.00000000020804,0.537671499060385
17300.0000000287,656.616529674155,1.00000000020373,0.537988516959741
17400.0000000273,667.365152021529,1.00000000020728,0.537604835544718
17500.0000000258,678.048462876575,1.00000000019646,0.537521301675357
17600.0000000244,688.609348027765,1.00000000020424,0.537206296043394
17700.0000000229,699.100193193401,1.00000000019673,0.537132750831749
17800.0000000215,709.483521784137,1.00000000019403,0.536997556579789
17900.00000002,719.753291104422,1.00000000019857,0.537117833351381
18000.0000000186,729.944298688339,1.00000000019321,0.536845748302057
18100.0000000171,739.995501445237,1.00000000019709,0.536812741388611
18200.0000000156,749.953060457203,1.00000000019086,0.536455269419602
18300.0000000142,759.793662990972,1.00000000019018,0.536012908139975
18400.0000000127,769.500466481898,1.0000000001899,0.535969480227513
18500.0000000113,779.111570850697,1.00000000019454,0.53553315706226
18600.0000000098,788.573740109559,1.0000000001827,0.53558367141476
18700.0000000084,797.920437679645,1.0000000001885,0.535306809343022
18800.0000000069,807.144900030237,1.00000000018572,0.535260031959305
18900.0000000055,816.219594032468,1.00000000018332,0.535100820366569
19000.000000004,825.183731373639,1.00000000018145,0.534666861412861
19100.0000000026,833.994616820703,1.00000000018093,0.534290741650394
19200.0000000011,842.671513100866,1.0000000001804,0.533929560765809
19299.9999999996,851.222620049425,1.00000000017607,0.533684040329992
19399.9999999982,859.611700357585,1.00000000018159,0.533401827928323
19499.9999999967,867.878866999543,1.00000000017821,0.533404747353953
19599.9999999953,875.990782710678,1.00000000017707,0.533147130201945
19699.9999999938,883.956036432367,1.00000000017407,0.533065021222866
19799.9999999924,891.791014410215,1.00000000017376,0.532489218584464
19899.9999999909,899.457906949207,1.0000000001734,0.532197014056241
19999.9999999895,906.992905246373,1.00000000017352,0.531797870213761
20099.999999988,914.373486722899,1.00000000016911,0.531291821987548
20199.9999999865,921.598271680558,1.00000000017632,0.531258973725413
20299.9999999851,928.689700354911,1.00000000016679,0.53084646302254
20399.9999999836,935.6111520416,1.00000000016551,0.53097637412247
20499.9999999822,942.393453370795,1.00000000016751,0.530571719867166
20599.9999999807,949.023440710867,1.0000000001639,0.530255450395747
20699.9999999793,955.492336379001,1.00000000016448,0.53001312766397
20799.9999999778,961.825064934116,1.00000000015976,0.529326086204525
20899.9999999764,967.990367895046,1.000000000164,0.529222166552978
20999.9999999749,974.010567713799,1.00000000016322,0.528844361821709
21099.9999999734,979.883005389545,1.00000000015731,0.528664943124456
21199.999999972,985.592354099181,1.00000000015812,0.528730254131361
21299.9999999705,991.164747850399,1.00000000015925,0.52830608862883
21399.9999999691,996.574575553588,1.00000000015878,0.52820201214697
21499.9999999676,1001.83596069139,1.00000000015415,0.527536908749399
21599.9999999662,1006.95416189792,1.00000000015158,0.527006431586013
21699.9999999647,1011.90975809387,1.00000000015116,0.526738508571707
21799.9999999633,1016.72736998297,1.00000000015227,0.526240246857646
21899.9999999618,1021.38908781034,1.00000000015436,0.526465344005143
21999.9999999603,1025.90264761517,1.00000000015189,0.526636867175007
22099.9999999589,1030.27876634873,1.00000000015134,0.526857301005378
22199.9999999574,1034.4978534286,1.00000000014713,0.527048685564444
22299.999999956,1038.58167816818,1.00000000014717,0.526487695158744
22399.9999999545,1042.51848302184,1.00000000015309,0.525661704950601
22499.9999999531,1046.30880833745,1.00000000014439,0.524445243687455
22599.9999999516,1049.96528275636,1.00000000014538,0.523367385268662
22699.9999999502,1053.46779884352,1.0000000001411,0.522777795271833
22799.9999999487,1056.83517741203,1.00000000014092,0.522789201220572
22899.9999999473,1060.06165901178,1.0000000001413,0.523683622297226
22999.9999999458,1063.14569606539,1.00000000014274,0.525211208874611
23099.9999999443,1066.10456945621,1.00000000014052,0.526555249729631
23199.9999999429,1068.92227368303,1.0000000001404,0.527229143483486
23299.9999999414,1071.61500358714,1.00000000013953,0.526801639020731
23399.99999994,1074.18071527352,1.00000000013929,0.525083085935809
23499.9999999385,1076.61069457521,1.00000000013551,0.522568326005409
23599.9999999371,1078.91753337613,1.00000000013241,0.519662105430312
23699.9999999356,1081.08382449953,1.0000000001312,0.517613724413139
23799.9999999342,1083.1183229418,1.00000000012931,0.516838103180941
23899.9999999327,1085.02349190581,1.00000000013156,0.518171581434125
23999.9999999312,1086.79314778792,1.00000000013261,0.5215654290655
24099.9999999298,1088.44714744537,1.00000000013308,0.525261092675179
24199.9999999283,1089.98093853717,1.00000000014028,0.528568582182116
24299.9999999269,1091.40683704282,1.00000000013726,0.530397723007912
24399.9999999254,1092.73265066425,1.00000000013804,0.529774431500945
24499.999999924,1093.94765729675,1.00000000013917,0.526913939238596
24599.9999999225,1095.0610600251,1.00000000013173,0.521740960983788
24699.9999999211,1096.05825709371,1.00000000012218,0.515772693284109
24799.9999999196,1096.9348468909,1.0000000001212,0.510537468241402
24899.9999999181,1097.69176766188,1.00000000011649,0.508001150231077
24999.9999999167,1098.31704359188,1.00000000011274,0.509548946726376
25099.9999999152,1098.82673334973,1.00000000011578,0.514522149524812
25199.9999999138,1099.22546083822,1.00000000012307,0.521336972488069
25299.9999999123,1099.52602858042,1.00000000013028,0.528542418043009
25399.9999999109,1099.74911402519,1.00000000013532,0.533882063772227
25499.9999999094,1099.89369736671,1.00000000014096,0.536300680508475
25599.999999908,1099.97331991083,1.00000000013964,0.535061972579199
25699.9999999065,1099.98358640209,1.00000000014386,0.52943242606272
25799.9999999051,1099.91381034932,1.00000000013138,0.520851244529214
25899.9999999036,1099.75947385705,1.00000000011881,0.510325442418714
25999.9999999021,1099.49808571935,1.00000000010915,0.500709300382587
26099.9999999007,1099.12613733173,1.00000000009986,0.495034806360265
26199.9999998992,1098.64009745535,1.00000000010017,0.495494008125166
26299.9999998978,1098.04164326215,1.00000000010148,0.502378689381416
26399.9999998963,1097.35188702249,1.00000000011185,0.513084989866794
26499.9999998949,1096.58222493887,1.00000000012586,0.524567062697904
26599.9999998934,1095.75551653277,1.00000000013836,0.534566873143476
26699.999999892,1094.8897500062,1.00000000014306,0.540731570722382
26799.9999998905,1093.98907548815,1.00000000015438,0.542718744634905
26899.999999889,1093.06464349516,1.00000000015519,0.539645985505565
26999.9999998876,1092.10427700053,1.00000000014341,0.531083095784317
27099.9999998861,1091.09722784743,1.00000000013252,0.518499956352991
27199.9999998847,1090.02861257074,1.00000000011485,0.50262632712359
27299.9999998832,1088.87350672105,1.00000000010195,0.487789480518919
27399.9999998818,1087.62560806315,1.00000000008617,0.477772159798183
27499.9999998803,1086.27472042099,1.00000000008483,0.476099839702579
27599.9999998789,1084.82738453708,1.00000000008702,0.483845488851457
27699.9999998774,1083.30015979079,1.00000000010491,0.498717871052714
27799.9999998759,1081.70926323806,1.00000000012159,0.515186878788049
27899.9999998745,1080.08161127473,1.00000000013694,0.530272457746184
27999.999999873,1078.43634503942,1.00000000015724,0.541153994701235
28099.9999998716,1076.78648864078,1.00000000016211,0.547014949669323
28199.9999998701,1075.14500964906,1.00000000017398,0.548372161024611
28299.9999998687,1073.50512574063,1.0000000001573,0.542882288123857
28399.9999998672,1071.86331947233,1.00000000015346,0.533550239024011
28499.9999998658,1070.20326088274,1.00000000013669,0.516920176806104
28599.9999998643,1068.50194564667,1.00000000011947,0.497524018370104
28699.9999998629,1066.74338729702,1.00000000009725,0.476862632056948
28799.9999998614,1064.90521468438,1.00000000008112,0.460772613567007
