Time,AGPnorm,Energy,Entropy
0,0,1,-1.36746268881599e-17
99.9999999999986,9.03532355924283e-06,0.99999999999801,0.000409788113095947
199.999999999993,0.000786257561665998,0.9999999999968,0.000673256991191315
300,0.00193128456686991,1.00000000000066,0.00118026801986578
400.000000000022,0.0025925406142874,0.99999999999596,0.00206258050144406
500.000000000045,0.00317640501664651,0.999999999999291,0.00282044110508308
600.000000000068,0.00473831627805623,0.999999999998896,0.00389213373193112
700.000000000091,0.00593195391530355,0.999999999996161,0.00507386696269551
800.000000000113,0.00736287727906386,1.00000000000074,0.00626369274422399
900.000000000136,0.00924394495764907,0.999999999996463,0.00772404439380915
1000.00000000016,0.0109613843353735,0.999999999998449,0.00917203506492047
1100.0000000001,0.0132788183272565,0.999999999999703,0.0107036875361672
1200,0.0155396057143151,0.999999999995767,0.0124524184546686
1299.99999999991,0.0177548892035728,1.0000000000005,0.0141647138735827
1399.99999999982,0.0206582449271037,0.999999999997219,0.0160247909447651
1499.99999999973,0.023490071795153,0.999999999997581,0.0179937733095629
1599.99999999964,0.0264256234336776,1.0000000000003,0.0199304853767731
1699.99999999955,0.0294987575161283,0.99999999999568,0.0221002057876539
1799.99999999946,0.0326311838189354,0.999999999999993,0.0242658670400462
1899.99999999937,0.0364970017853335,0.999999999998118,0.0264630522440174
1999.99999999928,0.0402531673590027,0.999999999996779,0.0288696976614882
2099.99999999919,0.0436967144211929,1.00000000000059,0.0311958719307746
2199.99999999909,0.0475385278148336,0.99999999999594,0.0337085690858439
2299.999999999,0.0516152588565794,0.999999999999318,0.0362978243947094
2399.99999999891,0.0561866811838285,0.999999999999013,0.0388319134992206
2499.99999999882,0.0605866631352497,0.999999999996116,0.0416269979752729
2599.99999999873,0.0645665902843449,1.00000000000057,0.0443455296460955
2699.99999999864,0.0692288713694004,0.999999999996543,0.0471753258799374
2799.99999999855,0.0741705177344798,0.999999999998547,0.0501856501754509
2899.99999999846,0.0790983465701994,0.999999999999742,0.0530855789757141
2999.99999999837,0.0838919098899585,0.999999999995698,0.056244236014115
3099.99999999828,0.0884988046282735,1.0000000000003,0.0593803310859858
3199.99999999819,0.0939560633956237,0.999999999997395,0.0625528088139924
3299.99999999809,0.0995432341151981,0.999999999997725,0.0660016957556835
3399.999999998,0.104570511569684,1.00000000000019,0.0693110140893624
3499.99999999791,0.109664827273937,0.999999999995632,0.0728423654621785
3599.99999999782,0.114953028424031,0.999999999999871,0.0764512554324139
3699.99999999773,0.120992458633796,0.999999999998319,0.0800430683572718
3799.99999999764,0.126886826868751,0.999999999996896,0.0839667578264967
3899.99999999755,0.131959265533759,1.00000000000032,0.0877581706342405
3999.99999999746,0.137425090537369,0.999999999995985,0.0917279202949889
4099.99999999738,0.143361151634054,0.999999999999336,0.095908240747791
4199.99999999775,0.149608928286253,0.999999999999143,0.100037590049303
4299.99999999811,0.155471733502741,0.999999999996181,0.104514777851051
4399.99999999848,0.160676274298198,1.0000000000002,0.108924448891746
4499.99999999884,0.16660237216851,0.999999999996716,0.113485546900693
4599.9999999992,0.172992948745644,0.99999999999871,0.118405076597613
4699.99999999957,0.179075171417822,0.999999999999758,0.123261177144666
4799.99999999993,0.184718838357761,0.999999999995796,0.128474378360321
4900.00000000029,0.190168911290972,1.00000000000003,0.133767820254602
5000.00000000066,0.196533119055381,0.999999999997743,0.139236230143168
5100.00000000102,0.203008439718451,0.999999999998138,0.145216822287143
5200.00000000139,0.208762698600594,1.00000000000035,0.151174099327991
5300.00000000175,0.214249686721142,0.99999999999628,0.157533663066037
5400.00000000211,0.22003656557462,1.00000000000059,0.164213393912966
5500.00000000248,0.226795986522755,0.99999999999992,0.171126194506367
5600.00000000284,0.23289553735179,0.999999999999359,0.178670805436981
5700.00000000321,0.238635238685987,1.0000000000034,0.186246154263925
5800.00000000357,0.244564094177313,1.00000000000125,0.194200643520658
5900.00000000393,0.250915538590281,1.00000000000634,0.202622407568842
6000.0000000043,0.259215068184519,1.00000000000928,0.211116930895004
6100.00000000466,0.265988754323498,1.00000000001015,0.220089660082687
6200.00000000502,0.274439942196232,1.00000000001687,0.228939890001958
6300.00000000539,0.285987520988416,1.00000000001916,0.237882012663732
6400.00000000575,0.298391160419421,1.00000000002627,0.247164886267431
6500.00000000612,0.318075919133142,1.00000000003385,0.256123894211472
6600.00000000648,0.340187353935096,1.00000000003395,0.265266251016345
6700.00000000684,0.369842492337002,1.00000000004673,0.274121219238569
6800.00000000721,0.41469899001809,1.00000000005209,0.282827614259646
6900.00000000757,0.467577612159991,1.0000000000596,0.291766193013919
7000.00000000793,0.542018996072852,1.00000000006749,0.300155535010986
7100.0000000083,0.638137057287405,1.00000000007599,0.308461534099699
7200.00000000866,0.756334335011341,1.00000000008297,0.316718443078159
7300.00000000903,0.916603083955541,1.00000000009386,0.324578325458678
7400.00000000939,1.10898252368418,1.00000000010241,0.332697737118961
7500.00000000975,1.34797879489381,1.00000000010905,0.340232430355972
7600.00000001012,1.6481206546927,1.00000000012053,0.347561624819462
7700.00000001048,1.99814589280029,1.00000000012996,0.355087722514626
7800.00000001084,2.42931419455392,1.00000000013825,0.362034950696816
7900.00000001121,2.93767529730595,1.00000000013337,0.369269339332935
8000.00000001157,3.52561799745848,1.00000000015302,0.375900901200224
8100.00000001194,4.22773285624312,1.00000000015907,0.382320709744967
8200.0000000123,5.02157926131478,1.00000000016557,0.389064226656901
8300.00000001266,5.93880170870362,1.00000000016999,0.395119736555814
8400.00000001303,6.99259782235448,1.00000000018203,0.401226710042737
8500.00000001339,8.16193339384216,1.00000000019067,0.407159101425586
8600.00000001376,9.49877359635618,1.00000000019755,0.412675071780269
8700.00000001412,10.9794773042947,1.00000000019328,0.418586929317276
8800.00000001448,12.6190588813541,1.00000000020685,0.423784767875053
8900.00000001485,14.4552364872207,1.00000000021933,0.428840413375249
9000.00000001521,16.4422870886292,1.00000000021885,0.434174726694423
9100.00000001557,18.6379289067337,1.00000000021862,0.438842979781769
9200.00000001594,21.0320536134569,1.00000000022449,0.443819688228618
9300.0000000163,23.6078979599211,1.00000000024174,0.448286266543299
9400.00000001667,26.4272963590775,1.00000000024573,0.452537779724366
9500.00000001703,29.4305830358573,1.00000000023929,0.457238606432144
9600.00000001739,32.663515417825,1.00000000024675,0.461127440755829
9700.00000001776,36.1416308020032,1.00000000024531,0.465247994224857
9800.00000001812,39.8113917381851,1.00000000025978,0.469136676475666
9900.00000001848,43.7497503594194,1.00000000025394,0.472688275267191
10000.0000000188,47.9008614436311,1.00000000026134,0.476607882767312
10100.0000000192,52.2809559107122,1.00000000026844,0.479849222565831
10200.0000000196,56.9358855829663,1.00000000025781,0.483183067990436
10300.0000000199,61.7832793300283,1.00000000027512,0.486608153544032
10400.0000000203,66.8989115582081,1.00000000025962,0.489519686941822
10500.0000000207,72.2493798042256,1.00000000027269,0.492686431699136
10600.000000021,77.8101522815619,1.0000000002771,0.495506665709401
10700.0000000214,83.6535215384411,1.00000000028273,0.497970026808415
10800.0000000218,89.6840073533157,1.00000000027296,0.50110985922016
10900.0000000221,95.9606158620558,1.00000000027381,0.503367070116092
11000.0000000225,102.482247954682,1.00000000028242,0.505820790694574
11100.0000000229,109.184466370722,1.00000000027867,0.508324262041101
11200.0000000232,116.153887964324,1.00000000028835,0.51022451413408
11300.0000000236,123.302282630123,1.00000000028514,0.512864792652074
11400.0000000239,130.657589182684,1.00000000028854,0.514622510692356
11500.0000000243,138.253698913096,1.0000000002765,0.516525197760571
11600.0000000247,145.995963342798,1.00000000029481,0.518670900579344
11700.000000025,153.970636746044,1.00000000028749,0.520065605346837
11800.0000000254,162.113352711389,1.00000000028062,0.522198287696084
11900.0000000258,170.41462872323,1.00000000029369,0.523729242794353
12000.0000000261,178.935645557567,1.00000000028068,0.524895350320443
12100.0000000265,187.569844836665,1.00000000028525,0.526930968533596
12200.0000000269,196.387215350283,1.00000000028478,0.528045603828592
12300.0000000272,205.358148399894,1.00000000027035,0.529303118684439
12400.0000000276,214.43523931174,1.00000000028624,0.530877658302389
12500.0000000279,223.698861279057,1.0000000002785,0.53155488982103
12600.0000000283,233.045185953431,1.00000000027604,0.533058528338363
12700.0000000287,242.518946209911,1.00000000028084,0.534142137336986
12800.000000029,252.126264630275,1.00000000028086,0.534671577601701
12900.0000000294,261.791028869005,1.00000000027429,0.53607342409943
13000.0000000298,271.596461848334,1.00000000027423,0.536707880561853
13100.0000000301,281.460332503568,1.00000000027204,0.537620784027286
13200.0000000305,291.392451379037,1.00000000027694,0.538423763073568
13300.0000000309,301.433471879003,1.00000000027297,0.538893511152866
13400.0000000312,311.489518096954,1.00000000026946,0.539808341246392
13500.0000000316,321.634871469333,1.00000000027835,0.54011699647505
13600.0000000319,331.815633346253,1.00000000027803,0.540779901605801
13700.0000000323,342.013283101582,1.00000000027466,0.541479130601601
13800.0000000327,352.284523750755,1.00000000026927,0.54175083063785
13900.000000033,362.538370423976,1.00000000026606,0.542407406799403
14000.0000000334,372.827361822482,1.0000000002647,0.542613582417732
14100.0000000338,383.131622192111,1.00000000026343,0.542775752137332
14200.0000000341,393.404753666863,1.00000000026777,0.543602511774664
14300.0000000345,403.716190301703,1.00000000027211,0.543611885370923
14400.0000000349,413.98282096972,1.0000000002582,0.543719498800531
14500.0000000352,424.235124378906,1.0000000002704,0.543987296973691
14600.0000000356,434.480479524916,1.00000000025968,0.544027510214359
14700.0000000359,444.659054691012,1.00000000025694,0.54442833810933
14800.0000000363,454.834682308924,1.00000000024418,0.544815618894394
14900.0000000367,464.946336974016,1.00000000025933,0.544701057231013
15000.000000037,474.999805770553,1.00000000024161,0.544540130807211
15100.0000000374,485.023298052786,1.00000000025225,0.544411808722186
15200.0000000378,494.952482815349,1.00000000024888,0.544975722872415
15300.0000000381,504.840923452364,1.00000000025517,0.544864414235874
15400.0000000385,514.648898025805,1.00000000025167,0.54483669803571
15500.0000000389,524.362945986231,1.00000000024399,0.544697288108823
15600.0000000392,534.026082402769,1.00000000025413,0.544239278619512
15700.0000000396,543.57317043156,1.00000000023714,0.544606410608566
15800.0000000399,553.045088858838,1.00000000024665,0.544682892613165
15900.0000000403,562.424191898791,1.00000000023095,0.544439435051888
16000.0000000407,571.680978039081,1.00000000023693,0.544466526676231
16100.000000041,580.865072266398,1.00000000023803,0.544134963803454
16200.0000000414,589.91980610464,1.00000000023777,0.543976903977293
16300.0000000418,598.870066431243,1.00000000023481,0.543989618011463
16400.0000000418,607.715441312166,1.00000000021901,0.543586991807873
16500.0000000404,616.421351406097,1.00000000023531,0.544121799918984
16600.0000000389,625.03427856457,1.00000000022271,0.543488468062871
16700.0000000375,633.508977986639,1.00000000022362,0.543749684710196
16800.000000036,641.856919542257,1.00000000022612,0.54300541559113
16900.0000000346,650.092315590123,1.00000000022729,0.542958449871896
17000.0000000331,658.176106300799,1.00000000021741,0.542547711566229
17100.0000000317,666.14785394409,1.00000000023067,0.542603885145973
17200.0000000302,673.977730452314,1.00000000021885,0.542155562553427
17300.0000000287,681.662618060388,1.00000000022012,0.542310195434622
17400.0000000273,689.227125361885,1.00000000021796,0.541414238125129
17500.0000000258,696.632411198031,1.00000000021213,0.541571051740692
17600.0000000244,703.910305993444,1.00000000021097,0.541013129000484
17700.0000000229,711.043279564426,1.00000000021382,0.540673936083012
17800.0000000215,718.018332736362,1.00000000020833,0.540494060599761
17900.00000002,724.867734127281,1.00000000020908,0.540355318126531
18000.0000000186,731.554862337347,1.00000000021227,0.540102092502826
18100.0000000171,738.102335001507,1.00000000020219,0.539966808167288
18200.0000000156,744.503328552698,1.00000000020631,0.53908812273214
18300.0000000142,750.740853910396,1.00000000020114,0.539155143677142
18400.0000000127,756.847533312441,1.00000000020353,0.538408623543803
18500.0000000113,762.792167556066,1.00000000019635,0.538381443429305
18600.0000000098,768.588706631543,1.00000000020316,0.538093285467312
18700.0000000084,774.240137299402,1.00000000019589,0.537937421164606
18800.0000000069,779.727926245487,1.0000000001935,0.538009575804979
18900.0000000055,785.07941718413,1.00000000018967,0.537240628600677
19000.000000004,790.272588986763,1.00000000020107,0.536664798389059
19100.0000000026,795.311547293302,1.00000000019073,0.536220309895091
19200.0000000011,800.209926711059,1.00000000019683,0.536015724002407
19299.9999999996,804.946278397182,1.00000000018204,0.535993725837634
19399.9999999982,809.544795634414,1.00000000018958,0.536068475764992
19499.9999999967,813.990229632214,1.00000000018517,0.53580416296139
19599.9999999953,818.281086901643,1.00000000018528,0.535657411728485
19699.9999999938,822.435457509926,1.0000000001806,0.534637570461811
19799.9999999924,826.431506598772,1.00000000018303,0.533716425108157
19899.9999999909,830.288401943219,1.00000000018149,0.53333054451275
19999.9999999895,833.998326767011,1.00000000018775,0.532992544481426
20099.999999988,837.556530491882,1.00000000017408,0.534037662864119
20199.9999999865,840.983642705158,1.00000000018305,0.534371985823699
20299.9999999851,844.260493212851,1.00000000017373,0.534760050677776
20399.9999999836,847.402591631987,1.00000000017873,0.534374602396987
20499.9999999822,850.4070614518,1.0000000001672,0.532715215075702
20599.9999999807,853.265029167538,1.00000000017369,0.531321308549381
20699.9999999793,855.993596526612,1.00000000016612,0.529415396726857
20799.9999999778,858.576382843768,1.00000000016959,0.529158656807463
20899.9999999764,861.023892906808,1.00000000015999,0.530524382843373
20999.9999999749,863.340990613808,1.00000000016698,0.532403255541608
21099.9999999734,865.521271350392,1.00000000016775,0.534839665689963
21199.999999972,867.585413899358,1.00000000016606,0.535560953726381
21299.9999999705,869.522514405346,1.00000000016692,0.534835635884481
21399.9999999691,871.336659800687,1.00000000016101,0.531949233923677
21499.9999999676,873.030422571622,1.00000000015558,0.527754704224296
21599.9999999662,874.589444203042,1.00000000015331,0.524635082517102
21699.9999999647,876.025156672076,1.00000000015194,0.523210807437525
21799.9999999633,877.329315527879,1.00000000015227,0.525520221939671
21899.9999999618,878.508345628274,1.00000000014979,0.530095230229385
21999.9999999603,879.579289419187,1.00000000015749,0.535138518919969
22099.9999999589,880.541107190079,1.00000000016542,0.538798994195404
22199.9999999574,881.411204095429,1.00000000017154,0.539357268840574
22299.999999956,882.186436794291,1.00000000016501,0.536342852591013
22399.9999999545,882.859848591693,1.00000000015605,0.530076893217358
22499.9999999531,883.432556470618,1.00000000014779,0.521980907368736
22599.9999999516,883.884702950473,1.00000000014022,0.516179960016503
22699.9999999502,884.219342178522,1.00000000013444,0.514821618034824
22799.9999999487,884.435910539322,1.00000000013802,0.519074971577195
22899.9999999473,884.541518005879,1.00000000014121,0.527398084918558
22999.9999999458,884.561222971417,1.00000000015304,0.536239905310494
23099.9999999443,884.502909148032,1.00000000016551,0.543088136662599
23199.9999999429,884.383625970253,1.00000000016752,0.545414249559908
23299.9999999414,884.206956966708,1.00000000017502,0.541961149753062
23399.99999994,883.962641780356,1.00000000016444,0.533561135266098
23499.9999999385,883.645807459047,1.00000000014147,0.521213719723527
23599.9999999371,883.232392108425,1.0000000001305,0.509140909353444
23699.9999999356,882.712797237236,1.00000000011709,0.5018329770169
23799.9999999342,882.085224508114,1.0000000001169,0.502632426600338
23899.9999999327,881.352431447715,1.00000000012073,0.512357313526858
23999.9999999312,880.540968312983,1.00000000013965,0.526030685776342
24099.9999999298,879.66704407374,1.00000000016415,0.539147133601639
24199.9999999283,878.75335717126,1.00000000017371,0.548146581613883
24299.9999999269,877.816476582389,1.00000000018573,0.550730821553923
24399.9999999254,876.85411352005,1.0000000001844,0.547084936098163
24499.999999924,875.865078156583,1.00000000016993,0.535990507439277
24599.9999999225,874.827223500136,1.00000000015574,0.519604379194006
24699.9999999211,873.719558375323,1.00000000012449,0.501479302167315
24799.9999999196,872.527177250655,1.00000000010329,0.486747815592605
24899.9999999181,871.234416685888,1.00000000009546,0.482579079034795
24999.9999999167,869.851980659513,1.00000000010581,0.49149926964124
25099.9999999152,868.392789230538,1.00000000012619,0.509011144336268
25199.9999999138,866.880705710914,1.00000000015327,0.529014757929158
25299.9999999123,865.345964318197,1.00000000017969,0.544355089687858
25399.9999999109,863.803244624838,1.00000000019396,0.553445608609279
25499.9999999094,862.268273627163,1.0000000002068,0.556207920104887
25599.999999908,860.740664393342,1.00000000019786,0.550630114522119
25699.9999999065,859.207878081077,1.00000000018412,0.538074799952361
25799.9999999051,857.656319935303,1.000000000157,0.518367026082873
25899.9999999036,856.057089311719,1.00000000012519,0.494494682592302
25999.9999999021,854.391332543843,1.00000000009841,0.473415968603307
26099.9999999007,852.645444304009,1.00000000008547,0.462213809348601
26199.9999998992,850.815933983752,1.00000000008648,0.466582446350756
26299.9999998978,848.921027915638,1.0000000001129,0.486108375827333
26399.9999998963,846.978518324138,1.00000000014027,0.511577686096113
26499.9999998949,845.015673309128,1.00000000017115,0.534132743515359
26599.9999998934,843.056840946682,1.00000000019038,0.549924618233262
26699.999999892,841.11503399883,1.00000000020932,0.55805705592622
26799.9999998905,839.202910070024,1.00000000022372,0.559766076881655
26899.999999889,837.316155494618,1.00000000020754,0.554229415736259
26999.9999998876,835.444763948297,1.00000000019847,0.541510199407433
27099.9999998861,833.573819703854,1.00000000016744,0.52101827497482
27199.9999998847,831.676713134798,1.00000000013365,0.493516119503773
27299.9999998832,829.736135559558,1.00000000010485,0.466372507074331
27399.9999998818,827.732928812314,1.00000000007681,0.44620876426621
27499.9999998803,825.661663071574,1.00000000007307,0.441987917963124
27599.9999998789,823.532040247213,1.00000000008542,0.456268937633202
27699.9999998774,821.356785038088,1.00000000011531,0.483538650715821
27799.9999998759,819.16054859431,1.00000000014996,0.512671706731082
27899.9999998745,816.964316704208,1.00000000018492,0.536544500459377
27999.999999873,814.784760123192,1.00000000021004,0.550585587877691
28099.9999998716,812.63756692357,1.00000000022213,0.559401836548442
28199.9999998701,810.526277463469,1.00000000022491,0.559114322561963
28299.9999998687,808.4507095767,1.00000000022901,0.556844945390509
28399.9999998672,806.405134012806,1.00000000020892,0.546305514819906
28499.9999998658,804.372360395669,1.00000000018146,0.528115213867951
28599.9999998643,802.339079073289,1.00000000015782,0.503198366112907
28699.9999998629,800.282666092449,1.0000000001199,0.471579035010408
