Time,AGPnorm,Energy,Entropy
0,0,1,-7.26949000187153e-17
99.9999999999986,0.000944647644905457,1.00000000000253,0.00307593058009216
199.999999999993,0.00598500980706388,1.00000000000192,0.00920491331598401
300,0.0124537699460337,0.999999999999427,0.0169514742617583
400.000000000022,0.0190679019928896,0.999999999999234,0.0264510335934083
500.000000000045,0.0268860086158193,1.00000000000133,0.0381039299614904
600.000000000068,0.0371326352120458,1.00000000000236,0.0517081822287825
700.000000000091,0.0477238786835727,1.00000000000059,0.0666732368468791
800.000000000113,0.0594599518771801,0.999999999999349,0.0830222912798103
900.000000000136,0.0713430314212255,1.00000000000029,0.101511188905463
1000.00000000016,0.0842614841598864,1.00000000000208,0.122711534657578
1100.0000000001,0.0971655238068129,1.000000000002,0.147043530458183
1200,0.110524254305629,1.00000000000399,0.175155497025711
1299.99999999991,0.123504322898829,1.00000000002059,0.208739953390492
1399.99999999982,0.134297222631678,1.0000000000761,0.248096162712318
1499.99999999973,0.149916465135837,1.0000000001716,0.290662209990637
1599.99999999964,0.201459435771309,1.00000000031025,0.331660431528778
1699.99999999955,0.31283832834118,1.00000000048947,0.368863579811513
1799.99999999946,0.51355455448499,1.00000000062663,0.402133468832474
1899.99999999937,0.886711111952364,1.00000000080362,0.431589583124202
1999.99999999928,1.5451488859643,1.00000000094007,0.456728349210043
2099.99999999919,2.54768798173221,1.00000000098269,0.478444400926731
2199.99999999909,3.91392245597673,1.0000000010728,0.496836737711847
2299.999999999,5.68483134612697,1.00000000113786,0.512859407712863
2399.99999999891,7.91154702026134,1.00000000123184,0.525670805364873
2499.99999999882,10.5933527570819,1.00000000124329,0.536627843021165
2599.99999999873,13.6850606548603,1.00000000127646,0.545298326079486
2699.99999999864,17.1381382713494,1.00000000127735,0.552756761788711
2799.99999999855,20.9155633811449,1.00000000130775,0.558300721100889
2899.99999999846,24.9681178564275,1.00000000128643,0.562785065758496
2999.99999999837,29.2324134537309,1.00000000122728,0.565807986360585
3099.99999999828,33.636391621398,1.00000000122583,0.567769532034718
3199.99999999819,38.1136218227944,1.00000000122509,0.569447902204939
3299.99999999809,42.6055101396517,1.00000000117471,0.57016262582851
3399.999999998,47.0625908188288,1.00000000113674,0.570340013860529
3499.99999999791,51.4395309014592,1.00000000114652,0.569899066654618
3599.99999999782,55.6823082813415,1.00000000118515,0.569637670238693
3699.99999999773,59.7467325712452,1.00000000109856,0.567904581874206
3799.99999999764,63.608967100043,1.0000000010818,0.56557274764727
3899.99999999755,67.2432273441008,1.00000000099943,0.566213987266265
3999.99999999746,70.6254016151195,1.00000000101749,0.563907748472445
4099.99999999738,73.7421516050509,1.00000000096366,0.560480765249162
4199.99999999775,76.5768303939307,1.0000000009478,0.561418862703189
4299.99999999811,79.1248068203611,1.00000000090286,0.557671846510776
4399.99999999848,81.3959778950218,1.00000000088641,0.556168594695247
4499.99999999884,83.3860825875187,1.00000000088235,0.555891326951116
4599.9999999992,85.0960370105033,1.00000000082668,0.550283594860557
4699.99999999957,86.5335373049143,1.00000000083331,0.554957647029974
4799.99999999993,87.71576114645,1.00000000081168,0.550237110260292
4900.00000000029,88.644142214465,1.00000000076993,0.545218440041761
5000.00000000066,89.3429337152627,1.00000000080308,0.55895042326134
5100.00000000102,89.8395578615187,1.00000000078073,0.547024745293632
5200.00000000139,90.1074995268681,1.00000000070565,0.535207296130502
5300.00000000175,90.1939385260256,1.00000000083395,0.56243248768913
5400.00000000211,90.1565193171036,1.00000000077384,0.550474365759918
5500.00000000248,89.9400133127881,1.00000000056119,0.51634895595181
5600.00000000284,89.5589955279703,1.0000000007449,0.550838632442704
5700.00000000321,89.1208096427232,1.00000000086803,0.569294197687427
5800.00000000357,88.6077059784478,1.00000000062004,0.518592870683377
5900.00000000393,87.940904350732,1.00000000050056,0.500174538387869
6000.0000000043,87.1964193970729,1.00000000087127,0.56342385208419
6100.00000000466,86.4692233756585,1.00000000091738,0.568996538222418
6200.00000000502,85.708344386278,1.00000000056511,0.500590603630576
6300.00000000539,84.8321542051191,1.00000000044143,0.472549458334879
6400.00000000575,83.9026414078175,1.0000000008599,0.546746388082648
6500.00000000612,83.0136857849537,1.00000000102989,0.5783856047833
6600.00000000648,82.1573315183687,1.00000000078602,0.525458203497999
6700.00000000684,81.2476564977314,1.00000000042173,0.446468844641988
6800.00000000721,80.2691511220024,1.0000000005469,0.470371951994428
6900.00000000757,79.2912649967637,1.00000000096701,0.552437491706763
7000.00000000793,78.3689794713249,1.00000000108376,0.571980435626662
7100.0000000083,77.4863502211978,1.00000000084801,0.522018234138536
7200.00000000866,76.5847826136779,1.00000000049239,0.438660546122481
7300.00000000903,75.6438251355653,1.00000000045911,0.431462681788109
7400.00000000939,74.6942750674181,1.00000000080209,0.504663167732349
7500.00000000975,73.775216584329,1.00000000105251,0.556939532254451
7600.00000001012,72.9016475943229,1.00000000102686,0.554006012759484
7700.00000001048,72.0549498256902,1.00000000079786,0.504742157403873
7800.00000001084,71.2058047140966,1.0000000005497,0.441008586704032
7900.00000001121,70.3479896806447,1.0000000004971,0.428417760867365
8000.00000001157,69.4917704533487,1.00000000068013,0.470086930622302
8100.00000001194,68.6509662343864,1.00000000091766,0.523044034144534
8200.0000000123,67.8362294848172,1.00000000099973,0.544228736431729
8300.00000001266,67.048825210662,1.00000000091677,0.53700124031989
8400.00000001303,66.2796461712511,1.00000000072188,0.496276477019745
8500.00000001339,65.5206191158462,1.00000000057064,0.454180835074454
8600.00000001376,64.7739662529993,1.00000000059111,0.440863198582733
8700.00000001412,64.0430768663567,1.00000000064806,0.465512272795248
8800.00000001448,63.3279988467864,1.00000000078332,0.487942733400115
8900.00000001485,62.6280089970111,1.00000000080693,0.511284932722301
9000.00000001521,61.9417787880656,1.00000000092288,0.527746638460858
9100.00000001557,61.269301344683,1.00000000093917,0.535899595706508
9200.00000001594,60.6110980000378,1.00000000078757,0.519404692625845
9300.0000000163,59.9705452971267,1.0000000005984,0.475106467993809
9400.00000001667,59.3526121963248,1.00000000056347,0.455146544456871
9500.00000001703,58.7577969239977,1.00000000064345,0.462894222728281
9600.00000001739,58.1806345720764,1.00000000076013,0.485644740264868
9700.00000001776,57.6185231338061,1.00000000074513,0.497511901685455
9800.00000001812,57.07329416223,1.00000000062428,0.489953016465417
9900.00000001848,56.5439561749268,1.00000000070705,0.501900932060907
10000.0000000188,56.0230440638967,1.00000000087331,0.522528804811513
10100.0000000192,55.5019906914898,1.00000000091136,0.536574599415276
10200.0000000196,54.9841952120653,1.00000000081463,0.529400584923925
10300.0000000199,54.4815500530895,1.00000000063539,0.494018160527505
10400.0000000203,54.0070401231326,1.00000000054892,0.461136410214642
10500.0000000207,53.5608050619922,1.0000000006181,0.458510254112337
10600.000000021,53.133663554915,1.00000000082845,0.47752739781511
10700.0000000214,52.7150612836042,1.00000000085136,0.492178360386026
10800.0000000218,52.3026070436848,1.00000000075339,0.505179690041039
10900.0000000221,51.9021391809233,1.00000000066424,0.496822887746638
11000.0000000225,51.520703272644,1.00000000062706,0.489285822872593
11100.0000000229,51.1533182337861,1.00000000071019,0.504863649023756
11200.0000000232,50.7884890955846,1.00000000082325,0.523085936376439
11300.0000000236,50.4179432808126,1.00000000095948,0.537081206582179
11400.0000000239,50.0405132761443,1.00000000090396,0.538961177701251
11500.0000000243,49.6659429492602,1.00000000075725,0.524627486189123
11600.0000000247,49.3080607744298,1.00000000065677,0.498567235774655
11700.000000025,48.9773710929913,1.00000000058106,0.474687918947236
11800.0000000254,48.6749599353635,1.00000000066608,0.471833253762113
11900.0000000258,48.3937731291958,1.00000000068944,0.478817268453682
12000.0000000261,48.1244626901739,1.00000000081738,0.494367397060094
12100.0000000265,47.8593058637872,1.00000000077851,0.498716957231877
12200.0000000269,47.5983121239696,1.00000000075338,0.500698070550625
12300.0000000272,47.342829413071,1.00000000079024,0.515934529945772
12400.0000000276,47.0922885119941,1.00000000071763,0.521660541206953
12500.0000000279,46.8484081802503,1.00000000074037,0.529707949853175
12600.0000000283,46.6092736393069,1.00000000071545,0.534126979997193
12700.0000000287,46.3739507724662,1.00000000071117,0.531665204385274
12800.000000029,46.1401010455326,1.00000000076974,0.525040866913954
12900.0000000294,45.9050443238812,1.00000000088137,0.531828355929257
13000.0000000298,45.6630832047214,1.0000000009247,0.542393748363393
13100.0000000301,45.4158017592291,1.00000000084982,0.545831053574709
13200.0000000305,45.1764542853995,1.00000000068934,0.526435514470681
13300.0000000309,44.9599647526643,1.00000000059055,0.502833733912489
13400.0000000312,44.770569533632,1.00000000058258,0.484490853531209
13500.0000000316,44.6030084653319,1.00000000067541,0.489062237348859
13600.0000000319,44.4469449354103,1.00000000079692,0.503031446813838
13700.0000000323,44.2971158778378,1.00000000078972,0.499656420426989
13800.0000000327,44.1545127707319,1.0000000007553,0.500705498278444
13900.000000033,44.0207316539496,1.00000000071679,0.507535031435744
14000.0000000334,43.8987434928331,1.00000000071681,0.505202645068149
14100.0000000338,43.7869251164583,1.00000000070603,0.509906965405648
14200.0000000341,43.6745225718222,1.00000000079636,0.527570452318494
14300.0000000345,43.5507027140447,1.00000000086462,0.545038621841658
14400.0000000349,43.4128066014786,1.0000000008527,0.554556730013706
14500.0000000352,43.2640258706076,1.00000000077358,0.556918055899536
14600.0000000356,43.1124032773534,1.00000000070225,0.556657195230025
14700.0000000359,42.9644812515592,1.00000000066308,0.545490537482571
14800.0000000363,42.8244241949314,1.00000000067463,0.537150082477832
14900.0000000367,42.6894612430382,1.00000000077368,0.534228880678757
15000.000000037,42.5533150799568,1.00000000080911,0.532289850863414
15100.0000000374,42.411529796005,1.00000000085454,0.542199410839727
15200.0000000378,42.2629467238371,1.00000000090569,0.549241261670532
15300.0000000381,42.1109060938548,1.00000000080098,0.548781097900884
15400.0000000385,41.9657763426528,1.00000000071156,0.539220306096078
15500.0000000389,41.8382573273882,1.00000000065505,0.525829571621152
15600.0000000392,41.7339762307995,1.00000000068755,0.513410287177804
15700.0000000396,41.6509387071979,1.00000000067161,0.503889250429913
15800.0000000399,41.5838451963327,1.00000000068689,0.504363627880241
15900.0000000403,41.5255858907877,1.0000000007604,0.502929180096102
16000.0000000407,41.4672493122242,1.00000000076891,0.507037029936312
16100.000000041,41.4115927472325,1.0000000007464,0.504997871172053
16200.0000000414,41.363968294542,1.00000000071027,0.506512354912982
16300.0000000418,41.3246663079798,1.00000000070016,0.514799839370122
16400.0000000418,41.288741806644,1.00000000078056,0.52926852683943
16500.0000000404,41.2516033815617,1.00000000080431,0.540791972736553
16600.0000000389,41.2151926971985,1.00000000073969,0.542835732234937
16700.0000000375,41.1795729575668,1.00000000077824,0.546715170749202
16800.000000036,41.1452881903203,1.00000000073527,0.549830007237299
16900.0000000346,41.108481523553,1.00000000072065,0.545913050942539
17000.0000000331,41.0643940908401,1.00000000082469,0.55165724870645
17100.0000000317,41.008647820515,1.00000000081368,0.554901401731373
17200.0000000302,40.9384523929619,1.00000000087767,0.548477777256113
17300.0000000287,40.8539265446562,1.0000000007983,0.550873977676558
17400.0000000273,40.7592672288795,1.00000000085483,0.563942917398512
17500.0000000258,40.6598189220997,1.00000000077607,0.56457540005794
17600.0000000244,40.5603108357676,1.00000000067888,0.553664995749816
17700.0000000229,40.4654260595699,1.00000000069578,0.546439227431319
17800.0000000215,40.3778482097539,1.00000000067808,0.539367742388842
17900.00000002,40.2950381780388,1.00000000073515,0.532900885906358
18000.0000000186,40.2135665001397,1.00000000082039,0.532177039767078
18100.0000000171,40.1302646241709,1.00000000082609,0.539812149907166
18200.0000000156,40.0423445728925,1.00000000086294,0.552422070704646
18300.0000000142,39.9496146436179,1.00000000089551,0.560183380882732
18400.0000000127,39.8568002014066,1.00000000078283,0.559215022435993
18500.0000000113,39.7726232388339,1.0000000006852,0.550140973304134
18600.0000000098,39.7045908520245,1.00000000063681,0.540038956440157
18700.0000000084,39.6552095574411,1.00000000064959,0.531239055862334
18800.0000000069,39.6247180657565,1.0000000006948,0.524123452775511
18900.0000000055,39.6093339880901,1.00000000066613,0.514738462164947
19000.000000004,39.600899157252,1.00000000078651,0.516958193795387
19100.0000000026,39.5958573351199,1.00000000081434,0.521192779719667
19200.0000000011,39.5963733851554,1.00000000072411,0.518377127698969
19299.9999999996,39.6030329521507,1.00000000071639,0.51034476635831
19399.9999999982,39.6151177086525,1.00000000075552,0.510046114077882
19499.9999999967,39.6306730519199,1.00000000075344,0.512685896431289
19599.9999999953,39.6505169986785,1.00000000072337,0.513017904686715
19699.9999999938,39.6749120456176,1.00000000070813,0.512129927764179
19799.9999999924,39.7015098912438,1.00000000075419,0.526299556090502
19899.9999999909,39.7253063317524,1.00000000081221,0.545004687664362
19999.9999999895,39.7413132053012,1.00000000081996,0.555774241733681
20099.999999988,39.749185106748,1.00000000084749,0.561451892511348
20199.9999999865,39.7526134494312,1.00000000074688,0.567041723666194
20299.9999999851,39.7560844380144,1.00000000072342,0.566308899646848
20399.9999999836,39.7614127536151,1.00000000075672,0.568184863045912
20499.9999999822,39.7642957686827,1.00000000082156,0.575293536770713
20599.9999999807,39.7610465016664,1.00000000077075,0.586526288247312
20699.9999999793,39.7517440721383,1.00000000072607,0.593273047042436
20799.9999999778,39.7385083893056,1.0000000007671,0.595229043195047
20899.9999999764,39.7192082082178,1.00000000077567,0.593615678844902
20999.9999999749,39.6930347446833,1.00000000073048,0.589942972544854
21099.9999999734,39.6613527628041,1.00000000074872,0.588960789151897
21199.999999972,39.6233854644419,1.00000000079264,0.583334565549107
21299.9999999705,39.577088018198,1.00000000079644,0.574131464069845
21399.9999999691,39.5216317098251,1.00000000081682,0.570510858955264
21499.9999999676,39.4566441476618,1.00000000088055,0.578868455101135
21599.9999999662,39.3816997138616,1.00000000086568,0.588215901430223
21699.9999999647,39.300315972434,1.00000000083125,0.592726323635097
21799.9999999633,39.2161596358569,1.00000000078789,0.590960159228941
21899.9999999618,39.1332556661867,1.00000000071518,0.588864574765788
21999.9999999603,39.0533868433602,1.00000000067962,0.587378410437621
22099.9999999589,38.9781699727301,1.0000000006944,0.588508742866688
22199.9999999574,38.9068821014708,1.00000000070533,0.589157808626522
22299.999999956,38.8389808847998,1.000000000761,0.584975987415337
22399.9999999545,38.7738046722163,1.00000000077213,0.581066442393103
22499.9999999531,38.7099166705287,1.00000000079418,0.584550780559049
22599.9999999516,38.6467944694339,1.00000000081191,0.584231439706151
22699.9999999502,38.5827381478647,1.00000000088943,0.583330810515809
22799.9999999487,38.5176375348179,1.00000000087798,0.576980616065136
22899.9999999473,38.4508467148511,1.00000000081271,0.576909027727175
22999.9999999458,38.3851220857293,1.00000000078903,0.574673554499672
23099.9999999443,38.3255812743112,1.00000000071309,0.572470069344277
23199.9999999429,38.2769225529756,1.00000000067573,0.566853745360776
23299.9999999414,38.243243496473,1.00000000067218,0.559729681660925
23399.99999994,38.225574806771,1.0000000006291,0.552573134741749
23499.9999999385,38.2216253941014,1.00000000071269,0.54996677806841
23599.9999999371,38.2295036044068,1.00000000074089,0.548126783025501
23699.9999999356,38.2445619643698,1.00000000078763,0.541768635392335
23799.9999999342,38.2641047238163,1.0000000007801,0.539655007219467
23899.9999999327,38.2882278616112,1.00000000079481,0.536502651617522
23999.9999999312,38.3181411388474,1.00000000076594,0.535760108428461
24099.9999999298,38.3534010340461,1.00000000075317,0.535927186651681
24199.9999999283,38.3918038139838,1.00000000076917,0.538324981167689
24299.9999999269,38.4340494697145,1.00000000073605,0.538047536533354
24399.9999999254,38.4807281766786,1.00000000073863,0.535412418354342
24499.999999924,38.5310424176102,1.0000000007525,0.534225257597655
24599.9999999225,38.5839745559851,1.00000000076953,0.540895438086407
24699.9999999211,38.6366374726606,1.00000000082686,0.550767759506955
24799.9999999196,38.6855035350417,1.00000000081054,0.562861046198731
24899.9999999181,38.7277246453393,1.00000000079901,0.571726538729004
24999.9999999167,38.7651505012948,1.00000000087731,0.580326392785764
25099.9999999152,38.7968589568517,1.00000000082903,0.584131651256077
25199.9999999138,38.8237466849795,1.00000000084022,0.588891516814818
25299.9999999123,38.8463265663048,1.00000000078871,0.592717418205519
25399.9999999109,38.8670505812245,1.00000000075578,0.592890015063883
25499.9999999094,38.8860379705189,1.0000000007634,0.594052153850543
25599.999999908,38.9048840626827,1.00000000077276,0.595904006557254
25699.9999999065,38.9224044403121,1.00000000079069,0.599574948484268
25799.9999999051,38.9362077637003,1.00000000076105,0.601380039875134
25899.9999999036,38.9468137302296,1.00000000084005,0.597800534088678
25999.9999999021,38.9542626357205,1.00000000081594,0.597034954737905
26099.9999999007,38.9559997414037,1.00000000083318,0.590775017869309
26199.9999998992,38.9524092667337,1.00000000081167,0.601664049270258
26299.9999998978,38.9454276564786,1.00000000083123,0.607692714034542
26399.9999998963,38.9364598366669,1.00000000078338,0.603885046206938
26499.9999998949,38.92781033058,1.00000000079004,0.604875986825233
26599.9999998934,38.9174680458443,1.00000000077855,0.603209452258934
26699.999999892,38.9035649980494,1.00000000079139,0.60817203300029
26799.9999998905,38.8869259968268,1.00000000077548,0.603093469720808
26899.999999889,38.8677878599072,1.0000000008177,0.59714140530868
26999.9999998876,38.8458545911036,1.00000000079307,0.595624504228775
27099.9999998861,38.8211268714887,1.00000000076962,0.591261620002957
27199.9999998847,38.7932073976857,1.00000000082999,0.597906938500942
27299.9999998832,38.7608485328416,1.00000000083834,0.6019321462685
27399.9999998818,38.723898459251,1.00000000079591,0.602440827734959
27499.9999998803,38.6850099816438,1.00000000080615,0.603855105769618
27599.9999998789,38.6455375466701,1.00000000076396,0.604802630005429
27699.9999998774,38.6057022952445,1.00000000074485,0.604897218879916
27799.9999998759,38.5645110166502,1.00000000079658,0.611299292826286
27899.9999998745,38.5206017073712,1.0000000007987,0.613139787339137
27999.999999873,38.4740583747214,1.00000000076859,0.609625412213315
28099.9999998716,38.426374290889,1.00000000078305,0.602802146076825
28199.9999998701,38.377479239398,1.00000000076477,0.602674265065102
28299.9999998687,38.3261927642536,1.00000000080834,0.60387473094901
28399.9999998672,38.2717709649336,1.00000000083182,0.606355761047759
28499.9999998658,38.2140345120256,1.00000000085281,0.608747807841001
28599.9999998643,38.1524343073283,1.0000000008247,0.608585397368592
28699.9999998629,38.0858687020847,1.00000000087551,0.610385787000513
28799.9999998614,38.0142096096168,1.0000000008668,0.612466590366637
28899.9999998599,37.9384844875478,1.00000000085814,0.619048974564099
28999.9999998585,37.8602019939898,1.00000000082484,0.623648692882803
