Time,AGPnorm,Energy,Entropy
0,0,1,2.13561766920965e-19
99.9999999999986,0.00244240131791123,0.999999999999113,0.00860854145894592
199.999999999993,0.00678724316749311,1.00000000000004,0.025158235660885
300,0.01470194772061,0.999999999999089,0.0492550793038816
400.000000000022,0.0233941345595631,1.00000000000019,0.0787364471530044
500.000000000045,0.034248686138291,0.999999999999471,0.115162273878355
600.000000000068,0.0461352108601443,1.00000000000346,0.159603319491002
700.000000000091,0.0575115941621666,1.00000000002152,0.215934625942465
800.000000000113,0.0822055958921369,1.00000000010619,0.284462641741589
900.000000000136,0.141682059588305,1.00000000027123,0.357789364198731
1000.00000000016,0.39266952241621,1.00000000050391,0.422311118355069
1100.0000000001,1.00918699636002,1.00000000070414,0.472126928432982
1200,2.27346419658131,1.00000000081112,0.506514349950816
1299.99999999991,4.31322458219879,1.00000000099778,0.529145828908347
1399.99999999982,7.21625655889607,1.00000000095735,0.541994019771293
1499.99999999973,10.8844095704717,1.00000000112589,0.548388623099932
1599.99999999964,15.1986416440713,1.0000000010256,0.549583470251906
1699.99999999955,19.923712328144,1.00000000104881,0.548263842451899
1799.99999999946,24.8822028918906,1.00000000101806,0.543695516869194
1899.99999999937,29.8302335882673,1.00000000097592,0.537102658008162
1999.99999999928,34.6277778114524,1.00000000096031,0.532092823255307
2099.99999999919,39.090128943088,1.00000000088392,0.522237328339411
2199.99999999909,43.1427604985987,1.00000000082834,0.516389838758436
2299.999999999,46.6910359729089,1.00000000072513,0.514669281790976
2399.99999999891,49.7039357583948,1.00000000070729,0.494977750107259
2499.99999999882,52.1491557062544,1.00000000071659,0.499794007274926
2599.99999999873,54.0862206878276,1.00000000068714,0.510808541649242
2699.99999999864,55.5009006333231,1.00000000058875,0.469782090376026
2799.99999999855,56.3487374025349,1.0000000005468,0.466384165851849
2899.99999999846,56.8262999722894,1.00000000066116,0.524916450580002
2999.99999999837,57.0579751268744,1.00000000064447,0.504690843104459
3099.99999999828,56.8974313502284,1.00000000039892,0.410458565619387
3199.99999999819,56.3163040436582,1.00000000042996,0.441433777306007
3299.99999999809,55.618103858968,1.00000000072519,0.537937794602112
3399.999999998,54.9848907028774,1.00000000077705,0.54761508390986
3499.99999999791,54.2779573400308,1.00000000045897,0.434315708490104
3599.99999999782,53.2983704019064,1.00000000022046,0.322799347155006
3699.99999999773,52.1412601998494,1.00000000049587,0.418761191954342
3799.99999999764,51.0138832288961,1.00000000082345,0.525326402866029
3899.99999999755,50.0304852761019,1.00000000089386,0.559278399125605
3999.99999999746,49.1698694742136,1.00000000074903,0.523210257662933
4099.99999999738,48.2805659319203,1.00000000040551,0.390251617460528
4199.99999999775,47.2730603291685,1.00000000020002,0.272094412958202
4299.99999999811,46.2258936470263,1.00000000034514,0.332063856391451
4399.99999999848,45.1994511278704,1.00000000065533,0.4671930104699
4499.99999999884,44.210776974322,1.0000000007566,0.509560480138965
4599.9999999992,43.2912477606079,1.00000000080171,0.51673905856659
4699.99999999957,42.4639978693392,1.00000000082789,0.549988953415353
4799.99999999993,41.6990972095197,1.00000000066571,0.523327070730923
4900.00000000029,40.9284722047004,1.00000000039991,0.405337827593028
5000.00000000066,40.1479989590917,1.00000000024333,0.284137013688951
5100.00000000102,39.4302431680138,1.00000000025024,0.269068259700933
5200.00000000139,38.809023499781,1.00000000042917,0.35602912639752
5300.00000000175,38.2196871154843,1.00000000069833,0.461886565092704
5400.00000000211,37.6011019875633,1.00000000075625,0.532220129633843
5500.00000000248,36.9698222844879,1.00000000062199,0.510448667722843
5600.00000000284,36.3512829124209,1.00000000058246,0.448770054507001
5700.00000000321,35.7371625390485,1.00000000073329,0.47045147811165
5800.00000000357,35.1256095384705,1.00000000091357,0.538058664213178
5900.00000000393,34.5399044369448,1.00000000087964,0.566066062207857
6000.0000000043,33.9844060246669,1.00000000067766,0.532093086373648
6100.00000000466,33.4438431400439,1.00000000045738,0.438991373438752
6200.00000000502,32.9456473256457,1.00000000022677,0.326403246153202
6300.00000000539,32.5698197762298,1.00000000017896,0.256928012232092
6400.00000000575,32.3650686213537,1.00000000032058,0.275728524215293
6500.00000000612,32.2939131129733,1.00000000049826,0.354639961501981
6600.00000000648,32.2691596155477,1.00000000058384,0.440638071801831
6700.00000000684,32.1988053463852,1.00000000069942,0.495142455590981
6800.00000000721,32.0336756418568,1.00000000074992,0.510489512464937
6900.00000000757,31.7766021984064,1.00000000074646,0.52250321142183
7000.00000000793,31.4605285050645,1.00000000072605,0.540544970906134
7100.0000000083,31.1332485277494,1.00000000052844,0.514295414900482
7200.00000000866,30.8341354916977,1.00000000039898,0.462415184471132
7300.00000000903,30.564489132668,1.00000000046243,0.460901707652749
7400.00000000939,30.286256955529,1.00000000062907,0.489393015221723
7500.00000000975,29.9760943646904,1.00000000069402,0.500959798519477
7600.00000001012,29.6366002497498,1.00000000073015,0.499074930772622
7700.00000001048,29.2729788630734,1.00000000083472,0.522526086740274
7800.00000001084,28.9029943567709,1.00000000092062,0.556408611355122
7900.00000001121,28.5440776868974,1.00000000080453,0.56614809846421
8000.00000001157,28.1960189443782,1.0000000006754,0.538841014603036
8100.00000001194,27.855462206695,1.00000000044901,0.472369365601227
8200.0000000123,27.5494209056837,1.0000000002887,0.386424175269383
8300.00000001266,27.3423994240377,1.00000000018692,0.313766587036242
8400.00000001303,27.3078506987454,1.00000000019183,0.268087014542717
8500.00000001339,27.4839094091795,1.00000000026525,0.270747165282666
8600.00000001376,27.8526334696216,1.00000000037939,0.315984517913703
8700.00000001412,28.339293894438,1.00000000050711,0.372894233731826
8800.00000001448,28.8331194881257,1.00000000063662,0.437145938183547
8900.00000001485,29.2551116165117,1.00000000073191,0.487180208879258
9000.00000001521,29.5738695684276,1.00000000066867,0.513073534564279
9100.00000001557,29.7877235697007,1.00000000068648,0.531560892343377
9200.00000001594,29.9027031992379,1.00000000071107,0.553400674325908
9300.0000000163,29.9383945414762,1.00000000063791,0.552909375717663
9400.00000001667,29.9285166949385,1.00000000058057,0.528461675726452
9500.00000001703,29.8892195495398,1.0000000005642,0.503730398450046
9600.00000001739,29.8138092219404,1.00000000067273,0.506878419132273
9700.00000001776,29.6879275078724,1.0000000007144,0.525919529430414
9800.00000001812,29.5236828045294,1.00000000068263,0.53766318086196
9900.00000001848,29.3554350091519,1.00000000049649,0.52075694659093
10000.0000000188,29.2070754685797,1.00000000047072,0.494829371947584
10100.0000000192,29.0775275644705,1.00000000052074,0.483261221525969
10200.0000000196,28.9548345451862,1.00000000059594,0.484253940789134
10300.0000000199,28.8351079795608,1.00000000058054,0.494424476827417
10400.0000000203,28.7137450403783,1.0000000005978,0.502274330246663
10500.0000000207,28.5879752089722,1.00000000059209,0.512650566311848
10600.000000021,28.4514589744807,1.00000000063475,0.528736567317425
10700.0000000214,28.2991522892952,1.00000000062894,0.542626462091117
10800.0000000218,28.1384097568144,1.00000000055952,0.541140359032992
10900.0000000221,27.9769862424984,1.00000000050675,0.538826629370793
11000.0000000225,27.8149496526947,1.00000000051486,0.537039623369899
11100.0000000229,27.6437435882355,1.00000000057244,0.537664315375993
11200.0000000232,27.4566699395052,1.00000000062814,0.541570764490284
11300.0000000236,27.2521718433886,1.00000000072441,0.543126866200354
11400.0000000239,27.0322995205967,1.00000000077962,0.550985262082668
11500.0000000243,26.8061828300979,1.00000000082736,0.553597084417535
11600.0000000247,26.5851958544985,1.00000000086643,0.560008728438665
11700.000000025,26.3807247839223,1.00000000091886,0.570264259625337
11800.0000000254,26.1979637022967,1.00000000086651,0.573964473968241
11900.0000000258,26.028956591124,1.00000000082933,0.571420008946297
12000.0000000261,25.8574220655213,1.00000000062235,0.547975533463976
12100.0000000265,25.6688686217126,1.00000000048937,0.507535210956033
12200.0000000269,25.4659360870326,1.00000000037878,0.454696766784935
12300.0000000272,25.2753559374112,1.00000000027939,0.398074541776186
12400.0000000276,25.1438255443145,1.00000000021131,0.34270075334848
12500.0000000279,25.129950386911,1.00000000019497,0.303281630862627
12600.0000000283,25.2864226185355,1.0000000002034,0.285269517766371
12700.0000000287,25.6511619334036,1.00000000022334,0.277305529767631
12800.000000029,26.2379683223057,1.00000000028911,0.288937343407988
12900.0000000294,27.0058998519027,1.00000000041766,0.323703679883698
13000.0000000298,27.8986003297158,1.00000000048069,0.36291808684113
13100.0000000301,28.8503331431096,1.00000000060287,0.4047531792586
13200.0000000305,29.7803085127139,1.00000000069967,0.443083707759948
13300.0000000309,30.6398568850189,1.00000000074408,0.477446256018743
13400.0000000312,31.4091902516174,1.00000000074926,0.499033999632398
13500.0000000316,32.0811420048833,1.00000000071755,0.517542439156054
13600.0000000319,32.6520235814319,1.00000000070581,0.540978087240161
13700.0000000323,33.1256864397744,1.0000000006854,0.557470760122022
13800.0000000327,33.5097251964166,1.00000000067839,0.561428628162313
13900.000000033,33.8185641951857,1.00000000062004,0.550599686844048
14000.0000000334,34.0695622592512,1.00000000061657,0.547112086696406
14100.0000000338,34.2664962867057,1.00000000064758,0.563295589096371
14200.0000000341,34.4071527495116,1.00000000065359,0.577082377637698
14300.0000000345,34.4958409390199,1.00000000065622,0.57421986122134
14400.0000000349,34.5432143711953,1.00000000067909,0.563557404531442
14500.0000000352,34.5531752148937,1.00000000061774,0.54653779596527
14600.0000000356,34.534091490807,1.00000000067906,0.537479295258857
14700.0000000359,34.5017718995272,1.00000000051796,0.528329127051501
14800.0000000363,34.4558016036638,1.00000000062304,0.539126341216746
14900.0000000367,34.3883785441428,1.00000000063633,0.545088519000939
15000.000000037,34.303266845873,1.0000000006264,0.548119194174029
15100.0000000374,34.20854445643,1.00000000060357,0.556647756866005
15200.0000000378,34.1017402022626,1.00000000063609,0.557868802143375
15300.0000000381,33.9815311077745,1.00000000064048,0.555004460427134
15400.0000000385,33.8519287817505,1.00000000058424,0.552894978490292
15500.0000000389,33.7175874222481,1.0000000005696,0.548924922251959
15600.0000000392,33.5856884742516,1.00000000052675,0.53530313070884
15700.0000000396,33.461857325663,1.00000000048502,0.530148618935225
15800.0000000399,33.3429172967858,1.0000000005802,0.532037776834904
15900.0000000403,33.2191645533966,1.00000000062666,0.532262098725553
16000.0000000407,33.0867958306871,1.00000000068344,0.538534980052187
16100.000000041,32.9479411940885,1.00000000070583,0.542069301577757
16200.0000000414,32.7992209208964,1.00000000074569,0.552879269648544
16300.0000000418,32.6411781530078,1.00000000067746,0.562432640478199
16400.0000000418,32.4787659368085,1.00000000059475,0.558523049999786
16500.0000000404,32.3201353022723,1.00000000060097,0.552115849798298
16600.0000000389,32.1710934888721,1.00000000051387,0.544419626837362
16700.0000000375,32.039401198501,1.00000000048621,0.529510664166308
16800.000000036,31.9300608553905,1.000000000456,0.516566176304865
16900.0000000346,31.8441031668891,1.00000000048001,0.499988589005994
17000.0000000331,31.7733615630642,1.00000000059843,0.489953345962459
17100.0000000317,31.7072308955308,1.00000000063511,0.493615765321624
17200.0000000302,31.6433156830977,1.00000000060981,0.502654003160641
17300.0000000287,31.5863523592838,1.00000000052618,0.504056552934112
17400.0000000273,31.5383799521645,1.00000000055979,0.515144125729888
17500.0000000258,31.493299590229,1.00000000057052,0.534481297203814
17600.0000000244,31.4485927884352,1.00000000060546,0.546342898180991
17700.0000000229,31.3970268107037,1.00000000063657,0.553551567035184
17800.0000000215,31.3334205693171,1.00000000065909,0.546194125084669
17900.00000002,31.2615020560652,1.00000000058434,0.537719566603704
18000.0000000186,31.1874305925671,1.00000000058393,0.540036201043892
18100.0000000171,31.1133903552122,1.00000000061664,0.548707340596654
18200.0000000156,31.0344981301571,1.00000000063345,0.557264740900881
18300.0000000142,30.9501618922176,1.00000000057389,0.571394330598598
18400.0000000127,30.8653910254686,1.00000000059677,0.577467943031153
18500.0000000113,30.7790402166962,1.00000000064069,0.581242538397827
18600.0000000098,30.6857040857595,1.00000000063069,0.584248514744413
18700.0000000084,30.5844075608889,1.00000000064311,0.584668298394361
18800.0000000069,30.4756806701364,1.00000000065801,0.586998749799043
18900.0000000055,30.3599006776559,1.00000000067056,0.588070281564242
19000.000000004,30.2424754614137,1.0000000005633,0.590259177780209
19100.0000000026,30.1285673475521,1.00000000052293,0.579403884836372
19200.0000000011,30.0198873686335,1.00000000057724,0.571833954945263
19299.9999999996,29.9101922240604,1.00000000065362,0.570919239870274
19399.9999999982,29.7959652700331,1.00000000064688,0.560650917960708
19499.9999999967,29.6815702824091,1.00000000057394,0.551555684904412
19599.9999999953,29.5712266290089,1.00000000054541,0.557004611353231
19699.9999999938,29.4642278957507,1.00000000059491,0.562191361691738
19799.9999999924,29.3569381364046,1.00000000062352,0.564104514425628
19899.9999999909,29.250463140371,1.00000000056473,0.566011657414005
19999.9999999895,29.1458243756986,1.00000000057626,0.574176338642493
20099.999999988,29.042362784817,1.00000000060222,0.569098883805837
20199.9999999865,28.9367963461032,1.00000000069662,0.563724605836519
20299.9999999851,28.8249960695484,1.00000000067975,0.57565189555851
20399.9999999836,28.7077974767545,1.00000000064344,0.572449834560709
20499.9999999822,28.5878619214526,1.00000000060119,0.558935932409369
20599.9999999807,28.4667474584556,1.0000000006218,0.559412936842236
20699.9999999793,28.3429146931006,1.00000000069076,0.579154853687767
20799.9999999778,28.2158580884073,1.00000000071508,0.596994505490452
20899.9999999764,28.0873335326624,1.00000000062726,0.597745933719077
20999.9999999749,27.9594023208666,1.00000000058596,0.586245334735484
21099.9999999734,27.8340558318899,1.00000000054919,0.578607679599765
21199.999999972,27.7096401511649,1.00000000060708,0.58492864852516
21299.9999999705,27.5834992599914,1.00000000066519,0.591960362870053
21399.9999999691,27.4561523180117,1.00000000065379,0.603302339633
21499.9999999676,27.3295227063923,1.00000000058798,0.593222477928037
21599.9999999662,27.2041027133537,1.00000000047643,0.571141430545919
21699.9999999647,27.0800515658077,1.00000000054602,0.575515464094222
21799.9999999633,26.9567988544624,1.00000000057414,0.587816011216554
21899.9999999618,26.8345222616096,1.00000000055595,0.587712817791478
21999.9999999603,26.7134996370719,1.00000000052911,0.582140301182217
22099.9999999589,26.5941193339137,1.00000000056901,0.58112082630148
22199.9999999574,26.4766768122163,1.00000000059991,0.59425605975633
22299.999999956,26.3629528226116,1.00000000061502,0.591653958831632
22399.9999999545,26.2544041411156,1.00000000066825,0.581834877284796
22499.9999999531,26.1539413666413,1.0000000006968,0.591499550614206
22599.9999999516,26.065782829338,1.00000000072373,0.600809954406052
22699.9999999502,25.9933902963259,1.00000000076255,0.59977074304674
22799.9999999487,25.9449089558093,1.00000000079497,0.598376747859846
22899.9999999473,25.9209140681733,1.00000000079682,0.60550510708823
22999.9999999458,25.933389046903,1.00000000083472,0.611007687104084
23099.9999999443,25.982872038767,1.00000000090942,0.614961759769489
23199.9999999429,26.080800229143,1.000000000899,0.620590060125475
23299.9999999414,26.2234764668696,1.00000000091175,0.617834638288802
23399.99999994,26.4139065462107,1.00000000091523,0.614157997674381
23499.9999999385,26.6527782497642,1.00000000087424,0.607482516779246
23599.9999999371,26.9317079910409,1.00000000086642,0.60098083509725
23699.9999999356,27.2476778082881,1.00000000088196,0.590958115283879
23799.9999999342,27.5694875359952,1.00000000084453,0.584749993837845
23899.9999999327,27.8895872765267,1.00000000071631,0.575502994858116
23999.9999999312,28.1706439258198,1.0000000006507,0.562580189628629
24099.9999999298,28.4048541261072,1.00000000059425,0.54215877221922
24199.9999999283,28.5698498219389,1.00000000051685,0.517842239980786
24299.9999999269,28.663271652113,1.00000000045271,0.491752743838967
24399.9999999254,28.6892454891746,1.00000000038626,0.461608672324068
24499.999999924,28.6495881105955,1.00000000035186,0.432130525740464
24599.9999999225,28.5724252423438,1.0000000003149,0.403482688176487
24699.9999999211,28.4692399551152,1.00000000025548,0.374671337068454
24799.9999999196,28.3783047295752,1.00000000022457,0.34888933064696
24899.9999999181,28.3248901009073,1.00000000022286,0.327282673342471
24999.9999999167,28.3455718160682,1.00000000019905,0.306200133631023
25099.9999999152,28.4733497559255,1.00000000020798,0.293407252408428
25199.9999999138,28.7400363568176,1.00000000020388,0.28452204545796
25299.9999999123,29.1670917536759,1.0000000001903,0.276868305736163
25399.9999999109,29.7875438840626,1.00000000023254,0.284719672836885
25499.9999999094,30.5867600803157,1.00000000026348,0.289831365429417
25599.999999908,31.6034559417128,1.0000000003293,0.299877092902006
25699.9999999065,32.7749934375015,1.00000000036844,0.313788036049348
25799.9999999051,34.1383162341203,1.00000000041925,0.330858134115633
25899.9999999036,35.6122531437876,1.0000000004923,0.350898329000654
25999.9999999021,37.1982006729169,1.00000000057917,0.369326328402949
26099.9999999007,38.8347300117602,1.00000000057697,0.387777511127164
26199.9999998992,40.4991303429914,1.00000000067942,0.402470661247039
26299.9999998978,42.1599483237878,1.00000000071209,0.423657078001642
26399.9999998963,43.774303977834,1.00000000073303,0.440733638986174
26499.9999998949,45.3588392282722,1.00000000072067,0.45103506829953
26599.9999998934,46.8558486581245,1.00000000077055,0.463302908082593
26699.999999892,48.290538251867,1.00000000073171,0.478703485502799
26799.9999998905,49.6307917375042,1.00000000075313,0.498739749231323
26899.999999889,50.8960411689268,1.00000000068782,0.505230649903402
26999.9999998876,52.0730384190502,1.00000000071677,0.510130429424713
27099.9999998861,53.1553862132399,1.00000000072073,0.518697669447748
27199.9999998847,54.1596202905673,1.00000000073536,0.532903621815927
27299.9999998832,55.0734500198209,1.00000000066293,0.546027083325786
27399.9999998818,55.9274342491051,1.00000000069975,0.551841637756491
27499.9999998803,56.7038157380097,1.0000000006488,0.55353515875778
27599.9999998789,57.4205809855383,1.00000000065101,0.555622946643202
27699.9999998774,58.0675821499237,1.00000000067148,0.564647355569668
27799.9999998759,58.6512248647419,1.0000000006879,0.574209355236247
27899.9999998745,59.1796390582248,1.00000000068942,0.58399586026866
27999.999999873,59.6524132973302,1.00000000067732,0.581740272651371
28099.9999998716,60.0897856274904,1.00000000065356,0.581313784024868
28199.9999998701,60.4762679929147,1.00000000064613,0.574974722919555
28299.9999998687,60.8232796683941,1.00000000069914,0.587384624525499
28399.9999998672,61.1084083150287,1.00000000074481,0.598645294894784
28499.9999998658,61.3486829317003,1.00000000066682,0.60596941270986
28599.9999998643,61.5484600354291,1.00000000066268,0.606481274926605
28699.9999998629,61.7233918511764,1.00000000061821,0.591784350458293
28799.9999998614,61.8788730548241,1.00000000063528,0.583163486957047
28899.9999998599,62.0036033954807,1.00000000064414,0.584306158853701
28999.9999998585,62.0923597532243,1.00000000074722,0.597198252515784
