Time,AGPnorm,Energy,Entropy
0,0,1,-7.54864574006111e-17
99.9999999999986,0.00156959880294783,0.999999999999522,0.00497396766671973
199.999999999993,0.0109164634285534,1.0000000000017,0.0145501950200531
300,0.021582106339794,1.00000000000302,0.027137190748063
400.000000000022,0.0326851644412703,1.00000000000144,0.0429281744345649
500.000000000045,0.046112548662893,0.999999999998915,0.0619005845220962
600.000000000068,0.063793067579362,1.00000000000044,0.0840185268684359
700.000000000091,0.0797338611574486,1.00000000000281,0.109921666281137
800.000000000113,0.0961104327735653,1.00000000000328,0.140380632876364
900.000000000136,0.113401485978009,1.00000000000726,0.178286677528167
1000.00000000016,0.129194204792768,1.000000000062,0.226161528926477
1100.0000000001,0.149576757495368,1.00000000025816,0.282723853659875
1200,0.197957319524561,1.00000000058135,0.338615616807995
1299.99999999991,0.306221859811201,1.00000000095286,0.388615632578686
1399.99999999982,0.551040647965147,1.00000000136325,0.430686421971011
1499.99999999973,1.04798012080753,1.00000000158318,0.466179214240879
1599.99999999964,1.88305389053342,1.00000000186032,0.495812074690139
1699.99999999955,3.11350628809705,1.00000000193527,0.520657194698779
1799.99999999946,4.78879526306391,1.00000000212712,0.539433564300012
1899.99999999937,6.8860854271172,1.00000000219938,0.554017633589789
1999.99999999928,9.3359237023001,1.00000000227652,0.566230416463447
2099.99999999919,12.1014381463084,1.00000000229799,0.575849373736444
2199.99999999909,15.1443711564217,1.00000000217675,0.581789376467658
2299.999999999,18.3658076471633,1.00000000227694,0.585001447285774
2399.99999999891,21.6383912749301,1.00000000207826,0.58870702559553
2499.99999999882,24.8945793468062,1.00000000207842,0.590453181455693
2599.99999999873,28.1062194045471,1.00000000203261,0.590369987273396
2699.99999999864,31.2171592345708,1.00000000194893,0.588967193377024
2799.99999999855,34.1448283433148,1.00000000191989,0.587920363645362
2899.99999999846,36.8388468659806,1.00000000180879,0.587478259397765
2999.99999999837,39.2915192625527,1.00000000170247,0.584921000814962
3099.99999999828,41.5031788269139,1.00000000171313,0.580435585966329
3199.99999999819,43.453624308778,1.00000000163489,0.578152198315038
3299.99999999809,45.1185528533023,1.00000000151238,0.577661324757595
3399.999999998,46.4988554606231,1.00000000145444,0.576374459512019
3499.99999999791,47.6176249982287,1.00000000141585,0.573507789524765
3599.99999999782,48.4899427408806,1.00000000134928,0.574095192481286
3699.99999999773,49.1187708024699,1.00000000134432,0.569469636873298
3799.99999999764,49.526335860642,1.00000000131411,0.570303728295495
3899.99999999755,49.7136674908224,1.00000000130177,0.572541560507644
3999.99999999746,49.7452231066973,1.00000000116864,0.563814588955473
4099.99999999738,49.6043054009278,1.00000000123589,0.565181158929864
4199.99999999775,49.3591111207918,1.00000000129939,0.566383259935745
4299.99999999811,48.9825576211487,1.00000000110886,0.543579279912196
4399.99999999848,48.5307508087403,1.00000000153757,0.579527354386342
4499.99999999884,48.0212760670271,1.00000000102813,0.534006262984957
4599.9999999992,47.4270889758352,1.00000000140032,0.562205954639606
4699.99999999957,46.8363936876781,1.00000000144516,0.557442630389057
4799.99999999993,46.1941611911883,1.00000000095812,0.509926659395288
4900.00000000029,45.5139856888809,1.00000000173958,0.574940055410146
5000.00000000066,44.8625646292038,1.00000000148655,0.542440189450707
5100.00000000102,44.1838060493628,1.00000000097515,0.49524605125103
5200.00000000139,43.4813431813126,1.00000000156024,0.55029465902159
5300.00000000175,42.8117086390228,1.0000000016565,0.554410344100521
5400.00000000211,42.1456514014699,1.00000000105993,0.49107135690288
5500.00000000248,41.4613254967314,1.0000000011984,0.499863387314356
5600.00000000284,40.7918099324641,1.00000000173631,0.555489969204934
5700.00000000321,40.151293053511,1.00000000141809,0.521421195533418
5800.00000000357,39.5166322649449,1.0000000010998,0.485616867825073
5900.00000000393,38.8808200752672,1.00000000121686,0.504498260484704
6000.0000000043,38.2590465131323,1.00000000159076,0.533495069423274
6100.00000000466,37.6601840787343,1.00000000153301,0.531461010269696
6200.00000000502,37.0773456164908,1.00000000113263,0.487343760728785
6300.00000000539,36.506588141711,1.0000000011446,0.503504723551963
6400.00000000575,35.9470368644169,1.00000000132619,0.518456598718503
6500.00000000612,35.4033432087763,1.00000000135815,0.522443237027244
6600.00000000648,34.8756672397877,1.0000000015001,0.527147713900711
6700.00000000684,34.3644691668791,1.0000000011782,0.499049848616913
6800.00000000721,33.8728774180281,1.00000000110339,0.501038593633003
6900.00000000757,33.3953592878573,1.00000000137539,0.530166313915101
7000.00000000793,32.9333326251378,1.00000000118362,0.510289785344342
7100.0000000083,32.4880417333026,1.0000000014158,0.515342024121622
7200.00000000866,32.0539414255759,1.00000000155007,0.527181300181737
7300.00000000903,31.6336634720893,1.00000000125639,0.507014444331815
7400.00000000939,31.2354048779739,1.00000000117172,0.499152324617849
7500.00000000975,30.8522085554336,1.00000000147574,0.52821318870608
7600.00000001012,30.4771983951402,1.00000000131651,0.532783409828137
7700.00000001048,30.1204392950572,1.00000000110804,0.497726443460768
7800.00000001084,29.7800973586093,1.00000000139616,0.510611571047193
7900.00000001121,29.4468483076702,1.00000000161951,0.531044616468728
8000.00000001157,29.1204028912132,1.00000000137792,0.507888771961232
8100.00000001194,28.8130500885234,1.00000000120535,0.502711508359077
8200.0000000123,28.5221453826271,1.00000000128317,0.519054599925169
8300.00000001266,28.2391027506571,1.00000000145653,0.526027148650676
8400.00000001303,27.9590862290127,1.00000000133459,0.526674901969521
8500.00000001339,27.6935468240248,1.0000000011321,0.516310840160471
8600.00000001376,27.44388097093,1.00000000128351,0.510057916612745
8700.00000001412,27.2018025135496,1.00000000144651,0.531506632924424
8800.00000001448,26.964852001087,1.00000000143619,0.529172810171182
8900.00000001485,26.7354204582483,1.00000000129714,0.518401767599033
9000.00000001521,26.5218374918123,1.00000000128123,0.514530097810308
9100.00000001557,26.3193667485254,1.00000000134544,0.535302528873907
9200.00000001594,26.1250430748092,1.0000000012525,0.528812224843918
9300.0000000163,25.9379917461541,1.0000000013716,0.526582910916363
9400.00000001667,25.7542288210026,1.0000000014068,0.525468174159071
9500.00000001703,25.5744160356632,1.00000000136765,0.548593818460306
9600.00000001739,25.4011381634401,1.00000000130218,0.537188721265027
9700.00000001776,25.2376216306574,1.00000000124291,0.524926865081188
9800.00000001812,25.082529489455,1.00000000142021,0.541428657691497
9900.00000001848,24.932067090878,1.00000000136509,0.539431978979048
10000.0000000188,24.7855057436629,1.00000000130456,0.533426490801441
10100.0000000192,24.6519588738915,1.00000000126941,0.531346555712281
10200.0000000196,24.5311073144897,1.00000000133733,0.531486466996409
10300.0000000199,24.409313539196,1.00000000144722,0.543756721100689
10400.0000000203,24.289131687367,1.00000000129668,0.536581157080539
10500.0000000207,24.1835887017514,1.00000000117525,0.522520274913945
10600.000000021,24.0865204651412,1.00000000137254,0.536553368008698
10700.0000000214,23.9864444440885,1.00000000153788,0.542498684993919
10800.0000000218,23.8778174810596,1.00000000141398,0.557972326834068
10900.0000000221,23.7666258670356,1.00000000137088,0.561011959582273
11000.0000000225,23.6607138577567,1.00000000127081,0.547339170039614
11100.0000000229,23.561329222747,1.0000000013758,0.551532108671659
11200.0000000232,23.4674047470874,1.00000000141014,0.550710060811241
11300.0000000236,23.3780042027746,1.0000000013776,0.543728234683142
11400.0000000239,23.2946956759426,1.00000000132433,0.535240153297701
11500.0000000243,23.2198818462959,1.00000000131871,0.541963861666161
11600.0000000247,23.1543595681208,1.00000000140023,0.54710384999918
11700.000000025,23.0948297880889,1.00000000138574,0.551475879224642
11800.0000000254,23.0368234879969,1.00000000137249,0.546065119472248
11900.0000000258,22.9768465298874,1.00000000142786,0.549311219715641
12000.0000000261,22.921909305046,1.00000000130878,0.542700741739834
12100.0000000265,22.877739899483,1.00000000122051,0.53634420151171
12200.0000000269,22.8386695486082,1.00000000139918,0.55470807737069
12300.0000000272,22.7959979535317,1.00000000135044,0.56784268942932
12400.0000000276,22.7506532363678,1.00000000144512,0.557040328421817
12500.0000000279,22.7004330035032,1.00000000142905,0.563293944364703
12600.0000000283,22.6449956394731,1.00000000143027,0.56512592105721
12700.0000000287,22.5824146868413,1.00000000147262,0.582416744645805
12800.000000029,22.5146848632612,1.00000000142404,0.58344693569865
12900.0000000294,22.447679731335,1.00000000132877,0.576486351211888
13000.0000000298,22.3872752510106,1.00000000139555,0.570340687486429
13100.0000000301,22.3353493270714,1.00000000140369,0.56200801138492
13200.0000000305,22.2894364815939,1.00000000133628,0.548751190707514
13300.0000000309,22.2500101920948,1.00000000139181,0.549630272066451
13400.0000000312,22.2180737592048,1.00000000137764,0.555028817364336
13500.0000000316,22.193376993406,1.00000000134976,0.563551169973645
13600.0000000319,22.1742923892861,1.00000000139975,0.565875540414877
13700.0000000323,22.1536835804809,1.00000000140125,0.565519987709461
13800.0000000327,22.1316055387836,1.00000000147633,0.562962818633639
13900.000000033,22.114429606239,1.00000000128521,0.55447825069081
14000.0000000334,22.1036873677584,1.00000000131459,0.552065731780683
14100.0000000338,22.0954769495286,1.00000000140412,0.55919662487176
14200.0000000341,22.0883376270831,1.00000000134412,0.56901821159171
14300.0000000345,22.0825764195206,1.00000000134593,0.574262186113184
14400.0000000349,22.076005868287,1.00000000146768,0.583054750621366
14500.0000000352,22.0659186190695,1.00000000150233,0.59349120717472
14600.0000000356,22.0497469464419,1.00000000141845,0.591505095643229
14700.0000000359,22.0315057954943,1.00000000134035,0.589603771597778
14800.0000000363,22.0124325506717,1.00000000139623,0.593134824852365
14900.0000000367,21.9936169264329,1.00000000144094,0.590028009085583
15000.000000037,21.9702534507745,1.00000000147706,0.588522418557938
15100.0000000374,21.9371115014024,1.00000000161561,0.59007325959724
15200.0000000378,21.8940086341967,1.00000000164124,0.592144645387713
15300.0000000381,21.843931542036,1.00000000155814,0.602294220962217
15400.0000000385,21.7915071181112,1.00000000142217,0.602254687594164
15500.0000000389,21.7416468587057,1.00000000134724,0.590335643531743
15600.0000000392,21.6985607060895,1.00000000136978,0.586520565344114
15700.0000000396,21.6641602101116,1.00000000148938,0.583767916055353
15800.0000000399,21.6364977419278,1.00000000137018,0.581681493736005
15900.0000000403,21.6157280373758,1.00000000144149,0.581698326985727
16000.0000000407,21.6035716111878,1.00000000141969,0.577298831908667
16100.000000041,21.5961740825135,1.00000000141791,0.581008336678344
16200.0000000414,21.5951924499257,1.00000000138155,0.586646522745977
16300.0000000418,21.5991129871799,1.0000000015765,0.588242888780035
16400.0000000418,21.6021178506815,1.00000000145892,0.582842593944014
16500.0000000404,21.6052200607803,1.00000000148625,0.584581005496506
16600.0000000389,21.6113642271922,1.00000000139749,0.575669104585792
16700.0000000375,21.6205297811398,1.00000000150627,0.570764393711044
16800.000000036,21.6332652155526,1.00000000142653,0.57726114324828
16900.0000000346,21.6493008624879,1.00000000138465,0.586897768357465
17000.0000000331,21.6676381743151,1.00000000151417,0.591358563836522
17100.0000000317,21.6853843151731,1.00000000145196,0.58956054533431
17200.0000000302,21.6980446242149,1.00000000166367,0.589536189099365
17300.0000000287,21.7084445500389,1.00000000145393,0.578794210424883
17400.0000000273,21.7168630301488,1.00000000155866,0.588156224633874
17500.0000000258,21.7264038166849,1.00000000147126,0.604298622314844
17600.0000000244,21.7371397347292,1.00000000145983,0.608407352598646
17700.0000000229,21.7444013535109,1.00000000155473,0.61261544053337
17800.0000000215,21.7478092782844,1.00000000150181,0.630261845239896
17900.00000002,21.7483982211725,1.00000000148826,0.627793409335566
18000.0000000186,21.7462515969175,1.00000000154511,0.624116036140056
18100.0000000171,21.7415430106532,1.00000000154358,0.630815273100923
18200.0000000156,21.7340624442032,1.0000000016091,0.640150630241213
18300.0000000142,21.72322624278,1.00000000148379,0.640881044536027
18400.0000000127,21.7084148062958,1.00000000146708,0.643512459960793
18500.0000000113,21.6915859373109,1.00000000146365,0.636100945923379
18600.0000000098,21.6710479191844,1.00000000154249,0.635934171987219
18700.0000000084,21.6449015918779,1.00000000151341,0.639642409064493
18800.0000000069,21.6143015435617,1.00000000147956,0.635364296998412
18900.0000000055,21.5770755796128,1.00000000159622,0.640505798809375
19000.000000004,21.5353288142837,1.00000000157885,0.631745926847861
19100.0000000026,21.4892422140572,1.00000000162443,0.634656353272644
19200.0000000011,21.4421495612168,1.00000000145198,0.637705690827105
19299.9999999996,21.3978974573112,1.00000000146077,0.639169548126619
19399.9999999982,21.357452674741,1.00000000147413,0.639964161042081
19499.9999999967,21.3230986817481,1.00000000141964,0.637717404865316
19599.9999999953,21.2951368232201,1.00000000147111,0.628227493953507
19699.9999999938,21.2732822975899,1.00000000151307,0.626181534061821
19799.9999999924,21.2570100252488,1.00000000147755,0.622417857004567
19899.9999999909,21.2481770008307,1.00000000146642,0.608880435922462
19999.9999999895,21.2464591361077,1.00000000140624,0.595834986439833
20099.999999988,21.2503596762185,1.00000000159686,0.596923573755253
20199.9999999865,21.2592378420106,1.00000000150751,0.602585001274411
20299.9999999851,21.2727120941004,1.00000000152348,0.603394265289704
20399.9999999836,21.2885011686789,1.00000000156642,0.610403010077546
20499.9999999822,21.3045870281755,1.00000000154871,0.611159300541349
20599.9999999807,21.3223633452843,1.00000000150418,0.604281732534729
20699.9999999793,21.3391054603773,1.00000000153814,0.603470088219611
20799.9999999778,21.3596921737422,1.00000000147212,0.596934951274283
20899.9999999764,21.3836710942527,1.0000000014285,0.593099043764453
20999.9999999749,21.4107907209705,1.00000000155353,0.597357709088111
21099.9999999734,21.4385338028732,1.00000000155667,0.603730190927033
21199.999999972,21.4680812663999,1.00000000153379,0.604694441458936
21299.9999999705,21.4970971345595,1.00000000163832,0.602929916405857
21399.9999999691,21.5248013146112,1.000000001583,0.610926902056687
21499.9999999676,21.5528740644177,1.00000000157517,0.609525922271553
21599.9999999662,21.5788980964844,1.00000000152164,0.607076774703598
21699.9999999647,21.5999260054915,1.00000000168331,0.61374090606619
21799.9999999633,21.6134306509259,1.00000000164219,0.613547608231412
21899.9999999618,21.6247202082,1.00000000150041,0.616327197460169
21999.9999999603,21.6364423233455,1.00000000154826,0.630561968002345
22099.9999999589,21.6499542476184,1.00000000157062,0.635122776652776
22199.9999999574,21.6631550774251,1.00000000154564,0.636870726307615
22299.999999956,21.675885957986,1.0000000016839,0.636681713747987
22399.9999999545,21.6856073112872,1.00000000167,0.63852467381368
22499.9999999531,21.6951096089648,1.00000000148568,0.635981662524087
22599.9999999516,21.7067802415012,1.000000001616,0.637561458895456
22699.9999999502,21.718430115369,1.00000000166057,0.638285249730072
22799.9999999487,21.7279291963386,1.00000000164263,0.640261770815126
22899.9999999473,21.7348691529948,1.00000000166681,0.634711816688196
22999.9999999458,21.736331336546,1.00000000167736,0.633094590775136
23099.9999999443,21.7355691560978,1.00000000159272,0.640718158621658
23199.9999999429,21.733464180509,1.00000000165466,0.639077539471574
23299.9999999414,21.7315900250362,1.00000000161053,0.639620578792324
23399.99999994,21.7293582166815,1.00000000152717,0.642184551731838
23499.9999999385,21.7267662616845,1.00000000164503,0.646566589084954
23599.9999999371,21.7251065693232,1.00000000153804,0.639093354269667
23699.9999999356,21.7235558715838,1.00000000158537,0.64419999121484
23799.9999999342,21.7191122557996,1.00000000162067,0.649737758220161
23899.9999999327,21.7108152021719,1.00000000159596,0.649373652250896
23999.9999999312,21.6980910340392,1.00000000168638,0.652681256094618
24099.9999999298,21.6829510789224,1.00000000170353,0.650306597531994
24199.9999999283,21.6673210466589,1.00000000157999,0.648888638413864
24299.9999999269,21.6503000420232,1.00000000158932,0.651406110189389
24399.9999999254,21.6310163621327,1.00000000156653,0.649726008110363
24499.999999924,21.6117476388699,1.00000000167372,0.656631512658042
24599.9999999225,21.589949952964,1.00000000161321,0.652772107823543
24699.9999999211,21.567894305789,1.00000000153489,0.651677520814163
24799.9999999196,21.5451057272374,1.00000000157864,0.649951057780954
24899.9999999181,21.5195910257695,1.00000000165298,0.649153990020433
24999.9999999167,21.4905533544428,1.00000000164869,0.658080684068844
25099.9999999152,21.4584697005376,1.00000000168657,0.65629504501311
25199.9999999138,21.4243722177743,1.00000000167714,0.656531351581331
25299.9999999123,21.3883128925383,1.00000000174209,0.658480547652828
25399.9999999109,21.349295273088,1.00000000166661,0.657116458537934
25499.9999999094,21.3089222085142,1.00000000161466,0.655561059206767
25599.999999908,21.2676719776336,1.00000000167488,0.656811183776388
25699.9999999065,21.2259676488839,1.00000000161948,0.654309189123852
25799.9999999051,21.1861167216404,1.00000000163073,0.648399451327668
25899.9999999036,21.1489880254254,1.00000000151702,0.635233206958095
25999.9999999021,21.1160708313017,1.00000000158853,0.623844835188136
26099.9999999007,21.0885862502079,1.00000000157032,0.627875886853004
26199.9999998992,21.0675260587202,1.00000000159867,0.62584268487354
26299.9999998978,21.0514490791623,1.0000000016696,0.625653921744011
26399.9999998963,21.0397991736849,1.000000001633,0.632855463814803
26499.9999998949,21.0337310897977,1.00000000153404,0.623601300382135
26599.9999998934,21.0343460685335,1.00000000163021,0.61319880029137
26699.999999892,21.041168399555,1.00000000155504,0.605037923868722
26799.9999998905,21.0542399104445,1.00000000152726,0.597401899177967
26899.999999889,21.0726003341949,1.00000000173735,0.599123993750733
26999.9999998876,21.0938469412187,1.00000000164786,0.601355924919195
27099.9999998861,21.1190577113796,1.00000000166357,0.596762703156276
27199.9999998847,21.1466116792406,1.00000000170432,0.605536901781568
27299.9999998832,21.1734267415162,1.00000000180683,0.607317061703795
27399.9999998818,21.2015699036049,1.00000000172373,0.601068575671324
27499.9999998803,21.2315839803935,1.00000000170598,0.597106428387441
27599.9999998789,21.2618594721723,1.0000000017502,0.593086161186482
27699.9999998774,21.2957276232583,1.00000000166325,0.595359143026415
27799.9999998759,21.3333714217066,1.00000000173031,0.602964056332972
27899.9999998745,21.3700950509748,1.00000000169884,0.594160597215823
27999.999999873,21.4078374890607,1.00000000165059,0.59782730332671
28099.9999998716,21.4487176881321,1.00000000153645,0.59583824492856
28199.9999998701,21.4929841295043,1.00000000167385,0.607785678486899
28299.9999998687,21.5375317193201,1.0000000017252,0.612156781622248
28399.9999998672,21.5813699618048,1.00000000166097,0.618407541714093
28499.9999998658,21.6246570827673,1.00000000167425,0.625106680939442
28599.9999998643,21.6688874322926,1.000000001698,0.621019018803972
28699.9999998629,21.7114434189758,1.00000000175769,0.617974930953291
28799.9999998614,21.7490828552101,1.00000000183767,0.618243696317501
28899.9999998599,21.7830333957454,1.00000000161091,0.622490123112988
28999.9999998585,21.8132777844805,1.0000000017245,0.637992759714066
