Time,AGPnorm,Energy,Entropy
0,0,1,-1.11719499320544e-17
99.9999999999986,4.35820638646647e-05,0.999999999998733,0.00166960779405406
199.999999999993,0.00375597205448447,1.00000000000073,0.00265772273002391
300,0.00921206404519461,0.999999999999045,0.0046317953793661
400.000000000022,0.012694300016563,0.999999999999677,0.00792297708288325
500.000000000045,0.0155699080855927,1.00000000000027,0.0105382622808338
600.000000000068,0.0224186730313347,0.999999999998728,0.0146082075480513
700.000000000091,0.0273923306950495,1.00000000000043,0.0187004077630111
800.000000000113,0.0345386133448569,0.999999999999496,0.0229192493357807
900.000000000136,0.0431782767367887,0.999999999999352,0.0282034486868566
1000.00000000016,0.0502838347407177,1.00000000000032,0.0330778698344077
1100.0000000001,0.0598963961775469,0.999999999998909,0.0387393792542319
1200,0.0697850899484798,1.00000000000008,0.0447999276794599
1299.99999999991,0.0798862718373205,0.999999999999859,0.0507997575035175
1399.99999999982,0.0911287047692208,0.999999999999199,0.0577333437479149
1499.99999999973,0.10134515771121,1.00000000000021,0.0645833956413987
1599.99999999964,0.112765789264963,0.999999999999214,0.0719357044626757
1699.99999999955,0.125471063553681,0.999999999999767,0.0799946100101271
1799.99999999946,0.137788007508535,1.00000000000003,0.0880621216257049
1899.99999999937,0.150431315318561,0.999999999999171,0.0970562854604751
1999.99999999928,0.162539330301342,1.00000000000001,0.106384219281501
2099.99999999919,0.174848972423899,0.999999999999608,0.116269713825729
2199.99999999909,0.188416487210556,0.99999999999969,0.127355104314804
2299.999999999,0.201496895351369,1.00000000000022,0.13893953764875
2399.99999999891,0.214248240379259,0.999999999999978,0.151984775530667
2499.99999999882,0.226726034414408,1.00000000000264,0.166518539524379
2599.99999999873,0.239659844952252,1.00000000000936,0.18245731576507
2699.99999999864,0.252864258551691,1.00000000002392,0.200728879615817
2799.99999999855,0.264129016134321,1.00000000005381,0.219865682700219
2899.99999999846,0.281239681546509,1.0000000000928,0.239935971803246
2999.99999999837,0.292446693794859,1.00000000014854,0.260351355640162
3099.99999999828,0.316878642892448,1.00000000021577,0.280142160266621
3199.99999999819,0.35565290270792,1.00000000028034,0.30010098883804
3299.99999999809,0.398118831310994,1.00000000036681,0.319124053827388
3399.999999998,0.494257392925712,1.00000000044208,0.337419766157091
3499.99999999791,0.615696996166003,1.00000000053244,0.355536869489287
3599.99999999782,0.800814268741536,1.00000000061416,0.372562774151645
3699.99999999773,1.08248209657955,1.00000000067059,0.389075607125739
3799.99999999764,1.42967745412956,1.00000000076909,0.404775096355086
3899.99999999755,1.92149154357681,1.00000000085536,0.419240350047299
3999.99999999746,2.54039086024092,1.00000000087492,0.433581615473884
4099.99999999738,3.30049078236237,1.00000000092239,0.446843339657154
4199.99999999775,4.26223460099863,1.00000000103009,0.458995960398881
4299.99999999811,5.38158734181251,1.00000000103908,0.470927032294153
4399.99999999848,6.71276555679743,1.00000000109678,0.481738734695648
4499.99999999884,8.26243590381545,1.00000000115864,0.491809704475923
4599.9999999992,10.0070991563187,1.0000000011498,0.501519024495393
4699.99999999957,11.9981263622594,1.00000000117042,0.510077664711396
4799.99999999993,14.201154304324,1.00000000121435,0.518241611302128
4900.00000000029,16.621909424843,1.00000000121743,0.525956052839253
5000.00000000066,19.2794227939751,1.00000000121062,0.532854445597644
5100.00000000102,22.1355667274958,1.00000000126378,0.539361854837329
5200.00000000139,25.2070450366893,1.00000000124389,0.545259432228924
5300.00000000175,28.4796788886047,1.00000000127388,0.550543354367677
5400.00000000211,31.9267173732803,1.00000000126152,0.555797308205267
5500.00000000248,35.5589213486976,1.00000000129979,0.560172127829905
5600.00000000284,39.3482615339977,1.00000000126063,0.564477545410581
5700.00000000321,43.2783216515788,1.00000000128325,0.568504844546619
5800.00000000357,47.3477003742157,1.00000000127583,0.571832130711221
5900.00000000393,51.5242848177693,1.00000000125046,0.575248259343146
6000.0000000043,55.8003240368241,1.00000000128592,0.577886577118098
6100.00000000466,60.1654501473212,1.00000000125631,0.580247301728539
6200.00000000502,64.5867139993534,1.00000000122185,0.582937163581982
6300.00000000539,69.0643675970705,1.00000000119896,0.584911460576577
6400.00000000575,73.5773478251257,1.00000000117188,0.586734445578058
6500.00000000612,78.1032468261714,1.00000000120768,0.588459163396235
6600.00000000648,82.6436805019107,1.00000000119974,0.589479423027437
6700.00000000684,87.1665071171452,1.00000000117655,0.591204743115921
6800.00000000721,91.6666797326965,1.00000000114962,0.592105486296517
6900.00000000757,96.137614998341,1.00000000115341,0.592666443157578
7000.00000000793,100.551436634066,1.00000000110659,0.593763581551962
7100.0000000083,104.914215623033,1.00000000112009,0.594184363645781
7200.00000000866,109.202921637209,1.00000000111497,0.594593799414244
7300.00000000903,113.407546867786,1.00000000107571,0.595235047243137
7400.00000000939,117.532604837194,1.0000000010693,0.594989263500849
7500.00000000975,121.551652979137,1.0000000010423,0.595767076425425
7600.00000001012,125.4715109227,1.00000000106993,0.595040771918255
7700.00000001048,129.27990094514,1.00000000100958,0.595677978918498
7800.00000001084,132.963683408879,1.00000000099032,0.595434401663947
7900.00000001121,136.535012995069,1.00000000098333,0.59542075951084
8000.00000001157,139.971494316631,1.00000000098906,0.595242274429559
8100.00000001194,143.281161877051,1.00000000097829,0.595092609630491
8200.0000000123,146.457156735846,1.00000000094614,0.594374716559345
8300.00000001266,149.49144125458,1.00000000094225,0.594768283473351
8400.00000001303,152.393191285827,1.0000000009392,0.593451585746095
8500.00000001339,155.152037129053,1.0000000009048,0.594037352260819
8600.00000001376,157.767821464932,1.00000000088736,0.592784764214253
8700.00000001412,160.246380032528,1.0000000009005,0.592937849390565
8800.00000001448,162.574700064042,1.00000000087242,0.591828590423133
8900.00000001485,164.768724919347,1.00000000085164,0.592356461512062
9000.00000001521,166.81775851858,1.00000000082341,0.590446912131912
9100.00000001557,168.725010494809,1.00000000083816,0.591949072353395
9200.00000001594,170.498227418871,1.00000000081348,0.589379822638106
9300.0000000163,172.126791858051,1.00000000080993,0.590628608138257
9400.00000001667,173.626893031521,1.00000000079657,0.589326078849595
9500.00000001703,174.990673646935,1.0000000007763,0.5886642581555
9600.00000001739,176.222200044488,1.0000000007888,0.589399528197194
9700.00000001776,177.330088183855,1.00000000075483,0.588028316553503
9800.00000001812,178.307610598718,1.00000000075997,0.587902635836086
9900.00000001848,179.166361739584,1.00000000074663,0.588932397774042
10000.0000000188,179.907975959974,1.00000000074261,0.587910856023171
10100.0000000192,180.530275495523,1.00000000072108,0.58677387547031
10200.0000000196,181.045560665739,1.00000000075942,0.589891624134492
10300.0000000199,181.454091252178,1.00000000071284,0.586009694210122
10400.0000000203,181.75673420434,1.00000000068883,0.584507737978048
10500.0000000207,181.962375665813,1.00000000074332,0.589939371661428
10600.000000021,182.076016213246,1.00000000069959,0.584492770843601
10700.0000000214,182.097052598494,1.00000000066728,0.581057052221964
10800.0000000218,182.031964910483,1.00000000071513,0.588544825454868
10900.0000000221,181.895516856916,1.00000000067887,0.584135592846281
11000.0000000225,181.68002646494,1.00000000065602,0.576916348760693
11100.0000000229,181.389061774388,1.0000000007039,0.584030407484621
11200.0000000232,181.043395080831,1.00000000070646,0.584416592371267
11300.0000000236,180.636734434703,1.00000000066507,0.575496284022447
11400.0000000239,180.166755925235,1.00000000065388,0.573442736527079
11500.0000000243,179.644451434441,1.00000000074175,0.583861107465994
11600.0000000247,179.081460922908,1.00000000072536,0.580027650457766
11700.000000025,178.473849546898,1.00000000063846,0.56782423976721
11800.0000000254,177.81189383689,1.00000000065819,0.570325095052822
11900.0000000258,177.119055194519,1.00000000074791,0.584343694817307
12000.0000000261,176.404768394456,1.00000000071529,0.574654926068728
12100.0000000265,175.652007849657,1.00000000059627,0.559002504757547
12200.0000000269,174.859619815667,1.00000000069074,0.566576023446289
12300.0000000272,174.048449184415,1.00000000082332,0.5849223087105
12400.0000000276,173.227409465943,1.00000000074905,0.570193557237513
12500.0000000279,172.380423775703,1.0000000006172,0.554038681488502
12600.0000000283,171.499409480547,1.00000000066199,0.557295057376951
12700.0000000287,170.609230832545,1.00000000082099,0.583215395806932
12800.000000029,169.717718549261,1.00000000078216,0.56939983673932
12900.0000000294,168.814858808286,1.00000000063394,0.555188764271457
13000.0000000298,167.887688660214,1.00000000062986,0.545024928979521
13100.0000000301,166.945341133927,1.00000000077419,0.570194212736929
13200.0000000305,166.008821228679,1.00000000084141,0.577692993962351
13300.0000000309,165.074660958834,1.00000000070538,0.554201802970384
13400.0000000312,164.129235019546,1.00000000066454,0.546651599479904
13500.0000000316,163.169912039969,1.00000000067794,0.54500224338613
13600.0000000319,162.206323859758,1.00000000080941,0.5691434655267
13700.0000000323,161.253908448854,1.00000000089425,0.573319026637854
13800.0000000327,160.306314327653,1.00000000068397,0.543120779268313
13900.000000033,159.352157183942,1.00000000066946,0.543399578169816
14000.0000000334,158.392364651663,1.00000000072848,0.544290701402114
14100.0000000338,157.430985857521,1.00000000075466,0.558243429592751
14200.0000000341,156.480574046049,1.00000000087678,0.57205409092532
14300.0000000345,155.539200993232,1.00000000072904,0.542090555621985
14400.0000000349,154.59724106485,1.0000000006572,0.535941542731354
14500.0000000352,153.654983793367,1.0000000007138,0.546393498053535
14600.0000000356,152.712222558205,1.000000000703,0.545820619678494
14700.0000000359,151.776779481679,1.00000000083095,0.560874523526258
14800.0000000363,150.851552193458,1.00000000084416,0.556348911785828
14900.0000000367,149.933227484888,1.00000000071478,0.530310924605614
15000.000000037,149.018255042949,1.0000000006871,0.535285111755938
15100.0000000374,148.105446626378,1.00000000075032,0.547067285113229
15200.0000000378,147.198165837757,1.00000000074658,0.544710488079279
15300.0000000381,146.297665392711,1.00000000077712,0.548443699297064
15400.0000000385,145.405500293411,1.00000000081683,0.550611528120646
15500.0000000389,144.521841383863,1.00000000076465,0.53221946875705
15600.0000000392,143.643756480729,1.00000000071815,0.530971743830827
15700.0000000396,142.772164558684,1.0000000007074,0.544369452527625
15800.0000000399,141.9063573813,1.00000000076893,0.547690843724895
15900.0000000403,141.047273091002,1.00000000074247,0.540261634886771
16000.0000000407,140.196241844228,1.0000000007256,0.538332852507154
16100.000000041,139.35273711909,1.00000000075389,0.54135745834959
16200.0000000414,138.517247087683,1.00000000074807,0.533851758213051
16300.0000000418,137.689732880538,1.00000000072998,0.531235719067561
16400.0000000418,136.869527352085,1.00000000073615,0.544951332169633
16500.0000000404,136.057223742337,1.00000000074354,0.549031838717687
16600.0000000389,135.251869699055,1.00000000072658,0.536655474875778
16700.0000000375,134.454064176739,1.00000000071718,0.531454262968103
16800.000000036,133.664293765951,1.00000000074236,0.537705595143507
16900.0000000346,132.882302970589,1.00000000077949,0.541106645196381
17000.0000000331,132.108915274342,1.00000000073931,0.534407106575866
17100.0000000317,131.34379512337,1.00000000072358,0.539243920578931
17200.0000000302,130.587430603563,1.0000000007281,0.549262676286905
17300.0000000287,129.839066577949,1.0000000006804,0.542503385387256
17400.0000000273,129.098259117474,1.00000000070315,0.532280926795393
17500.0000000258,128.365795031683,1.00000000072754,0.53045567220333
17600.0000000244,127.64155817982,1.00000000071162,0.534158418698374
17700.0000000229,126.925471432812,1.00000000074833,0.545103143646264
17800.0000000215,126.217698053311,1.00000000075316,0.543939559153788
17900.00000002,125.518048760124,1.00000000075217,0.539971830040794
18000.0000000186,124.827239312716,1.00000000074628,0.546213701106921
18100.0000000171,124.145002709754,1.00000000067578,0.544996424350396
18200.0000000156,123.471907102573,1.00000000065494,0.534563558100588
18300.0000000142,122.807584972373,1.00000000069877,0.527958298041657
18400.0000000127,122.151518441822,1.00000000070868,0.531063237308992
18500.0000000113,121.504079679081,1.00000000068999,0.534544476449243
18600.0000000098,120.864485441239,1.00000000073406,0.546175676533132
18700.0000000084,120.232196868639,1.00000000075305,0.549705712348446
18800.0000000069,119.607538487857,1.00000000075303,0.542502058790393
18900.0000000055,118.990301758713,1.0000000007691,0.547334522322446
19000.000000004,118.381828471252,1.00000000069052,0.544029145039173
19100.0000000026,117.783119301166,1.00000000066275,0.535667460385644
19200.0000000011,117.194763851193,1.00000000064724,0.522731750001167
19299.9999999996,116.615675549543,1.00000000072523,0.525050362059529
19399.9999999982,116.04435953772,1.0000000007702,0.533656234780845
19499.9999999967,115.480393575494,1.00000000074682,0.533283645104767
19599.9999999953,114.923546595249,1.00000000076805,0.542124361304402
19699.9999999938,114.372617920844,1.00000000075383,0.553316858634998
19799.9999999924,113.827308255906,1.00000000077398,0.549642793740671
19899.9999999909,113.287843181308,1.00000000081739,0.547728397951686
19999.9999999895,112.755424096919,1.00000000073597,0.544828550657722
20099.999999988,112.23284821219,1.00000000065788,0.533191866462458
20199.9999999865,111.722472673672,1.00000000061566,0.522309539474736
20299.9999999851,111.222817473736,1.00000000068011,0.517979951112691
20399.9999999836,110.73134518672,1.00000000078891,0.5255457922684
20499.9999999822,110.245284497105,1.00000000078059,0.530071750231162
20599.9999999807,109.765833946231,1.00000000071303,0.526195484949377
20699.9999999793,109.292292077109,1.00000000073645,0.536552514279461
20799.9999999778,108.822318448958,1.0000000008073,0.552072043936536
20899.9999999764,108.354945827229,1.00000000079971,0.55724057746295
20999.9999999749,107.890941913848,1.00000000076361,0.550286146113622
21099.9999999734,107.432035639941,1.0000000007773,0.543359921372876
21199.999999972,106.98180023885,1.00000000072063,0.532431624907396
21299.9999999705,106.543208958704,1.00000000064767,0.525895086311404
21399.9999999691,106.116279463272,1.00000000064075,0.523496502496469
21499.9999999676,105.69929755854,1.00000000070497,0.519396842567913
21599.9999999662,105.289302656377,1.00000000076377,0.518985097664014
21699.9999999647,104.884616689121,1.00000000079712,0.525050519815309
21799.9999999633,104.484626536884,1.00000000073545,0.524182855039239
21899.9999999618,104.089555055276,1.00000000074616,0.528870588756429
21999.9999999603,103.696641421009,1.00000000080637,0.542808774572291
22099.9999999589,103.303361131417,1.0000000008421,0.55331818205547
22199.9999999574,102.910525774104,1.00000000078946,0.555773925623646
22299.999999956,102.520522621558,1.00000000076691,0.54525558142589
22399.9999999545,102.13683832808,1.00000000072294,0.534512890208136
22499.9999999531,101.761591541248,1.00000000070294,0.53594224690435
22599.9999999516,101.396346554616,1.00000000067186,0.531267713025557
22699.9999999502,101.042353760403,1.0000000006824,0.528148652430837
22799.9999999487,100.697398325974,1.00000000070927,0.529120975164757
22899.9999999473,100.360669649582,1.00000000070618,0.519247557525913
22999.9999999458,100.030938129411,1.00000000073423,0.519564195950006
23099.9999999443,99.7060817218172,1.00000000078154,0.52428623469965
23199.9999999429,99.384909016236,1.00000000076334,0.531168987143935
23299.9999999414,99.0656060085473,1.00000000077594,0.53608540233514
23399.99999994,98.746172627459,1.00000000081965,0.543583754072873
23499.9999999385,98.4248744489464,1.00000000084104,0.54676929086805
23599.9999999371,98.1030106192522,1.00000000078917,0.551472230899343
23699.9999999356,97.7836279133345,1.00000000073756,0.548755532399231
23799.9999999342,97.4691338197461,1.00000000073908,0.542931042253249
23899.9999999327,97.1606258432886,1.00000000073708,0.540011600793088
23999.9999999312,96.8595635353407,1.00000000073285,0.542570553259107
24099.9999999298,96.5663769060128,1.0000000006991,0.543121985520835
24199.9999999283,96.2827767364565,1.00000000067786,0.533946116694545
24299.9999999269,96.0088345973065,1.00000000068565,0.530689801959805
24399.9999999254,95.7438638243401,1.00000000070341,0.526924163334301
24499.999999924,95.4863359465881,1.00000000071893,0.523545520672782
24599.9999999225,95.2350792855929,1.00000000072002,0.526552943294148
24699.9999999211,94.9872431536109,1.00000000076041,0.536265155832695
24799.9999999196,94.7398684116742,1.00000000077112,0.541702719282525
24899.9999999181,94.4927050768158,1.00000000077772,0.544635614743024
24999.9999999167,94.2451068427885,1.0000000007812,0.544709546992596
25099.9999999152,93.9956725127297,1.00000000079678,0.544717873337735
25199.9999999138,93.7454984001336,1.00000000077843,0.54464639591488
25299.9999999123,93.4965853758457,1.00000000073289,0.549564185670691
25399.9999999109,93.251296608531,1.00000000070642,0.548890792267272
25499.9999999094,93.0107171175122,1.0000000007311,0.54738924619051
25599.999999908,92.7738479157658,1.00000000076134,0.550783592667482
25699.9999999065,92.5408197756447,1.00000000077778,0.550157538564493
25799.9999999051,92.313815213727,1.00000000070295,0.544161804575286
25899.9999999036,92.0948519996086,1.00000000068575,0.538463161436866
25999.9999999021,91.8867714246032,1.0000000006176,0.526269887312425
26099.9999999007,91.6894084140642,1.00000000067804,0.527514609560842
26199.9999998992,91.4997063766892,1.00000000071972,0.532028779293101
26299.9999998978,91.3143950157465,1.00000000076351,0.535346525163531
26399.9999998963,91.1326322496548,1.00000000073893,0.534813871441056
26499.9999998949,90.9536645583965,1.00000000074232,0.539118126594905
26599.9999998934,90.774147714693,1.00000000077825,0.547566334542778
26699.999999892,90.5928012194399,1.00000000078343,0.552278509184812
26799.9999998905,90.4101758718141,1.00000000078578,0.548697473769758
26899.999999889,90.2266575391238,1.00000000077615,0.544249181639018
26999.9999998876,90.0426935531105,1.00000000078515,0.54095924582059
27099.9999998861,89.8583856106739,1.00000000075176,0.542160379466928
27199.9999998847,89.6757668697282,1.00000000072535,0.547938984625565
27299.9999998832,89.4950356964718,1.00000000076045,0.558182809846489
27399.9999998818,89.3148465481353,1.00000000076919,0.560264901876769
27499.9999998803,89.1354336414745,1.0000000007642,0.555655931752756
27599.9999998789,88.9576403267159,1.00000000079823,0.552165556211042
27699.9999998774,88.7830808044972,1.0000000007408,0.546082154195625
27799.9999998759,88.6153568055013,1.00000000072593,0.538417221498643
27899.9999998745,88.4563320266125,1.00000000068174,0.532612196967283
27999.999999873,88.3079936630054,1.00000000065216,0.528229739758423
28099.9999998716,88.1694528857088,1.00000000067933,0.532073650811263
28199.9999998701,88.0372247303876,1.00000000075256,0.536106685608252
28299.9999998687,87.9080278689565,1.00000000078358,0.539904240311674
28399.9999998672,87.7805154367506,1.00000000075551,0.54220376804956
28499.9999998658,87.6548663326162,1.00000000074979,0.547913181344276
28599.9999998643,87.5297008753184,1.00000000074438,0.55300119544854
28699.9999998629,87.4028131457248,1.00000000081275,0.556704976329943
28799.9999998614,87.2726293398658,1.00000000081432,0.561920371648927
28899.9999998599,87.1404135049636,1.00000000075352,0.558626127444494
