Time,AGPnorm,Energy,Entropy
0,0,1,-7.65618934411776e-17
99.9999999999986,0.00177161604850611,0.999999999999529,0.00528555910914229
199.999999999993,0.0116502076942446,0.999999999996873,0.0151246620331081
300,0.0228651951460496,0.999999999996951,0.0276266906518143
400.000000000022,0.0342062739738941,0.999999999999434,0.0435624334100563
500.000000000045,0.0470462601948188,0.999999999999535,0.0631918922650665
600.000000000068,0.0655465432716578,0.999999999997824,0.0860901215063134
700.000000000091,0.0814217362075207,0.999999999996692,0.111990936767097
800.000000000113,0.0994094300283277,0.999999999999688,0.142972470510692
900.000000000136,0.114869405995722,1.00000000000867,0.182195023132824
1000.00000000016,0.131495531941848,1.00000000007612,0.232082446713296
1100.0000000001,0.153373613868919,1.00000000028413,0.289339395432401
1200,0.212861317934969,1.00000000064683,0.344432080794764
1299.99999999991,0.327399472977358,1.00000000101146,0.394099948171153
1399.99999999982,0.582575348992199,1.00000000144147,0.436205741705689
1499.99999999973,1.12861846065963,1.00000000168589,0.471437888060209
1599.99999999964,2.04050658930371,1.00000000196179,0.499598209900339
1699.99999999955,3.32374952470097,1.00000000208695,0.523872263071031
1799.99999999946,5.02568058873554,1.00000000222156,0.542723574399558
1899.99999999937,7.17301164930158,1.00000000228746,0.557059506642094
1999.99999999928,9.70139667971196,1.00000000214713,0.568283039148526
2099.99999999919,12.5073871730267,1.00000000227082,0.577424506958501
2199.99999999909,15.5404204523273,1.00000000237882,0.582885518823406
2299.999999999,18.7427304472561,1.00000000204683,0.587330448432924
2399.99999999891,22.0126362578516,1.00000000209126,0.588561553440283
2499.99999999882,25.2518588483657,1.00000000207071,0.590780174443873
2599.99999999873,28.4050520615926,1.00000000201457,0.590428234452916
2699.99999999864,31.4360507011212,1.00000000201361,0.589381040293931
2799.99999999855,34.2888800483471,1.00000000183824,0.588222995690151
2899.99999999846,36.9132142741963,1.00000000184531,0.586815332539516
2999.99999999837,39.282251227663,1.00000000170847,0.584654277433626
3099.99999999828,41.3941938327333,1.00000000160861,0.580829170784209
3199.99999999819,43.243107430357,1.00000000157247,0.579005007790896
3299.99999999809,44.8138047224132,1.00000000146978,0.57707336416937
3399.999999998,46.107829923275,1.00000000143066,0.575284734138056
3499.99999999791,47.136797585551,1.00000000148874,0.574262747249894
3599.99999999782,47.9182830003378,1.0000000013839,0.573830154708161
3699.99999999773,48.463247080717,1.00000000128252,0.57052540342322
3799.99999999764,48.7991248474406,1.00000000129207,0.567611914448448
3899.99999999755,48.9226922449875,1.00000000136928,0.575875992356182
3999.99999999746,48.8959154170285,1.00000000115623,0.558626554492717
4099.99999999738,48.703577397464,1.00000000131919,0.572048387062172
4199.99999999775,48.4190250542489,1.00000000123826,0.559723330414741
4299.99999999811,48.0060039239633,1.00000000115806,0.547910662306402
4399.99999999848,47.5373648826673,1.0000000016476,0.574515043045814
4499.99999999884,47.0012366573248,1.00000000099537,0.526800911598865
4599.9999999992,46.3973589027749,1.00000000160261,0.574370856447467
4699.99999999957,45.8001776369664,1.00000000135041,0.548347922055091
4799.99999999993,45.1461974327975,1.00000000099549,0.50827247916526
4900.00000000029,44.4725877407645,1.00000000179022,0.581634283102276
5000.00000000066,43.8227794351443,1.00000000131714,0.53172037311911
5100.00000000102,43.1405425052506,1.00000000102778,0.493183056865733
5200.00000000139,42.4474957794763,1.00000000165329,0.561813338464222
5300.00000000175,41.7880686678425,1.0000000015839,0.539035459640628
5400.00000000211,41.1256628843131,1.00000000105456,0.491934358304926
5500.00000000248,40.4493715971537,1.00000000125877,0.505737554945693
5600.00000000284,39.7934489859661,1.00000000167475,0.556529184407892
5700.00000000321,39.1629643876162,1.0000000013472,0.50881700882352
5800.00000000357,38.5370392406411,1.00000000112665,0.492830328376649
5900.00000000393,37.9124881338081,1.00000000131235,0.504916110866375
6000.0000000043,37.304414799855,1.00000000160753,0.536290002654532
6100.00000000466,36.7176812095167,1.00000000144808,0.521696564071803
6200.00000000502,36.1463754906207,1.00000000110095,0.49405210681032
6300.00000000539,35.5876393328794,1.00000000123419,0.509927968470268
6400.00000000575,35.0414540773389,1.00000000127174,0.512984374665897
6500.00000000612,34.5117530234351,1.00000000147756,0.522575648408805
6600.00000000648,33.9969649104582,1.00000000157009,0.524115881845233
6700.00000000684,33.4995047322582,1.00000000117541,0.498982682583281
6800.00000000721,33.0210188478144,1.00000000123972,0.516151488086497
6900.00000000757,32.5560769279092,1.00000000133979,0.53134135834304
7000.00000000793,32.1088022152578,1.00000000113193,0.500343938188055
7100.0000000083,31.6777218799539,1.00000000139628,0.51781219023077
7200.00000000866,31.2559492083679,1.00000000151824,0.521867650406693
7300.00000000903,30.8498119041131,1.00000000121968,0.506870046805913
7400.00000000939,30.4649925374506,1.0000000012491,0.511476967310411
7500.00000000975,30.0909444964287,1.00000000158962,0.53297653622327
7600.00000001012,29.7281344936884,1.00000000123966,0.523829200430611
7700.00000001048,29.3859331249517,1.00000000119391,0.493025270027039
7800.00000001084,29.0581494682113,1.00000000151541,0.51815015349393
7900.00000001121,28.7352450762461,1.00000000154463,0.525526639703124
8000.00000001157,28.421726551477,1.00000000133188,0.510377407062192
8100.00000001194,28.126367717026,1.00000000126536,0.514727278283351
8200.0000000123,27.8439431101155,1.00000000140698,0.5260849599201
8300.00000001266,27.5666900505256,1.00000000150196,0.525292863924251
8400.00000001303,27.2970937575536,1.00000000131594,0.523676774646645
8500.00000001339,27.0440404854467,1.00000000119615,0.512947724675753
8600.00000001376,26.8047539988269,1.00000000142048,0.516481759502413
8700.00000001412,26.5723719801852,1.0000000013916,0.53261346403115
8800.00000001448,26.3449527812154,1.00000000145305,0.526039192745762
8900.00000001485,26.1274727679118,1.00000000129717,0.518485177478328
9000.00000001521,25.9230777625556,1.00000000135389,0.52633887201087
9100.00000001557,25.725984538627,1.00000000138934,0.541899763866781
9200.00000001594,25.538848238567,1.00000000122605,0.52744733974925
9300.0000000163,25.3585470305145,1.00000000141546,0.522819736086504
9400.00000001667,25.1814421441181,1.00000000141405,0.534409101322352
9500.00000001703,25.0086093618063,1.00000000141897,0.550502513551847
9600.00000001739,24.8433922803593,1.00000000129969,0.532649519549357
9700.00000001776,24.6894291279286,1.000000001305,0.528397419496544
9800.00000001812,24.5435669921901,1.00000000146557,0.541556655461825
9900.00000001848,24.4017706730869,1.00000000144197,0.535310020609686
10000.0000000188,24.2648409170019,1.00000000134315,0.53898699133513
10100.0000000192,24.1396910740239,1.00000000129595,0.539219757829453
10200.0000000196,24.020614657635,1.00000000143201,0.540396374161364
10300.0000000199,23.8996463737943,1.00000000151634,0.548938825084665
10400.0000000203,23.7877510742072,1.00000000119665,0.528406821498104
10500.0000000207,23.6911672219709,1.00000000127486,0.528720842538569
10600.000000021,23.5969318755425,1.00000000143051,0.537146307154692
10700.0000000214,23.4971710492296,1.00000000156903,0.553464774125908
10800.0000000218,23.3903766343301,1.0000000014472,0.564205817148751
10900.0000000221,23.2840321338291,1.00000000135925,0.561492312555107
11000.0000000225,23.1850561611673,1.00000000131892,0.54977370904978
11100.0000000229,23.0934490124498,1.00000000140825,0.555159851315093
11200.0000000232,23.0087550702842,1.00000000143816,0.550005762116797
11300.0000000236,22.9296734014845,1.00000000138214,0.541012370495441
11400.0000000239,22.854947082833,1.00000000140108,0.539252990146565
11500.0000000243,22.7868676681554,1.00000000137104,0.553720535333757
11600.0000000247,22.7245232099213,1.00000000132777,0.556886467057715
11700.000000025,22.6657400084591,1.00000000143424,0.554647658710329
11800.0000000254,22.6083595852963,1.00000000147229,0.549714835880357
11900.0000000258,22.5533973705801,1.00000000134459,0.551338391657502
12000.0000000261,22.506390170792,1.00000000138704,0.540518051791802
12100.0000000265,22.4690349738222,1.00000000139798,0.545939266589515
12200.0000000269,22.4316691208174,1.00000000149646,0.563156024497515
12300.0000000272,22.390211023672,1.00000000146797,0.567244667288267
12400.0000000276,22.346420369245,1.00000000152044,0.566306594902575
12500.0000000279,22.2987515896872,1.00000000151657,0.564575896334743
12600.0000000283,22.2454218904368,1.0000000014843,0.570975670238181
12700.0000000287,22.1845842529676,1.00000000153112,0.587012232467398
12800.000000029,22.12234370346,1.00000000142357,0.582768921499131
12900.0000000294,22.0649095880776,1.00000000126364,0.57136177421561
13000.0000000298,22.0152638044454,1.00000000152853,0.568591974985994
13100.0000000301,21.9741790779102,1.00000000146054,0.564190390024786
13200.0000000305,21.939286172361,1.00000000134831,0.54882826360454
13300.0000000309,21.9087639966705,1.00000000144983,0.553465405564352
13400.0000000312,21.8843326471003,1.00000000139866,0.565131371626639
13500.0000000316,21.8640988404186,1.00000000145317,0.572500570183903
13600.0000000319,21.845337548309,1.00000000152746,0.575608313325293
13700.0000000323,21.8254633151949,1.00000000137938,0.566719671321154
13800.0000000327,21.8075715215159,1.00000000136194,0.561929916398632
13900.000000033,21.7966428733784,1.0000000013479,0.555474439644341
14000.0000000334,21.7909864205818,1.00000000143101,0.5544320724825
14100.0000000338,21.7878365856677,1.00000000145198,0.565944798967425
14200.0000000341,21.7876441429974,1.00000000141853,0.575861274351035
14300.0000000345,21.7879217481392,1.00000000143472,0.58085528863268
14400.0000000349,21.7839413896067,1.00000000147669,0.586002685572093
14500.0000000352,21.7736063768453,1.0000000015061,0.595544310976821
14600.0000000356,21.7584801829233,1.00000000146145,0.592636614698402
14700.0000000359,21.742975486314,1.00000000145439,0.595000077336016
14800.0000000363,21.7287111198887,1.00000000136511,0.58944050738223
14900.0000000367,21.7138208820722,1.00000000153546,0.590362517034904
15000.000000037,21.6933693346984,1.00000000150589,0.588234751420306
15100.0000000374,21.6612961546975,1.00000000163797,0.587758470035992
15200.0000000378,21.6200728921091,1.00000000157119,0.595995655277378
15300.0000000381,21.5737374150857,1.00000000154777,0.602551880212247
15400.0000000385,21.5275375058309,1.00000000141702,0.596610271672443
15500.0000000389,21.4875738874456,1.00000000139754,0.586217751326065
15600.0000000392,21.4551485680539,1.00000000140486,0.582482543216239
15700.0000000396,21.4315185320896,1.00000000152548,0.583170913230643
15800.0000000399,21.4154416783419,1.00000000137456,0.580226823924863
15900.0000000403,21.4047389312384,1.00000000144953,0.581294936255775
16000.0000000407,21.4004121705245,1.00000000151978,0.581974797616302
16100.000000041,21.3988959629265,1.00000000151249,0.588935679848695
16200.0000000414,21.4018097917155,1.00000000150367,0.590873103059118
16300.0000000418,21.4056963498484,1.00000000164971,0.594267982635384
16400.0000000418,21.4093084701295,1.00000000156228,0.586216475157922
16500.0000000404,21.4147872582079,1.00000000150927,0.583250981749976
16600.0000000389,21.4266123570313,1.00000000143357,0.571651077448219
16700.0000000375,21.4411158095268,1.00000000143684,0.573904416495524
16800.000000036,21.4594442143404,1.00000000143352,0.58404743431539
16900.0000000346,21.4814359172105,1.00000000143523,0.586483718725373
17000.0000000331,21.5035451892874,1.0000000015283,0.586873969514143
17100.0000000317,21.5237596007075,1.00000000158243,0.591983243617307
17200.0000000302,21.5382689127338,1.00000000158746,0.585499098491605
17300.0000000287,21.5525994416351,1.00000000150369,0.582526169929175
17400.0000000273,21.5666874102939,1.00000000145509,0.589945692439256
17500.0000000258,21.581018460697,1.0000000015576,0.60755246568648
17600.0000000244,21.5935280228983,1.00000000161635,0.612811011429345
17700.0000000229,21.6015207142083,1.00000000151995,0.626372152899191
17800.0000000215,21.6063018008892,1.00000000157126,0.633379362633322
17900.00000002,21.6087025040848,1.00000000153928,0.630003415660193
18000.0000000186,21.6092191298361,1.00000000150698,0.628817089755661
18100.0000000171,21.6071858180357,1.00000000161257,0.641351874496879
18200.0000000156,21.6007417537427,1.00000000157436,0.642458075471473
18300.0000000142,21.5916231266995,1.00000000159611,0.647671631333237
18400.0000000127,21.578873394757,1.00000000154055,0.64518220921042
18500.0000000113,21.5626502616745,1.00000000150218,0.640529277959118
18600.0000000098,21.5409004939391,1.0000000015728,0.643973296071517
18700.0000000084,21.514647330887,1.0000000015758,0.646525325919868
18800.0000000069,21.4833058369412,1.00000000171037,0.646420631608127
18900.0000000055,21.445552340705,1.00000000164602,0.640582505781647
19000.000000004,21.4053678700257,1.00000000162759,0.640325649757333
19100.0000000026,21.3631947745596,1.0000000015591,0.644027446645761
19200.0000000011,21.3226650213195,1.00000000151417,0.640416926235572
19299.9999999996,21.2852895551902,1.0000000014763,0.640426052001146
19399.9999999982,21.2528889037361,1.00000000144367,0.639503202368493
19499.9999999967,21.2272865146779,1.00000000153398,0.638887719915646
19599.9999999953,21.2089073121012,1.00000000149285,0.633415574533963
19699.9999999938,21.1952908419256,1.00000000154588,0.633451048360563
19799.9999999924,21.187651546895,1.00000000154893,0.623867863004087
19899.9999999909,21.1863454759129,1.00000000152796,0.614951513443841
19999.9999999895,21.1895908886921,1.00000000162219,0.607921466275355
20099.999999988,21.1964904892547,1.00000000154286,0.611176549817119
20199.9999999865,21.2072731116645,1.00000000154032,0.615222906993815
20299.9999999851,21.2193851746757,1.0000000016324,0.617166621972976
20399.9999999836,21.2325941952598,1.00000000156243,0.623020733397592
20499.9999999822,21.2475044303484,1.00000000155856,0.61216729206112
20599.9999999807,21.2629289396039,1.00000000160791,0.612150118171153
20699.9999999793,21.2807530587498,1.00000000152747,0.607377220984643
20799.9999999778,21.3045765393612,1.00000000154507,0.597045325263183
20899.9999999764,21.3320923780865,1.00000000142598,0.596679987632618
20999.9999999749,21.3617263430129,1.00000000161143,0.606736186571744
21099.9999999734,21.3924086343345,1.00000000154677,0.610990640422478
21199.999999972,21.4237026964229,1.00000000169523,0.613502597829686
21299.9999999705,21.4539545928398,1.00000000152053,0.617065419612734
21399.9999999691,21.48403191153,1.00000000161741,0.617169671290851
21499.9999999676,21.5117406397916,1.00000000156997,0.613848782006225
21599.9999999662,21.5373815160099,1.0000000016266,0.617997948032289
21699.9999999647,21.5570109596534,1.0000000017149,0.617014182436861
21799.9999999633,21.5703224427764,1.00000000167527,0.626306783352208
21899.9999999618,21.5816921755987,1.00000000160498,0.633559980253447
21999.9999999603,21.5931169287907,1.00000000156575,0.640839747067147
22099.9999999589,21.6053391557701,1.00000000160611,0.640077726265331
22199.9999999574,21.6195218367685,1.00000000156205,0.635512305577541
22299.999999956,21.6334050921073,1.00000000169349,0.637255797071543
22399.9999999545,21.6449497973296,1.00000000166599,0.643326947526266
22499.9999999531,21.6582403956565,1.0000000016123,0.647625846596862
22599.9999999516,21.6707257401195,1.00000000163896,0.646329622991191
22699.9999999502,21.6807850659043,1.00000000163494,0.644881031410583
22799.9999999487,21.6873225111846,1.00000000170774,0.644592147060425
22899.9999999473,21.6877656545746,1.00000000172444,0.642267058704542
22999.9999999458,21.6842114945637,1.00000000163966,0.646735193350455
23099.9999999443,21.6794812577012,1.00000000166484,0.645322508285096
23199.9999999429,21.6748206834386,1.00000000161565,0.642939245058028
23299.9999999414,21.6725063930358,1.00000000159413,0.64016759074581
23399.99999994,21.6706139685845,1.00000000166348,0.648357816756924
23499.9999999385,21.6679333421806,1.00000000164785,0.646971135364979
23599.9999999371,21.6669101432877,1.00000000155241,0.648194409217763
23699.9999999356,21.6636242551939,1.00000000167176,0.649508561189733
23799.9999999342,21.6565232844898,1.00000000173726,0.656053130976234
23899.9999999327,21.646212841971,1.000000001714,0.665350928372929
23999.9999999312,21.6333273245939,1.00000000168957,0.664748207149692
24099.9999999298,21.6183505603766,1.00000000170541,0.659818730369434
24199.9999999283,21.6018570413841,1.0000000017385,0.659994537275122
24299.9999999269,21.5833482150038,1.00000000171444,0.658361558515881
24399.9999999254,21.56477218187,1.00000000156258,0.655792355955017
24499.999999924,21.5448360172408,1.00000000175622,0.661538518094275
24599.9999999225,21.5236038441905,1.00000000164735,0.659623379666478
24699.9999999211,21.5018394703964,1.00000000157793,0.6509452909872
24799.9999999196,21.4789294300917,1.00000000167448,0.659383368852882
24899.9999999181,21.4528106643128,1.00000000175576,0.666033409412953
24999.9999999167,21.4240659629162,1.00000000172836,0.663724272342127
25099.9999999152,21.3933829433825,1.00000000182495,0.662247425648581
25199.9999999138,21.3596767953044,1.00000000171195,0.661577052092101
25299.9999999123,21.322968088078,1.00000000178981,0.660992022954288
25399.9999999109,21.2840662164435,1.00000000163343,0.658970426449979
25499.9999999094,21.2454723676541,1.00000000164268,0.658424886308738
25599.999999908,21.2074256546074,1.0000000017241,0.661025268387003
25699.9999999065,21.171173720674,1.00000000165964,0.653693475564357
25799.9999999051,21.1375114107587,1.00000000166645,0.643774079327053
25899.9999999036,21.1076688987203,1.00000000164667,0.63316167793326
25999.9999999021,21.0819343363062,1.00000000164106,0.633679157825638
26099.9999999007,21.0613038495773,1.00000000162969,0.636298172906337
26199.9999998992,21.0468092463676,1.00000000159285,0.635601525927073
26299.9999998978,21.0364213511364,1.00000000166689,0.637444323186976
26399.9999998963,21.030858010937,1.00000000167685,0.632603204604569
26499.9999998949,21.030869463675,1.00000000173009,0.623842475898915
26599.9999998934,21.0350717344993,1.00000000167811,0.625612835517808
26699.999999892,21.0453239447816,1.00000000156374,0.61096421561675
26799.9999998905,21.0607752115074,1.00000000168633,0.608256186963347
26899.999999889,21.0773328140501,1.00000000169877,0.607724266747884
26999.9999998876,21.0983089685864,1.00000000165241,0.605921231562319
27099.9999998861,21.1212914028195,1.00000000184193,0.617148827877292
27199.9999998847,21.144834339786,1.00000000176952,0.614999227343826
27299.9999998832,21.1697086013752,1.00000000160665,0.604164633618434
27399.9999998818,21.196988347244,1.00000000175585,0.603363496315372
27499.9999998803,21.2256046467389,1.00000000173349,0.597150970495366
27599.9999998789,21.2583408722966,1.00000000159768,0.595650269842609
27699.9999998774,21.2969393733072,1.00000000165977,0.600904200756039
27799.9999998759,21.3359169769252,1.00000000180487,0.594697036662012
27899.9999998745,21.3750201537441,1.000000001775,0.596201600693454
27999.999999873,21.4186445383336,1.00000000168887,0.599090800462593
28099.9999998716,21.4657249642533,1.00000000180947,0.606737642541766
28199.9999998701,21.5127747259627,1.00000000179324,0.609112139138606
28299.9999998687,21.561686873563,1.0000000017376,0.614377891408522
28399.9999998672,21.6109484963017,1.00000000178624,0.627761252808526
28499.9999998658,21.6600428679399,1.00000000175012,0.625672632389922
28599.9999998643,21.7089238590871,1.00000000178608,0.627728311189013
28699.9999998629,21.7520848567071,1.00000000189745,0.627474018067181
28799.9999998614,21.792592692871,1.0000000017605,0.631243511701833
28899.9999998599,21.8308506709846,1.00000000188177,0.638789330826114
28999.9999998585,21.8628933626666,1.00000000186271,0.643514590636086
