Time,AGPnorm,Energy,Entropy
0,0,1,-1.29138130935038e-17
99.9999999999986,2.71249902313741e-05,1.00000000000106,0.00112797067136219
199.999999999993,0.00237195718456342,0.999999999999518,0.00179641321546463
300,0.00591984850261029,1.00000000000089,0.00319756251815802
400.000000000022,0.00813400848132299,1.00000000000036,0.00541970765130369
500.000000000045,0.00996483007335333,0.999999999999728,0.00733185877314887
600.000000000068,0.0143049734577341,1.00000000000121,0.0101674006294055
700.000000000091,0.0177219383975007,0.999999999999533,0.0130123254293996
800.000000000113,0.022607344613556,1.0000000000007,0.0160891876720328
900.000000000136,0.0283572310980624,1.00000000000064,0.019699964084505
1000.00000000016,0.033211210436596,0.999999999999468,0.0232098808716839
1100.0000000001,0.0395346861277815,1.0000000000013,0.0272032282607697
1200,0.0460887758197869,0.999999999999675,0.0313719452693302
1299.99999999991,0.0530210471144594,1.00000000000041,0.0356993289833634
1399.99999999982,0.0609283779767891,1.00000000000095,0.0403928794283245
1499.99999999973,0.0685408162512857,0.999999999999276,0.045148761814411
1599.99999999964,0.0767030372841845,1.00000000000127,0.0502356743444792
1699.99999999955,0.0853828340242026,0.99999999999993,0.0555630570695999
1799.99999999946,0.0939968385404147,1.00000000000009,0.061092156503878
1899.99999999937,0.103283848212282,1.00000000000123,0.0669237068666674
1999.99999999928,0.112743857504841,0.99999999999919,0.0729493354739977
2099.99999999919,0.122223068629458,1.00000000000106,0.0793072063986194
2199.99999999909,0.132286959382468,1.00000000000026,0.0859537016584906
2299.999999999,0.142202205093093,0.999999999999784,0.0929230698844413
2399.99999999891,0.15216193324076,1.00000000000145,0.100252558867767
2499.99999999882,0.162461957292563,0.999999999999262,0.107933882379564
2599.99999999873,0.172572732430871,1.00000000000078,0.116102667458918
2699.99999999864,0.183253088253852,1.00000000000064,0.124750850921242
2799.99999999855,0.193854075742093,0.99999999999959,0.134003399918414
2899.99999999846,0.204019746690452,1.00000000000176,0.143939065728378
2999.99999999837,0.214319452796506,1.00000000000025,0.154678073867369
3099.99999999828,0.224605052303935,1.00000000000274,0.166445774216396
3199.99999999819,0.235297201151686,1.00000000000621,0.179349123705932
3299.99999999809,0.245154727361494,1.00000000001158,0.19340532128671
3399.999999998,0.256543728799559,1.00000000002444,0.208478341332234
3499.99999999791,0.265894532022109,1.00000000004135,0.224217670548768
3599.99999999782,0.278090952996028,1.00000000006386,0.240409208992153
3699.99999999773,0.295591955914024,1.00000000009096,0.25670456202751
3799.99999999764,0.310778660619753,1.00000000012649,0.272841324458768
3899.99999999755,0.34456105735512,1.00000000016565,0.28872063893649
3999.99999999746,0.386518816261544,1.00000000020969,0.304184549824802
4099.99999999738,0.450380402490501,1.00000000024404,0.319424663237027
4199.99999999775,0.555422297474295,1.00000000028472,0.33411890318675
4299.99999999811,0.688161504765538,1.00000000033096,0.348351185727621
4399.99999999848,0.888317841102443,1.00000000038249,0.36210989865063
4499.99999999884,1.1553724790487,1.00000000041806,0.375329040782508
4599.9999999992,1.50088394425174,1.00000000047187,0.388210147763924
4699.99999999957,1.9595694577554,1.00000000050403,0.400459376077583
4799.99999999993,2.52351933997959,1.00000000054273,0.412105302447301
4900.00000000029,3.22553952337895,1.00000000057142,0.423420161603628
5000.00000000066,4.07968296826976,1.00000000059157,0.433992554393897
5100.00000000102,5.09113290905277,1.00000000062423,0.444381806145057
5200.00000000139,6.28526861101967,1.00000000065297,0.454017263333634
5300.00000000175,7.66792767071186,1.00000000067018,0.463058705445095
5400.00000000211,9.24931135850129,1.00000000069262,0.472020495375189
5500.00000000248,11.0425135890177,1.00000000074738,0.480057315160576
5600.00000000284,13.0564830871065,1.00000000075825,0.487750845180116
5700.00000000321,15.287172296059,1.0000000007734,0.495145614611331
5800.00000000357,17.7503392441136,1.00000000078826,0.501788412770541
5900.00000000393,20.4418300897961,1.00000000082268,0.508385957863898
6000.0000000043,23.3539811908037,1.00000000080103,0.514590775481623
6100.00000000466,26.5088999917052,1.00000000083032,0.520004985603867
6200.00000000502,29.8741209844519,1.00000000081458,0.525624141035373
6300.00000000539,33.4615404615775,1.000000000842,0.530294760905826
6400.00000000575,37.2717978774002,1.00000000081589,0.535075081710281
6500.00000000612,41.267616987155,1.0000000008206,0.539530561688196
6600.00000000648,45.4817886891766,1.00000000083961,0.54317852884632
6700.00000000684,49.8713055836536,1.00000000084889,0.547272951129405
6800.00000000721,54.4303178986152,1.00000000083481,0.550695769236635
6900.00000000757,59.1765830271626,1.00000000084673,0.553697659367534
7000.00000000793,64.0493404577361,1.0000000008717,0.556834210085302
7100.0000000083,69.0814631344927,1.00000000082929,0.559413361139155
7200.00000000866,74.239215741781,1.00000000084508,0.562096934517638
7300.00000000903,79.4937323490072,1.00000000085107,0.564427146883122
7400.00000000939,84.8785163241959,1.00000000082448,0.566341179579034
7500.00000000975,90.325990203584,1.00000000082504,0.568592886711691
7600.00000001012,95.8572847471741,1.0000000008394,0.570116891453648
7700.00000001048,101.458963184077,1.00000000083166,0.571776189274919
7800.00000001084,107.083332677542,1.00000000080875,0.57365382504436
7900.00000001121,112.772194679177,1.00000000081109,0.574286233620365
8000.00000001157,118.465272187644,1.0000000007845,0.576018571756256
8100.00000001194,124.167276838981,1.00000000077909,0.577061469059413
8200.0000000123,129.885044328981,1.0000000007831,0.577655531549286
8300.00000001266,135.561917989202,1.00000000077037,0.57879172290005
8400.00000001303,141.239211025996,1.00000000076448,0.57906177298733
8500.00000001339,146.871753084011,1.00000000073405,0.579992657382242
8600.00000001376,152.449339892077,1.00000000075795,0.580659230149275
8700.00000001412,157.993982251967,1.00000000073868,0.58040331480502
8800.00000001448,163.450699968554,1.00000000072185,0.581586603590049
8900.00000001485,168.850397230714,1.00000000070822,0.581304965915149
9000.00000001521,174.169609235572,1.00000000073867,0.581546608579046
9100.00000001557,179.385082923945,1.00000000068992,0.581687867947163
9200.00000001594,184.527347193888,1.00000000070933,0.581648348121291
9300.0000000163,189.547906919497,1.00000000069264,0.581477428325334
9400.00000001667,194.469536099198,1.00000000070534,0.582016668303258
9500.00000001703,199.283928850112,1.00000000068727,0.581068704511332
9600.00000001739,203.961252099244,1.00000000066869,0.581787603008754
9700.00000001776,208.537313490671,1.00000000066324,0.581283342030345
9800.00000001812,212.970363885121,1.00000000064977,0.580641456979457
9900.00000001848,217.27630348297,1.00000000066027,0.58163869322412
10000.0000000188,221.456685515077,1.0000000006226,0.57992227712404
10100.0000000192,225.482549143289,1.00000000062668,0.580697725299704
10200.0000000196,229.387692722759,1.00000000063767,0.579707744972338
10300.0000000199,233.141214414268,1.00000000062932,0.578987785902243
10400.0000000203,236.751559967577,1.00000000062126,0.579509169543592
10500.0000000207,240.228280963204,1.00000000059317,0.57828347010915
10600.000000021,243.545877699516,1.00000000060915,0.578443741300025
10700.0000000214,246.730731592499,1.00000000059249,0.577895341017349
10800.0000000218,249.766079255841,1.0000000005654,0.57786439842749
10900.0000000221,252.651792422474,1.00000000058624,0.576987503057709
11000.0000000225,255.400768136916,1.00000000058619,0.576883258325702
11100.0000000229,257.994651014353,1.00000000055506,0.576978332933951
11200.0000000232,260.452845483088,1.00000000055907,0.575528034164237
11300.0000000236,262.766026211055,1.00000000054487,0.575975264005167
11400.0000000239,264.933255623667,1.00000000054112,0.575715256706642
11500.0000000243,266.968162535653,1.00000000053752,0.574601132665056
11600.0000000247,268.85478841053,1.00000000054674,0.575330539437682
11700.000000025,270.611884707743,1.00000000052046,0.573938997215291
11800.0000000254,272.232591148234,1.00000000051297,0.573726123440249
11900.0000000258,273.715115985867,1.00000000052305,0.574991383182482
12000.0000000261,275.076935649941,1.00000000051391,0.572390635924642
12100.0000000265,276.301404021593,1.00000000048391,0.571717862821958
12200.0000000269,277.403810945125,1.00000000050462,0.574089598671525
12300.0000000272,278.387854301252,1.00000000048536,0.573494420159046
12400.0000000276,279.246188738566,1.00000000047816,0.571389593674701
12500.0000000279,279.992741023948,1.00000000046807,0.569864576793522
12600.0000000283,280.618831286662,1.00000000048349,0.57252382220056
12700.0000000287,281.139971785241,1.00000000048185,0.574630235268679
12800.000000029,281.561589854273,1.00000000044734,0.570778788934846
12900.0000000294,281.871737064254,1.00000000042745,0.565577278681987
13000.0000000298,282.080603558424,1.00000000043044,0.569323581889996
13100.0000000301,282.19435681383,1.00000000047213,0.576261505580047
13200.0000000305,282.227831993694,1.0000000004689,0.57257413936433
13300.0000000309,282.176701626128,1.00000000043667,0.562662391972849
13400.0000000312,282.025666961188,1.00000000042191,0.561154385536333
13500.0000000316,281.794771966288,1.00000000046641,0.572426031962597
13600.0000000319,281.499468589632,1.00000000051002,0.576811732759875
13700.0000000323,281.14415942421,1.00000000046304,0.566750217337415
13800.0000000327,280.717624446945,1.00000000041474,0.555130666412277
13900.000000033,280.2065138778,1.00000000041548,0.556922887381835
14000.0000000334,279.638075016844,1.00000000047423,0.574668219635898
14100.0000000338,279.031117304153,1.00000000051168,0.576590096579462
14200.0000000341,278.385320872404,1.00000000047406,0.563979788864903
14300.0000000345,277.682563986468,1.00000000037307,0.546972000708259
14400.0000000349,276.907605767068,1.00000000037273,0.547849184096249
14500.0000000352,276.088901005785,1.00000000050912,0.573024841109672
14600.0000000356,275.250861932172,1.00000000054275,0.578905904938388
14700.0000000359,274.39596692951,1.00000000050758,0.565384947009531
14800.0000000363,273.50365491677,1.00000000038119,0.542164547155248
14900.0000000367,272.550988086838,1.00000000036226,0.532658806890629
15000.000000037,271.554456008283,1.00000000046846,0.558543552301969
15100.0000000374,270.54673683495,1.00000000056791,0.581426259391538
15200.0000000378,269.540135293064,1.00000000056129,0.574562473442764
15300.0000000381,268.526368928324,1.0000000004543,0.548535879978377
15400.0000000385,267.471022930046,1.00000000034638,0.525124879582996
15500.0000000389,266.370496009506,1.00000000036795,0.526474761221166
15600.0000000392,265.243284485014,1.000000000506,0.562046042805242
15700.0000000396,264.121741752546,1.00000000060798,0.584176509456831
15800.0000000399,263.015360570968,1.0000000005664,0.569172496892829
15900.0000000403,261.904162234864,1.00000000045025,0.540205355761797
16000.0000000407,260.76585452134,1.00000000033378,0.516126941775745
16100.000000041,259.589067234905,1.00000000035521,0.515462976796835
16200.0000000414,258.390684314298,1.00000000047093,0.550050385598513
16300.0000000418,257.202263621794,1.00000000063437,0.581840915240817
16400.0000000418,256.033283823371,1.00000000062287,0.576389704307847
16500.0000000404,254.875438678282,1.00000000050807,0.544866489091404
16600.0000000389,253.705988265652,1.00000000038273,0.516724275699056
16700.0000000375,252.509589183091,1.00000000034039,0.506784054950117
16800.000000036,251.29197173116,1.00000000039966,0.518814266949037
16900.0000000346,250.068966011749,1.00000000054453,0.558141737387777
17000.0000000331,248.863001299543,1.00000000064222,0.582103645992386
17100.0000000317,247.680220414915,1.00000000061537,0.568261500412404
17200.0000000302,246.505865420468,1.00000000048533,0.533949376430262
17300.0000000287,245.326417558482,1.00000000039856,0.510462704683165
17400.0000000273,244.12994530409,1.00000000036215,0.503712721803283
17500.0000000258,242.919758124894,1.00000000040763,0.514034399636081
17600.0000000244,241.707833437259,1.00000000049532,0.542246281935159
17700.0000000229,240.507771137227,1.00000000060579,0.571736215751219
17800.0000000215,239.329039672202,1.00000000060686,0.570257521221654
17900.00000002,238.165837029057,1.00000000054966,0.542958394680613
18000.0000000186,237.00647924584,1.00000000045171,0.514619841930851
18100.0000000171,235.843089287923,1.00000000037402,0.503849341543526
18200.0000000156,234.670827258879,1.00000000040721,0.507600640001202
18300.0000000142,233.495777321257,1.00000000042832,0.517787922297753
18400.0000000127,232.323751658192,1.00000000051119,0.537611968526944
18500.0000000113,231.163380970697,1.00000000059937,0.560191672224496
18600.0000000098,230.020433181045,1.00000000060832,0.56097158563129
18700.0000000084,228.89071072074,1.00000000053992,0.540983060627976
18800.0000000069,227.76919543706,1.00000000046636,0.516388074829703
18900.0000000055,226.649354106659,1.00000000041443,0.505842105407625
19000.000000004,225.529271127748,1.00000000040344,0.509282845837961
19100.0000000026,224.41049203431,1.00000000043523,0.514948569458568
19200.0000000011,223.294021670254,1.00000000045208,0.520691523143349
19299.9999999996,222.185109941301,1.00000000054733,0.533437931424033
19399.9999999982,221.087509551292,1.00000000056342,0.546663316735515
19499.9999999967,220.001955767852,1.00000000056251,0.548636155781385
19599.9999999953,218.928063363407,1.00000000053571,0.533964319567036
19699.9999999938,217.862069971317,1.00000000048092,0.519488610420471
19799.9999999924,216.802453750988,1.00000000044023,0.512567207756007
19899.9999999909,215.747959940091,1.0000000004357,0.513523551666171
19999.9999999895,214.698018367101,1.00000000043804,0.516174672121446
20099.999999988,213.653770003913,1.0000000004235,0.517775563974582
20199.9999999865,212.615481777927,1.00000000047556,0.520785137012252
20299.9999999851,211.58556897974,1.00000000050584,0.526543312924878
20399.9999999836,210.565336498402,1.0000000005238,0.532582243362714
20499.9999999822,209.554569146269,1.00000000053742,0.539813313071272
20599.9999999807,208.553334653918,1.00000000053534,0.534611995436269
20699.9999999793,207.560787451306,1.00000000051442,0.527212505172177
20799.9999999778,206.576313715414,1.00000000046179,0.520840836786764
20899.9999999764,205.599909598801,1.00000000044684,0.52098148830743
20999.9999999749,204.630893815433,1.00000000042602,0.521334136387767
21099.9999999734,203.669617731915,1.00000000043827,0.520085648819232
21199.999999972,202.715402119455,1.00000000044058,0.514909502420713
21299.9999999705,201.76912739624,1.00000000045929,0.514552773904808
21399.9999999691,200.831497869517,1.00000000047991,0.517946300558964
21499.9999999676,199.90237430479,1.0000000005106,0.52814191306491
21599.9999999662,198.981780018899,1.00000000051532,0.537270747259312
21699.9999999647,198.069578171565,1.00000000051109,0.539012510314035
21799.9999999633,197.165520691928,1.0000000004786,0.532219525639564
21899.9999999618,196.269997573655,1.00000000047531,0.527605784356147
21999.9999999603,195.382804131288,1.00000000048075,0.531699660356418
22099.9999999589,194.504649449104,1.00000000047916,0.531531031981155
22199.9999999574,193.635268080733,1.00000000043043,0.525546923272398
22299.999999956,192.775245830023,1.00000000039722,0.513331591387465
22399.9999999545,191.924715155186,1.00000000039434,0.505206292171633
22499.9999999531,191.083474833635,1.00000000046391,0.507040090993338
22599.9999999516,190.251139877045,1.0000000004805,0.515466729718104
22699.9999999502,189.427012728138,1.0000000005362,0.524196598205521
22799.9999999487,188.60987713148,1.00000000053155,0.531821011288394
22899.9999999473,187.800030590857,1.00000000049597,0.537188448772564
22999.9999999458,186.997562853358,1.00000000046854,0.536326028898284
23099.9999999443,186.202962824409,1.00000000046496,0.531321711928736
23199.9999999429,185.415753641225,1.00000000051017,0.536682754044403
23299.9999999414,184.63589028308,1.00000000051369,0.541267357144686
23399.99999994,183.863939586655,1.00000000051742,0.535901411730205
23499.9999999385,183.101377782486,1.00000000042806,0.522073284226572
23599.9999999371,182.350482561449,1.00000000038141,0.506172756439773
23699.9999999356,181.611754643368,1.00000000037982,0.495091146019555
23799.9999999342,180.884701336968,1.00000000040754,0.496547765926599
23899.9999999327,180.166956807242,1.00000000049944,0.507512416049108
23999.9999999312,179.456554431157,1.0000000005262,0.517983231738771
24099.9999999298,178.751698675635,1.00000000053549,0.522435569742455
24199.9999999283,178.052101710691,1.00000000052262,0.524221938889183
24299.9999999269,177.35840232507,1.00000000048177,0.531880277635198
24399.9999999254,176.671049908328,1.00000000046516,0.535674702200688
24499.999999924,175.989847232779,1.00000000048438,0.534356773223883
24599.9999999225,175.313745039741,1.00000000052979,0.541342230753879
24699.9999999211,174.641852405919,1.00000000056492,0.547910059464457
24799.9999999196,173.975413436489,1.00000000050998,0.538895470883487
24899.9999999181,173.317331792205,1.00000000045549,0.523397249031747
24999.9999999167,172.670785696621,1.0000000003933,0.508141551205488
25099.9999999152,172.038751111567,1.00000000035736,0.494490518163752
25199.9999999138,171.420936811182,1.00000000038206,0.489286685592441
25299.9999999123,170.81560163781,1.00000000043484,0.491219584449083
25399.9999999109,170.218851416534,1.00000000049946,0.503275136579238
25499.9999999094,169.627654557502,1.00000000054574,0.51389824198641
25599.999999908,169.039886107629,1.00000000053128,0.516436888351392
25699.9999999065,168.455896054739,1.00000000049488,0.512871296422623
25799.9999999051,167.875936262577,1.00000000049872,0.519062398481251
25899.9999999036,167.299943105455,1.00000000047742,0.532717808894417
25999.9999999021,166.727379528115,1.00000000052427,0.538832428564304
26099.9999999007,166.157447421749,1.00000000051594,0.539192526732587
26199.9999998992,165.589778467359,1.00000000053617,0.539911235806177
26299.9999998978,165.024903842502,1.00000000053756,0.542884700623169
26399.9999998963,164.463940468131,1.00000000052189,0.536474262516102
26499.9999998949,163.909789710157,1.00000000046939,0.521159175519025
26599.9999998934,163.366754920279,1.00000000040549,0.506758347736715
26699.999999892,162.837004747778,1.00000000039447,0.499815047247925
26799.9999998905,162.322137997121,1.00000000037403,0.493896967998537
26899.999999889,161.820753295281,1.00000000041907,0.492121728975478
26999.9999998876,161.330268248645,1.00000000045454,0.49246596548171
27099.9999998861,160.848122427104,1.00000000048853,0.498305138010307
27199.9999998847,160.37097947379,1.00000000050693,0.50478914053301
27299.9999998832,159.89725133555,1.00000000050684,0.510360028676608
27399.9999998818,159.425655873975,1.00000000052118,0.513165714081433
27499.9999998803,158.955122389345,1.00000000052576,0.516056010369773
27599.9999998789,158.485560324179,1.00000000051115,0.523508773477144
27699.9999998774,158.016312127187,1.00000000050999,0.534109728103411
27799.9999998759,157.547469223853,1.00000000052999,0.538928156930084
27899.9999998745,157.079201093684,1.00000000051045,0.538989002655228
27999.999999873,156.612379919258,1.00000000048892,0.533398543728094
28099.9999998716,156.148412133467,1.00000000050516,0.530836138194053
28199.9999998701,155.688240681416,1.00000000049899,0.531060055868178
28299.9999998687,155.233351813037,1.00000000048906,0.523910571764317
28399.9999998672,154.786273519446,1.00000000046662,0.515891566498857
28499.9999998658,154.348481206267,1.00000000043218,0.508258420573335
28599.9999998643,153.922454374272,1.00000000041826,0.503922589520814
28699.9999998629,153.508634172835,1.00000000040649,0.503035055179627
28799.9999998614,153.10719034222,1.00000000041868,0.498300440904113
28899.9999998599,152.717274137799,1.00000000043153,0.494179655971853
