Time,AGPnorm,Energy,Entropy
0,0,1,-7.4777127246195e-17
99.9999999999986,0.00112441067766721,1.00000000000255,0.00364830554063876
199.999999999993,0.00714118764311557,1.00000000000004,0.0107387189393974
300,0.0149933057739722,0.999999999996939,0.0195496307528469
400.000000000022,0.0228129004589703,0.99999999999853,0.0304224838196677
500.000000000045,0.0314347875907312,1.00000000000154,0.0439556905950874
600.000000000068,0.0435469337323296,1.00000000000135,0.0597444607769464
700.000000000091,0.0561379412522793,0.999999999998085,0.0770213829122387
800.000000000113,0.0689297185616433,0.999999999997892,0.0960371551624018
900.000000000136,0.0824449971729986,1.00000000000039,0.11826335740864
1000.00000000016,0.0963381440791935,1.00000000000193,0.144231351447182
1100.0000000001,0.110971776057831,1.0000000000039,0.175073168964924
1200,0.125731345444067,1.00000000002337,0.211652491105166
1299.99999999991,0.142083711684516,1.00000000009961,0.255010956095296
1399.99999999982,0.155571064902228,1.00000000022755,0.301398045491447
1499.99999999973,0.201874311974965,1.00000000044001,0.345551504545936
1599.99999999964,0.347542823564392,1.00000000063065,0.384784920900839
1699.99999999955,0.631610375121974,1.00000000084997,0.418624044207973
1799.99999999946,1.10109295589701,1.00000000104022,0.448506410771724
1899.99999999937,1.86985552097935,1.00000000119368,0.474166724763544
1999.99999999928,3.04823302537259,1.00000000130802,0.49542043351852
2099.99999999919,4.64969158163143,1.00000000139674,0.513109351601445
2199.99999999909,6.65128888304706,1.00000000137607,0.528414848487537
2299.999999999,9.07545192720072,1.000000001506,0.540691929492005
2399.99999999891,11.9352990383752,1.00000000149475,0.550709905318655
2499.99999999882,15.1782337129959,1.00000000159386,0.558050241503976
2599.99999999873,18.711619262397,1.00000000147187,0.564358635280988
2699.99999999864,22.4780119147584,1.00000000144896,0.569316193617745
2799.99999999855,26.43294846024,1.00000000148221,0.572472772843154
2899.99999999846,30.5071997852231,1.00000000140062,0.574383410195272
2999.99999999837,34.6235997310951,1.00000000142957,0.57530037547074
3099.99999999828,38.7119548705524,1.00000000135374,0.575817476639154
3199.99999999819,42.7263210200861,1.00000000134145,0.575820737378747
3299.99999999809,46.619711928939,1.0000000013281,0.574826596436443
3399.999999998,50.3493794572288,1.00000000122788,0.572894476689051
3499.99999999791,53.8797870142305,1.00000000123936,0.571977094510201
3599.99999999782,57.1767789106182,1.00000000120103,0.572051915926649
3699.99999999773,60.221443469052,1.00000000113835,0.568683079530808
3799.99999999764,63.0052107046363,1.00000000108351,0.565477577585891
3899.99999999755,65.5126444509542,1.00000000112065,0.566748017499292
3999.99999999746,67.7337559005269,1.00000000104391,0.563056499649572
4099.99999999738,69.6781204029788,1.00000000101253,0.560999698278116
4199.99999999775,71.3413562158308,1.0000000009783,0.559187905444702
4299.99999999811,72.730850217543,1.00000000093521,0.560220995361322
4399.99999999848,73.8632811710638,1.00000000091563,0.554177423526008
4499.99999999884,74.7388047165352,1.00000000088498,0.556263362769311
4599.9999999992,75.3917136717448,1.00000000088419,0.558631738461221
4699.99999999957,75.8179135036343,1.00000000081342,0.542714581717495
4799.99999999993,76.035558782874,1.00000000087432,0.562371582702568
4900.00000000029,76.1048962820267,1.00000000084791,0.553798899356805
5000.00000000066,75.9840284494768,1.00000000071304,0.530234879082813
5100.00000000102,75.7237430136295,1.00000000094834,0.570171264220321
5200.00000000139,75.3892375148835,1.00000000090129,0.550224335936505
5300.00000000175,74.9133334033207,1.00000000059796,0.512049287761665
5400.00000000211,74.3267199659847,1.00000000094102,0.561631632355765
5500.00000000248,73.732075360273,1.00000000103665,0.566677440057997
5600.00000000284,73.0731452825104,1.00000000061498,0.500288341794711
5700.00000000321,72.3003187830109,1.00000000072705,0.514695109604315
5800.00000000357,71.5164191176091,1.00000000115224,0.577989314366935
5900.00000000393,70.7641542811548,1.00000000097279,0.543359006486947
6000.0000000043,69.959365849038,1.00000000053798,0.469969450307773
6100.00000000466,69.0814696662688,1.00000000077133,0.501874323586229
6200.00000000502,68.2167908387911,1.00000000121479,0.573638938853399
6300.00000000539,67.4029151490155,1.00000000105622,0.549052142461002
6400.00000000575,66.5800660805823,1.00000000058826,0.466905264462112
6500.00000000612,65.7085767249788,1.00000000056487,0.45405738407528
6600.00000000648,64.8255207377844,1.00000000099986,0.527661068638401
6700.00000000684,63.9833908376113,1.00000000127785,0.56737441701793
6800.00000000721,63.1814836467982,1.00000000099007,0.523932267528312
6900.00000000757,62.3780285318245,1.00000000061971,0.455439052401144
7000.00000000793,61.556156310014,1.00000000057539,0.445205033676752
7100.0000000083,60.731102194666,1.00000000086667,0.498521158977478
7200.00000000866,59.9303260269675,1.00000000120759,0.547855136374219
7300.00000000903,59.1639757402102,1.00000000108402,0.542273203855544
7400.00000000939,58.417781951092,1.00000000087081,0.493268553541869
7500.00000000975,57.6768628789639,1.00000000061606,0.4536410661851
7600.00000001012,56.9408003222115,1.00000000067833,0.459996886919819
7700.00000001048,56.2140325112923,1.00000000083617,0.487162091320698
7800.00000001084,55.50349308105,1.00000000100342,0.520857296363667
7900.00000001121,54.8126045741056,1.00000000110328,0.535750921515271
8000.00000001157,54.1404762917697,1.00000000095484,0.5248990699459
8100.00000001194,53.4839959836807,1.00000000070172,0.478575857183965
8200.0000000123,52.8437740971173,1.0000000006664,0.463745251386241
8300.00000001266,52.221899158035,1.00000000079618,0.477610597905539
8400.00000001303,51.6162316574764,1.00000000085324,0.497259706229573
8500.00000001339,51.0266383144938,1.0000000007766,0.493467869993536
8600.00000001376,50.4517946778102,1.00000000092868,0.511963332491779
8700.00000001412,49.8883137651737,1.00000000110539,0.531799304534132
8800.00000001448,49.3335140583955,1.00000000098877,0.526630620538963
8900.00000001485,48.7944816353215,1.0000000007722,0.492542291890148
9000.00000001521,48.2795505944663,1.00000000064532,0.465143591312259
9100.00000001557,47.7876194060542,1.00000000079928,0.480247925661371
9200.00000001594,47.3091983443461,1.00000000095003,0.496208577214787
9300.0000000163,46.8412302893884,1.00000000086077,0.511210345715728
9400.00000001667,46.3913367091587,1.00000000071881,0.484995766965904
9500.00000001703,45.9591469553243,1.00000000082481,0.495410592743094
9600.00000001739,45.5356061048838,1.00000000105092,0.525449745799596
9700.00000001776,45.1111574386316,1.00000000113004,0.537135166594978
9800.00000001812,44.6883698573242,1.00000000101549,0.524656808401057
9900.00000001848,44.2816621643082,1.00000000071939,0.491744589558565
10000.0000000188,43.9011913233257,1.00000000069477,0.474544299883954
10100.0000000192,43.5453801290796,1.00000000077343,0.479857156514751
10200.0000000196,43.2015880864448,1.00000000099936,0.496920565900371
10300.0000000199,42.8610403186706,1.00000000106105,0.504869191018601
10400.0000000203,42.525826053965,1.00000000087756,0.514628146221447
10500.0000000207,42.2051623189773,1.00000000072954,0.500651430367994
10600.000000021,41.9016590653612,1.00000000079124,0.496762845599655
10700.0000000214,41.6058476664857,1.00000000088889,0.517455471838721
10800.0000000218,41.3102115614899,1.00000000098397,0.531685472717789
10900.0000000221,41.0107084084769,1.00000000106898,0.538903528584802
11000.0000000225,40.7107754553698,1.00000000098659,0.533785995138814
11100.0000000229,40.4207197069589,1.00000000079251,0.511306134626927
11200.0000000232,40.1527062842584,1.00000000072259,0.491537847405281
11300.0000000236,39.9082834490642,1.00000000081299,0.492654715529528
11400.0000000239,39.6796425880766,1.00000000081739,0.49932048897846
11500.0000000243,39.4631464244416,1.0000000008568,0.501543822950432
11600.0000000247,39.2533287402786,1.00000000089594,0.510459805532644
11700.000000025,39.0492506888061,1.00000000087115,0.502612061452859
11800.0000000254,38.8498139446122,1.00000000087843,0.51973634659567
11900.0000000258,38.6500802479437,1.00000000097594,0.534546308984057
12000.0000000261,38.4536632857734,1.00000000091856,0.536650631736805
12100.0000000265,38.2588656769816,1.00000000080841,0.534719447732611
12200.0000000269,38.0694301985576,1.00000000080787,0.532822411705381
12300.0000000272,37.8847692475634,1.00000000089259,0.526953847522352
12400.0000000276,37.7014999957673,1.00000000099108,0.534667602466007
12500.0000000279,37.5148317396015,1.00000000106437,0.54224258132191
12600.0000000283,37.3247451417266,1.00000000091838,0.536435035325626
12700.0000000287,37.1443076227792,1.00000000080394,0.525499882533255
12800.000000029,36.9860962565052,1.00000000071347,0.509460682964237
12900.0000000294,36.8502188251556,1.0000000007315,0.497496859730696
13000.0000000298,36.7271285956635,1.0000000008871,0.505988678743048
13100.0000000301,36.6043031852138,1.00000000096969,0.518886863997663
13200.0000000305,36.4847040740359,1.00000000085914,0.50859817741482
13300.0000000309,36.3760431018025,1.00000000082206,0.503836874863372
13400.0000000312,36.2797489208663,1.00000000080815,0.514992014524783
13500.0000000316,36.1916424486365,1.00000000085019,0.522613852181752
13600.0000000319,36.1067981882886,1.00000000088004,0.525477772374162
13700.0000000323,36.0141306460982,1.00000000097596,0.538482193979514
13800.0000000327,35.9089541698912,1.00000000098495,0.551460567216285
13900.000000033,35.7935660873347,1.00000000096024,0.559196217071936
14000.0000000334,35.672118723095,1.00000000090945,0.559724374806918
14100.0000000338,35.5502080738258,1.00000000084864,0.559349969181636
14200.0000000341,35.432911265272,1.00000000079566,0.554240724894383
14300.0000000345,35.3207138221612,1.00000000085493,0.546216574407136
14400.0000000349,35.2115591275241,1.00000000093231,0.541191259942997
14500.0000000352,35.1031028508707,1.0000000009982,0.542210612704334
14600.0000000356,34.9920289966166,1.00000000096133,0.547627842973243
14700.0000000359,34.8795949445322,1.00000000093271,0.552040090668935
14800.0000000363,34.7750722682883,1.00000000083638,0.545008814059788
14900.0000000367,34.687679648017,1.00000000076344,0.53493531793293
15000.000000037,34.6179838482534,1.0000000007681,0.52091772001366
15100.0000000374,34.561090771893,1.00000000083539,0.523726556350216
15200.0000000378,34.5148999194908,1.00000000083781,0.523031452823957
15300.0000000381,34.4739960827843,1.00000000085534,0.518545841561195
15400.0000000385,34.432314771042,1.00000000090697,0.518363695370985
15500.0000000389,34.3953687847852,1.00000000079997,0.516034958866639
15600.0000000392,34.368208911021,1.00000000081986,0.520209233586288
15700.0000000396,34.3466836561487,1.00000000088165,0.534360909433391
15800.0000000399,34.3237702119997,1.00000000092956,0.549480933390533
15900.0000000403,34.2962433779642,1.00000000095821,0.56008827334453
16000.0000000407,34.2664613039603,1.00000000091765,0.562782639826702
16100.000000041,34.238015481754,1.00000000083445,0.563483719097479
16200.0000000414,34.2133464461956,1.00000000081749,0.558545989218146
16300.0000000418,34.1861832953272,1.00000000088658,0.558781685825386
16400.0000000418,34.1503615480109,1.00000000097587,0.571196347082058
16500.0000000404,34.102621247728,1.00000000094859,0.568450522219739
16600.0000000389,34.0417067124845,1.00000000097175,0.566411222155443
16700.0000000375,33.9679005685746,1.00000000098701,0.571337246874577
16800.000000036,33.8846671401685,1.00000000095313,0.580854431892699
16900.0000000346,33.7996040242694,1.00000000083006,0.579704511200453
17000.0000000331,33.7186417823402,1.00000000077734,0.567532004099147
17100.0000000317,33.6448872494361,1.00000000079893,0.56239864965037
17200.0000000302,33.5777444054974,1.0000000008346,0.559975936469737
17300.0000000287,33.5131082704641,1.00000000099695,0.559118452625556
17400.0000000273,33.4489263007615,1.00000000096572,0.559250944757974
17500.0000000258,33.3836160771372,1.00000000093422,0.562460047931866
17600.0000000244,33.317273463481,1.00000000096531,0.569118072538575
17700.0000000229,33.253804681134,1.00000000093472,0.56646807106987
17800.0000000215,33.1996936587701,1.00000000083276,0.558389683787784
17900.00000002,33.1597871260506,1.00000000076757,0.552928373581672
18000.0000000186,33.1354619784661,1.00000000079164,0.5474300251436
18100.0000000171,33.1233377092449,1.00000000084227,0.539471098743818
18200.0000000156,33.1188205427064,1.0000000009187,0.536788887392332
18300.0000000142,33.1156476606378,1.00000000090997,0.534005084294837
18400.0000000127,33.115957834993,1.00000000085568,0.537327563395897
18500.0000000113,33.1236651703466,1.00000000081405,0.535831979745393
18600.0000000098,33.1385877304134,1.00000000084425,0.53386184145344
18700.0000000084,33.1557107986457,1.00000000092943,0.5341656564509
18800.0000000069,33.1728020852521,1.00000000089928,0.537241558742237
18900.0000000055,33.1904359812914,1.00000000084478,0.532174434481795
19000.000000004,33.2096354972096,1.00000000089767,0.537874744897836
19100.0000000026,33.2264479159415,1.00000000094683,0.552534892826765
19200.0000000011,33.2386006886562,1.00000000090168,0.570024229014755
19299.9999999996,33.2479551463908,1.00000000088103,0.570973560300155
19399.9999999982,33.2556015221386,1.00000000089473,0.570010689498627
19499.9999999967,33.2626913388277,1.00000000087388,0.571194092632832
19599.9999999953,33.2675682195403,1.0000000008957,0.572280952506478
19699.9999999938,33.2666984498007,1.00000000099722,0.580418734208561
19799.9999999924,33.2588962800272,1.00000000097756,0.586242358531327
19899.9999999909,33.2463797770564,1.00000000089242,0.595217393570498
19999.9999999895,33.2321479474367,1.00000000090895,0.5986052102599
20099.999999988,33.2141518444734,1.00000000092797,0.59550375249907
20199.9999999865,33.1904682062568,1.00000000090093,0.595181645106937
20299.9999999851,33.1629278475309,1.00000000085353,0.593080907703871
20399.9999999836,33.1322263881185,1.00000000091532,0.588572332869906
20499.9999999822,33.0957977289559,1.00000000093107,0.57784644069054
20599.9999999807,33.0513615063646,1.00000000099141,0.573023137489879
20699.9999999793,32.9982004217394,1.00000000101049,0.582778085912086
20799.9999999778,32.9355817274387,1.0000000009586,0.590565266707556
20899.9999999764,32.8664464501431,1.00000000093114,0.592806579384385
20999.9999999749,32.7935500234497,1.00000000092152,0.591841161122648
21099.9999999734,32.7215811358522,1.00000000089549,0.590556819700083
21199.999999972,32.6531691050049,1.000000000805,0.58723362676863
21299.9999999705,32.5898159724517,1.00000000084459,0.587823031334087
21399.9999999691,32.5301744181794,1.00000000084947,0.586831387264214
21499.9999999676,32.4731751720644,1.00000000091806,0.582094060238794
21599.9999999662,32.4199474470024,1.00000000092734,0.581044770160713
21699.9999999647,32.3690790199234,1.0000000009643,0.58313150562222
21799.9999999633,32.3206722792634,1.00000000097644,0.582682979002887
21899.9999999618,32.273471436813,1.00000000097494,0.57768315138888
21999.9999999603,32.2273121359292,1.00000000096482,0.567997386622312
22099.9999999589,32.1823685080222,1.00000000089531,0.568114020773105
22199.9999999574,32.1429344440586,1.00000000085507,0.56792345733173
22299.999999956,32.1139164804377,1.00000000081821,0.565429275681706
22399.9999999545,32.0979643672133,1.00000000082337,0.567633601911219
22499.9999999531,32.093394754813,1.00000000091001,0.563019088864
22599.9999999516,32.0973563874563,1.00000000086971,0.557907891306883
22699.9999999502,32.1093023697201,1.00000000092191,0.558020517413223
22799.9999999487,32.1265818526183,1.00000000090719,0.552200931721537
22899.9999999473,32.1468023896115,1.00000000091174,0.549947631946492
22999.9999999458,32.1704191393635,1.00000000089576,0.544081736569563
23099.9999999443,32.1988275669274,1.00000000084803,0.543492631766238
23199.9999999429,32.2325679882226,1.00000000091528,0.545464889958839
23299.9999999414,32.2699249321105,1.00000000091788,0.548295929119335
23399.99999994,32.3090565471859,1.00000000086915,0.548844668425706
23499.9999999385,32.350451582351,1.00000000089634,0.550035810661985
23599.9999999371,32.3937160557097,1.00000000087789,0.553210138306058
23699.9999999356,32.4353476957268,1.00000000092815,0.557568484723655
23799.9999999342,32.4725195249863,1.00000000101624,0.565540890904337
23899.9999999327,32.5046500768329,1.00000000092835,0.573940287370748
23999.9999999312,32.5340755661775,1.00000000091669,0.578488677400362
24099.9999999298,32.5625742202752,1.00000000093329,0.584856871612146
24199.9999999283,32.5887270971304,1.00000000094847,0.589557514117046
24299.9999999269,32.6102793116738,1.00000000096416,0.600824915994964
24399.9999999254,32.6278875261958,1.0000000010099,0.607487672536443
24499.999999924,32.6428019112499,1.0000000009413,0.605183381974174
24599.9999999225,32.6555700156532,1.00000000091688,0.607339106414414
24699.9999999211,32.6674147210912,1.00000000093171,0.611198999807676
24799.9999999196,32.6782082498464,1.00000000092864,0.60498586983069
24899.9999999181,32.6874630927421,1.00000000091299,0.596487467252061
24999.9999999167,32.6964382151964,1.00000000093955,0.597175104828143
25099.9999999152,32.7026467349455,1.00000000101461,0.59776829155921
25199.9999999138,32.7027778031273,1.00000000095559,0.60386287706942
25299.9999999123,32.6984629786293,1.00000000093026,0.616439707711947
25399.9999999109,32.6906510787012,1.000000000933,0.617401849411291
25499.9999999094,32.6810767120765,1.0000000009378,0.618560886929215
25599.999999908,32.6689368775094,1.00000000097361,0.62016376408261
25699.9999999065,32.6546231616777,1.0000000009464,0.62062896411718
25799.9999999051,32.6409563782748,1.00000000084527,0.613725310886736
25899.9999999036,32.6283020385435,1.00000000090412,0.605476683752979
25999.9999999021,32.6130381378003,1.00000000098022,0.601658591820142
26099.9999999007,32.5943012436413,1.00000000099519,0.600461921733072
26199.9999998992,32.5720418195296,1.00000000095263,0.604362352292107
26299.9999998978,32.544923858493,1.00000000099796,0.609204698333936
26399.9999998963,32.5129339375072,1.00000000098324,0.609032163002747
26499.9999998949,32.4791818775065,1.00000000093978,0.612163295318315
26599.9999998934,32.4456058701896,1.00000000092371,0.616584630180103
26699.999999892,32.4115801124724,1.00000000093416,0.612842649699439
26799.9999998905,32.3764676914459,1.00000000094461,0.618804966148509
26899.999999889,32.3393665783461,1.00000000094555,0.62158776769077
26999.9999998876,32.3000407417446,1.00000000091708,0.617577674642944
27099.9999998861,32.2590123777313,1.00000000092609,0.612241287806002
27199.9999998847,32.2154891352903,1.00000000092332,0.611845123092091
27299.9999998832,32.1691373292118,1.00000000090463,0.608101854402089
27399.9999998818,32.1200251250508,1.00000000100204,0.610929629444342
27499.9999998803,32.0685558613213,1.00000000096815,0.612484166865007
27599.9999998789,32.0141558002455,1.00000000098301,0.612433571750958
27699.9999998774,31.9568787604041,1.0000000010009,0.612469968648927
27799.9999998759,31.8960697032197,1.0000000009822,0.620886958137474
27899.9999998745,31.832281288119,1.00000000100981,0.627197004531397
27999.999999873,31.765552693004,1.00000000098676,0.627551416073361
28099.9999998716,31.6967300806377,1.00000000095217,0.62733053232536
28199.9999998701,31.6278404293606,1.00000000093043,0.619205487007833
28299.9999998687,31.5602496461799,1.00000000088404,0.614049865888773
28399.9999998672,31.4958775864299,1.00000000086938,0.60603522159859
28499.9999998658,31.4349428016933,1.0000000008552,0.600711350215074
28599.9999998643,31.3766934529109,1.00000000092725,0.607552686481726
28699.9999998629,31.3212743086984,1.00000000092307,0.616003658088569
28799.9999998614,31.2692283877092,1.00000000093515,0.619099943068399
28899.9999998599,31.2203628830376,1.00000000103235,0.623085759972614
28999.9999998585,31.1736228428907,1.00000000098765,0.62031008701779
