Time,AGPnorm,Energy,Entropy
0,0,1,-5.31234895215975e-18
99.9999999999986,0.00293171827814754,0.999999999996845,0.00984827714046457
199.999999999993,0.00846715395248382,0.999999999999396,0.0282853896643043
300,0.0178813515116511,0.999999999997806,0.0555661592363659
400.000000000022,0.028385156300875,0.999999999998956,0.0885477452710072
500.000000000045,0.0404084533551979,0.999999999999392,0.130508159865149
600.000000000068,0.0534161833751966,1.00000000000642,0.182394521119072
700.000000000091,0.0644225584108223,1.00000000005371,0.250023454232312
800.000000000113,0.107952208767422,1.00000000022455,0.32803975568641
900.000000000136,0.236825179699155,1.00000000049761,0.403031898634584
1000.00000000016,0.714089414370915,1.00000000068774,0.461685905293491
1100.0000000001,1.71510710699608,1.00000000090816,0.503255390435465
1200,3.53248873456196,1.00000000104752,0.528952332793431
1299.99999999991,6.1480248071729,1.00000000110573,0.545086168448448
1399.99999999982,9.59016587028403,1.00000000116326,0.551711923003245
1499.99999999973,13.6151090406769,1.00000000114074,0.554392671239612
1599.99999999964,18.0793844829925,1.00000000116235,0.55261683045211
1699.99999999955,22.6964491552508,1.00000000109683,0.547782986079202
1799.99999999946,27.2997907601506,1.00000000105937,0.542245348352394
1899.99999999937,31.6729223213497,1.00000000100855,0.534158647875036
1999.99999999928,35.7014551195457,1.00000000096729,0.528338579077087
2099.99999999919,39.2611487511555,1.0000000008802,0.516329896410418
2199.99999999909,42.3062823427649,1.00000000087307,0.518423308840593
2299.999999999,44.8100227956927,1.00000000083073,0.503185779893156
2399.99999999891,46.7354461498785,1.00000000074252,0.491273149602294
2499.99999999882,48.1696023937135,1.00000000078539,0.521368420985777
2599.99999999873,49.1473913294349,1.00000000066562,0.485202343633946
2699.99999999864,49.5898192657682,1.00000000053948,0.454813142529593
2799.99999999855,49.6741814493075,1.00000000078747,0.529649064656237
2899.99999999846,49.6099389448377,1.00000000078195,0.522153234377803
2999.99999999837,49.2277882084375,1.00000000040589,0.408277266785971
3099.99999999828,48.4819824786783,1.00000000054514,0.439529856715753
3199.99999999819,47.6750774128933,1.00000000094446,0.54945803531377
3299.99999999809,46.9716180970002,1.00000000088859,0.549775858053093
3399.999999998,46.212728002229,1.00000000051457,0.414020617768352
3499.99999999791,45.2224102082923,1.00000000027654,0.319997527438353
3599.99999999782,44.1329068397976,1.00000000067137,0.44773006474643
3699.99999999773,43.105004683169,1.00000000106823,0.539907454485708
3799.99999999764,42.2214374805636,1.00000000102886,0.56037681919489
3899.99999999755,41.4213273778897,1.00000000077024,0.49653604463476
3999.99999999746,40.5677314503807,1.00000000036908,0.341866880308335
4099.99999999738,39.6487890061747,1.00000000026455,0.281664099286131
4199.99999999775,38.7399039406681,1.00000000056663,0.39942124720434
4299.99999999811,37.8541161911801,1.00000000087298,0.507581430417736
4399.99999999848,37.0046377684603,1.00000000092468,0.507523546224091
4499.99999999884,36.2184252505189,1.00000000098511,0.532790822576966
4599.9999999992,35.5036778883796,1.00000000091913,0.556596947901612
4699.99999999957,34.8175971347182,1.00000000062183,0.473488301488486
4799.99999999993,34.1285725195706,1.00000000029815,0.332004854212684
4900.00000000029,33.493297742225,1.00000000029016,0.272184133301113
5000.00000000066,32.9602041620779,1.00000000043783,0.340020079258086
5100.00000000102,32.4762945041485,1.00000000073753,0.44649663845309
5200.00000000139,31.9611459630653,1.00000000091004,0.529142038015046
5300.00000000175,31.4212977595603,1.00000000074815,0.527463980131426
5400.00000000211,30.8937380115743,1.00000000058887,0.459645212512666
5500.00000000248,30.3720249550518,1.00000000077539,0.463515025134147
5600.00000000284,29.8401843436343,1.00000000099779,0.529053040103093
5700.00000000321,29.32002425978,1.00000000103536,0.567945124802071
5800.00000000357,28.8267466595682,1.00000000082787,0.544219996545283
5900.00000000393,28.3520113833615,1.00000000052355,0.450567437754626
6000.0000000043,27.9272607371079,1.00000000027911,0.336927073250233
6100.00000000466,27.630917647009,1.00000000024297,0.271336550140861
6200.00000000502,27.5008768258276,1.00000000038909,0.296120123703144
6300.00000000539,27.4800990226638,1.00000000060879,0.382423084442697
6400.00000000575,27.4737545109106,1.00000000068685,0.467038489529296
6500.00000000612,27.410828956357,1.00000000080053,0.509586793829868
6600.00000000648,27.2648809344181,1.00000000081853,0.513505865651958
6700.00000000684,27.0438142034318,1.00000000080394,0.528194601487796
6800.00000000721,26.7749554519443,1.00000000080134,0.542245639435311
6900.00000000757,26.5031147394856,1.000000000576,0.50982159280691
7000.00000000793,26.2599785515991,1.00000000050466,0.472347927434695
7100.0000000083,26.0331910473564,1.00000000059642,0.487113094021845
7200.00000000866,25.7889854884452,1.00000000069744,0.505588971591267
7300.00000000903,25.5165722421733,1.00000000075403,0.505320388290678
7400.00000000939,25.2175065883981,1.00000000086776,0.511643652876388
7500.00000000975,24.8961896312888,1.00000000106575,0.542075253630801
7600.00000001012,24.5732651011243,1.00000000100478,0.569057812632895
7700.00000001048,24.2604612630881,1.00000000088624,0.562036858012247
7800.00000001084,23.9554561209971,1.00000000061138,0.512165580236107
7900.00000001121,23.671792436398,1.00000000039967,0.428001504134923
8000.00000001157,23.46304944808,1.0000000002532,0.346025789515151
8100.00000001194,23.401678514561,1.00000000023113,0.292660699268365
8200.0000000123,23.5355875957205,1.00000000029784,0.2806280625863
8300.00000001266,23.8506900822546,1.00000000043366,0.322682250792358
8400.00000001303,24.2758606466294,1.00000000057093,0.381841779335541
8500.00000001339,24.7109485392707,1.00000000074961,0.44281907510922
8600.00000001376,25.0744790139917,1.00000000078632,0.495029715684786
8700.00000001412,25.3489704256416,1.00000000075987,0.517755756151793
8800.00000001448,25.5384278868022,1.00000000077242,0.53028780272284
8900.00000001485,25.6453343970624,1.00000000081756,0.554250930293344
9000.00000001521,25.6822859061186,1.00000000073623,0.558982698331316
9100.00000001557,25.6747023494862,1.00000000067575,0.537320388017351
9200.00000001594,25.6394513271133,1.00000000066712,0.517364727753
9300.0000000163,25.5715515692181,1.00000000074862,0.516880042114803
9400.00000001667,25.4594330313931,1.00000000082592,0.531679135641384
9500.00000001703,25.3163622414665,1.00000000073568,0.537181392571625
9600.00000001739,25.1744753371605,1.0000000005743,0.521188928009503
9700.00000001776,25.0548831507521,1.00000000055245,0.499474350707303
9800.00000001812,24.9495378464775,1.00000000062657,0.494109501636547
9900.00000001848,24.8450835724868,1.00000000066164,0.498141054499131
10000.0000000188,24.7386599279567,1.00000000066163,0.506275680345292
10100.0000000192,24.6296787306702,1.00000000065352,0.512494139440718
10200.0000000196,24.5164275584429,1.00000000069108,0.521678273601566
10300.0000000199,24.3920411623878,1.00000000074906,0.535164825255334
10400.0000000203,24.2536000692455,1.00000000071151,0.547882669596518
10500.0000000207,24.1083038672684,1.00000000060841,0.54988624454083
10600.000000021,23.9628642735191,1.00000000054793,0.546937169924593
10700.0000000214,23.8172168323189,1.00000000060698,0.542759934439155
10800.0000000218,23.6629161825208,1.00000000063871,0.546525714467949
10900.0000000221,23.4930935747166,1.00000000075775,0.550656958272089
11000.0000000225,23.3074109423149,1.00000000079734,0.551717260605908
11100.0000000229,23.1110778465147,1.0000000008744,0.557585751908738
11200.0000000232,22.9136189103126,1.00000000102246,0.560424819296266
11300.0000000236,22.7265728066259,1.00000000100672,0.56843497842091
11400.0000000239,22.5577373684783,1.00000000107481,0.576476581322661
11500.0000000243,22.4037496994094,1.00000000093434,0.575290418683452
11600.0000000247,22.2505653253281,1.00000000076477,0.559976182953112
11700.000000025,22.0835477422694,1.00000000057518,0.521419242535991
11800.0000000254,21.9033674652275,1.0000000004082,0.467032277535397
11900.0000000258,21.735230296624,1.00000000033395,0.410285364972636
12000.0000000261,21.6238732050282,1.00000000026185,0.355915816008455
12100.0000000265,21.6258002346814,1.00000000020589,0.312545636582944
12200.0000000269,21.7919281328932,1.00000000026238,0.298962987324051
12300.0000000272,22.1489021561593,1.00000000029461,0.297032325948578
12400.0000000276,22.7041779999487,1.00000000034309,0.311238607280796
12500.0000000279,23.4073575960778,1.0000000006022,0.348265344462643
12600.0000000283,24.1927575713559,1.00000000059159,0.388988544862752
12700.0000000287,25.0004371365345,1.00000000077498,0.428370763886873
12800.000000029,25.7645060872969,1.00000000082634,0.46540977733762
12900.0000000294,26.4513738934265,1.00000000080617,0.497231343573478
13000.0000000298,27.0554759508529,1.00000000080737,0.513551273533366
13100.0000000301,27.5769435222788,1.00000000079623,0.528030045199437
13200.0000000305,28.016287264738,1.00000000074945,0.553208527546719
13300.0000000309,28.3789455032197,1.0000000007442,0.566935178638269
13400.0000000312,28.6727243599976,1.00000000079145,0.565722233561083
13500.0000000316,28.9065077037881,1.0000000007308,0.558910832623016
13600.0000000319,29.0918958985136,1.00000000070417,0.560574556948991
13700.0000000323,29.2296529941733,1.00000000074754,0.578675427528638
13800.0000000327,29.3175285365911,1.00000000080125,0.586574415786185
13900.000000033,29.36417547391,1.00000000072493,0.574984322903144
14000.0000000334,29.381118339562,1.00000000072982,0.563114175815669
14100.0000000338,29.3677959363899,1.00000000073997,0.548921334841387
14200.0000000341,29.3347638557297,1.00000000070174,0.540868043255127
14300.0000000345,29.2956728695885,1.00000000070314,0.53826110974467
14400.0000000349,29.2427184899385,1.00000000073588,0.55139677237337
14500.0000000352,29.1716632369435,1.00000000069031,0.550650991919194
14600.0000000356,29.0877897459335,1.0000000006714,0.561056170552074
14700.0000000359,28.9940010113264,1.00000000076116,0.567737645720237
14800.0000000363,28.8879264746831,1.00000000076774,0.564199974824778
14900.0000000367,28.7730685626063,1.00000000073929,0.56180958118138
15000.000000037,28.6528044331969,1.00000000074551,0.563024312407277
15100.0000000374,28.5317140950826,1.00000000061929,0.551681443900666
15200.0000000378,28.4170086301161,1.00000000057004,0.542680467366832
15300.0000000381,28.3100447455261,1.00000000059584,0.537794921004948
15400.0000000385,28.2031266746942,1.00000000072978,0.538083480418391
15500.0000000389,28.0900512249485,1.00000000077337,0.544319062103508
15600.0000000392,27.9716661981661,1.00000000081338,0.549338360848668
15700.0000000396,27.8460794690476,1.00000000080519,0.559329345848415
15800.0000000399,27.7113750617103,1.00000000079788,0.566224418598785
15900.0000000403,27.5747871438418,1.00000000069195,0.562415967342392
16000.0000000407,27.4435385913966,1.00000000061326,0.554048882693988
16100.000000041,27.3238022903635,1.00000000065371,0.548020250089939
16200.0000000414,27.2188653506288,1.0000000006365,0.536502280558659
16300.0000000418,27.1303233912406,1.00000000058529,0.52940425737443
16400.0000000418,27.0599474339643,1.00000000056573,0.511782046289999
16500.0000000404,26.9993907336703,1.00000000073496,0.501989020871258
16600.0000000389,26.9373765188696,1.00000000070881,0.504757741176065
16700.0000000375,26.8766959016779,1.00000000063698,0.509097766117515
16800.000000036,26.8257673497266,1.00000000058705,0.511651227978564
16900.0000000346,26.7823596911364,1.00000000068279,0.529350814110696
17000.0000000331,26.7407089175312,1.00000000067886,0.551104313335173
17100.0000000317,26.6968834172821,1.00000000073455,0.565042589862977
17200.0000000302,26.6439430566876,1.00000000080566,0.564506734700583
17300.0000000287,26.5792553148825,1.00000000076916,0.552994015800924
17400.0000000273,26.5099653824252,1.00000000067333,0.546983888895304
17500.0000000258,26.4448334935563,1.00000000060285,0.548993699181897
17600.0000000244,26.3805846240902,1.00000000070181,0.559534048137171
17700.0000000229,26.3103998837838,1.0000000007189,0.567493750845498
17800.0000000215,26.2366088530371,1.0000000006691,0.582045207425038
17900.00000002,26.1637653434013,1.000000000686,0.581657196835189
18000.0000000186,26.0862059997491,1.00000000077286,0.591084759705553
18100.0000000171,26.0002116268109,1.00000000071514,0.588993128429294
18200.0000000156,25.9083065228937,1.00000000073719,0.587213160926305
18300.0000000142,25.8098685660111,1.00000000073336,0.587999524108284
18400.0000000127,25.7062184831516,1.00000000078493,0.596619829551583
18500.0000000113,25.60273602366,1.00000000060887,0.588822311111939
18600.0000000098,25.5055970043288,1.00000000060044,0.576700445787022
18700.0000000084,25.411171487847,1.00000000068694,0.57552981002845
18800.0000000069,25.3136517380588,1.00000000076689,0.57139001584164
18900.0000000055,25.214966931251,1.00000000068338,0.560442579615614
19000.000000004,25.1190543224207,1.00000000063181,0.566151416998748
19100.0000000026,25.0262634076518,1.00000000065649,0.57418719398905
19200.0000000011,24.9327471535489,1.00000000071967,0.577345485949569
19299.9999999996,24.8393296454576,1.00000000064553,0.576366455156343
19399.9999999982,24.7472098650761,1.00000000068903,0.582380324312024
19499.9999999967,24.6562365748068,1.0000000007177,0.578314534038516
19599.9999999953,24.5636604337278,1.00000000073344,0.5705765026741
19699.9999999938,24.4660336919412,1.00000000073995,0.58392051844866
19799.9999999924,24.3643226515722,1.00000000074569,0.578023681594646
19899.9999999909,24.2603324989398,1.00000000066749,0.568008914584995
19999.9999999895,24.1547213723833,1.0000000007371,0.572182166163417
20099.999999988,24.0461706525299,1.00000000078957,0.588955322340695
20199.9999999865,23.9346996330429,1.00000000077883,0.6054131077994
20299.9999999851,23.821741319968,1.00000000073494,0.604046421362546
20399.9999999836,23.7096035685554,1.00000000063641,0.593176702653942
20499.9999999822,23.6001242443276,1.00000000061435,0.58453574223491
20599.9999999807,23.4907572051458,1.00000000072145,0.596510772571329
20699.9999999793,23.3794206698173,1.00000000078343,0.605858041595868
20799.9999999778,23.2678533036043,1.0000000007287,0.612708466823509
20899.9999999764,23.1573403868681,1.00000000059616,0.58744354885277
20999.9999999749,23.0479115952809,1.00000000056606,0.579372830918697
21099.9999999734,22.939417653067,1.00000000063485,0.591525277154069
21199.999999972,22.8317705230206,1.00000000061496,0.596719855946187
21299.9999999705,22.7252995906888,1.00000000058325,0.592023440052091
21399.9999999691,22.620137260432,1.00000000061463,0.588479269863951
21499.9999999676,22.5169634118673,1.0000000006041,0.594455882100137
21599.9999999662,22.4162693761282,1.00000000070231,0.601158517220055
21699.9999999647,22.3202312221352,1.00000000072773,0.592960063487475
21799.9999999633,22.2306803336963,1.00000000074718,0.593397479803981
21899.9999999618,22.1507426754565,1.00000000080365,0.606218631027639
21999.9999999603,22.0856568847241,1.0000000008465,0.607825628625251
22099.9999999589,22.0380023134005,1.00000000086468,0.603170786567668
22199.9999999574,22.0171641210149,1.00000000086981,0.612128115896285
22299.999999956,22.0216790122626,1.00000000097157,0.614383462133135
22399.9999999545,22.0673603515256,1.00000000103643,0.617539821633442
22499.9999999531,22.1476115733749,1.00000000098309,0.623436959990871
22599.9999999516,22.277420366033,1.00000000100173,0.620135725435979
22699.9999999502,22.4433844384798,1.00000000105075,0.615566389951675
22799.9999999487,22.6569836390729,1.00000000097288,0.607531562272114
22899.9999999473,22.9030842901967,1.00000000112379,0.599818580902508
22999.9999999458,23.1739567877383,1.00000000091718,0.592523828866705
23099.9999999443,23.4469202498172,1.00000000090804,0.584514908610743
23199.9999999429,23.6994912608238,1.00000000077928,0.575398696445504
23299.9999999414,23.9141638233783,1.00000000069879,0.557747572448692
23399.99999994,24.0727682901403,1.0000000006209,0.533748534146561
23499.9999999385,24.1660936834676,1.00000000051324,0.504717292088354
23599.9999999371,24.197089564725,1.00000000045533,0.477920823141232
23699.9999999356,24.1672895120188,1.00000000039768,0.445915380820798
23799.9999999342,24.1025734325464,1.00000000035127,0.415344544161729
23899.9999999327,24.0129122400622,1.00000000032995,0.388864912402896
23999.9999999312,23.9382846540614,1.00000000025244,0.360651332052256
24099.9999999298,23.899883836577,1.00000000023747,0.338386941004419
24199.9999999283,23.9359219950886,1.00000000023631,0.317676296998842
24299.9999999269,24.0783605705804,1.00000000021603,0.305254695031939
24399.9999999254,24.3513844390308,1.00000000025117,0.300926878431055
24499.999999924,24.7817832614804,1.00000000024606,0.29551188309593
24599.9999999225,25.3838235642944,1.0000000002808,0.305066602808014
24699.9999999211,26.15133532828,1.00000000034532,0.311769871406507
24799.9999999196,27.1014270539618,1.00000000036363,0.324119434700787
24899.9999999181,28.1776291921062,1.00000000051587,0.338685119100718
24999.9999999167,29.3996427225681,1.00000000053661,0.357381992520343
25099.9999999152,30.6870818848239,1.00000000064011,0.377139178141795
25199.9999999138,32.0545983722916,1.00000000069126,0.39560239283315
25299.9999999123,33.4260464540003,1.00000000074174,0.41360760898948
25399.9999999109,34.8132103270846,1.00000000078268,0.423991279763224
25499.9999999094,36.1631236861427,1.00000000087605,0.443430193888703
25599.999999908,37.4678577198101,1.0000000008557,0.461947807720522
25699.9999999065,38.7281715012955,1.00000000088703,0.475142043347734
25799.9999999051,39.9103613178299,1.00000000085912,0.482080955200457
25899.9999999036,41.034171453319,1.00000000086547,0.496879310972129
25999.9999999021,42.078652048962,1.00000000088104,0.516170813761957
26099.9999999007,43.0647274044358,1.00000000085013,0.522086717216291
26199.9999998992,43.9780537227306,1.00000000083706,0.530987753171984
26299.9999998978,44.8199819704397,1.00000000078953,0.535694237315364
26399.9999998963,45.6020860225097,1.00000000075343,0.548511369438501
26499.9999998949,46.3157360801062,1.00000000076533,0.559970046551666
26599.9999998934,46.9861428295964,1.00000000076719,0.568844176375197
26699.999999892,47.5940850871851,1.00000000072945,0.568715059972348
26799.9999998905,48.1611964108153,1.00000000079227,0.568698389283639
26899.999999889,48.669847937523,1.00000000080444,0.578670952126514
26999.9999998876,49.1256991462586,1.00000000078169,0.591741487356973
27099.9999998861,49.5297899163689,1.00000000080573,0.601780952243631
27199.9999998847,49.8912963405987,1.00000000077506,0.596215742414912
27299.9999998832,50.2261106744939,1.00000000072676,0.589769246470823
27399.9999998818,50.5164197556961,1.00000000082725,0.587438817659911
27499.9999998803,50.7656762782438,1.00000000082808,0.60409569790844
27599.9999998789,50.9585164835418,1.00000000086481,0.61542001513068
27699.9999998774,51.1195803928869,1.00000000077578,0.622710029476655
27799.9999998759,51.2535413710641,1.00000000069415,0.607740823834487
27899.9999998745,51.3756697926941,1.00000000068945,0.591415943597272
27999.999999873,51.4792770204745,1.00000000075849,0.586475016867156
28099.9999998716,51.5491390531907,1.00000000087643,0.599148900382898
28199.9999998701,51.583434932815,1.00000000082388,0.607761581318184
28299.9999998687,51.588624869118,1.00000000073777,0.601899578280042
28399.9999998672,51.5865120542818,1.00000000070993,0.601732048912438
28499.9999998658,51.5757125523037,1.00000000073085,0.593755196208008
28599.9999998643,51.5609712784442,1.00000000074538,0.594913379049471
28699.9999998629,51.5342596251454,1.00000000076635,0.586878495590581
28799.9999998614,51.4941397029209,1.00000000079322,0.571338600272801
28899.9999998599,51.4417007817513,1.00000000076387,0.565409843409041
28999.9999998585,51.3774308641248,1.00000000086312,0.57347120709232
