Time,AGPnorm,Energy,Entropy
0,0,1,-7.38389809129348e-17
99.9999999999986,0.000405382640179447,1.0000000000011,0.00157671681582026
199.999999999993,0.0027233117298876,1.00000000000199,0.00480005626937653
300,0.00578790888824639,1.00000000000122,0.00899133158815838
400.000000000022,0.00903924029625498,1.00000000000014,0.0141697854994708
500.000000000045,0.0128964768709026,1.00000000000038,0.0204433756011691
600.000000000068,0.0179055770682905,1.00000000000166,0.027741466198016
700.000000000091,0.0237278521766621,1.00000000000178,0.0357300978512945
800.000000000113,0.029721907851325,1.00000000000065,0.0443161011001382
900.000000000136,0.0365467680809,1.00000000000014,0.0537035681325121
1000.00000000016,0.0438036949275801,1.00000000000089,0.0639478430484973
1100.0000000001,0.0517152398238469,1.00000000000196,0.0750903759330665
1200,0.0594870198150955,1.00000000000127,0.0869946230780014
1299.99999999991,0.0680541599827919,1.00000000000034,0.0997680805912336
1399.99999999982,0.0766424374975746,1.00000000000044,0.113719530600535
1499.99999999973,0.0853574826098431,1.00000000000168,0.128984547862952
1599.99999999964,0.0944142976833437,1.00000000000225,0.145861271583612
1699.99999999955,0.10324972281769,1.00000000000229,0.164444139461383
1799.99999999946,0.112402458596837,1.00000000000497,0.18535558641912
1899.99999999937,0.120487319854413,1.00000000001257,0.20889026432431
1999.99999999928,0.131358581825726,1.00000000002939,0.234995073831132
2099.99999999919,0.148443845111755,1.00000000005651,0.262707555101174
2199.99999999909,0.174308890620651,1.00000000008995,0.290919376182704
2299.999999999,0.215980582280626,1.00000000013852,0.318788487454522
2399.99999999891,0.303389580968324,1.00000000018841,0.345120088735164
2499.99999999882,0.478371845348216,1.00000000025021,0.369600956425929
2599.99999999873,0.771987015156008,1.00000000029472,0.391726473815769
2699.99999999864,1.22016786871775,1.00000000035503,0.411810576960549
2799.99999999855,1.88155750807362,1.00000000038095,0.429894817824641
2899.99999999846,2.82610609358093,1.00000000043863,0.446032443584632
2999.99999999837,4.10314852189418,1.00000000048223,0.460354868393181
3099.99999999828,5.74285212098133,1.00000000050879,0.473124693633516
3199.99999999819,7.77958650025616,1.00000000053429,0.484459431379117
3299.99999999809,10.2465499420811,1.00000000055916,0.494401405760723
3399.999999998,13.169921968367,1.00000000054705,0.503177026053142
3499.99999999791,16.5528183364625,1.00000000061062,0.510532027046526
3599.99999999782,20.3820642658926,1.00000000060844,0.517274238365025
3699.99999999773,24.6399693423036,1.000000000595,0.523021305240626
3799.99999999764,29.3087982142828,1.00000000065482,0.527467342427029
3899.99999999755,34.3715117408847,1.00000000062105,0.531681993056435
3999.99999999746,39.7895813419455,1.00000000064389,0.535515688216045
4099.99999999738,45.513489664243,1.0000000006593,0.537644099984062
4199.99999999775,51.4942314004521,1.00000000062544,0.53990086585752
4299.99999999811,57.7000492280998,1.00000000063739,0.542060373135767
4399.99999999848,64.0934199452692,1.00000000062657,0.543184666716429
4499.99999999884,70.6240822462477,1.00000000059085,0.543633296509769
4599.9999999992,77.2323886113802,1.00000000060774,0.544767721824221
4699.99999999957,83.8752383304608,1.00000000058162,0.544593468496214
4799.99999999993,90.5299736407622,1.00000000059776,0.544106699253853
4900.00000000029,97.1581878554832,1.00000000055682,0.544462087428086
5000.00000000066,103.71008362043,1.00000000056534,0.542963995455036
5100.00000000102,110.14480751923,1.00000000052965,0.542655063053365
5200.00000000139,116.443460667501,1.00000000055769,0.542263635352465
5300.00000000175,122.590293156353,1.00000000051933,0.540787952437066
5400.00000000211,128.55298321257,1.00000000051721,0.539554574542891
5500.00000000248,134.300871322633,1.00000000052717,0.539221382126546
5600.00000000284,139.814659360267,1.00000000051504,0.537505584716022
5700.00000000321,145.09238683045,1.00000000049141,0.535700217773431
5800.00000000357,150.12097888184,1.00000000048149,0.534627658991241
5900.00000000393,154.879603470389,1.00000000048099,0.533508958801006
6000.0000000043,159.35407903901,1.00000000046383,0.531249788205807
6100.00000000466,163.544122306524,1.00000000046237,0.529351394944369
6200.00000000502,167.453661904608,1.00000000045626,0.528952391172768
6300.00000000539,171.077984902248,1.00000000043435,0.528113851095433
6400.00000000575,174.408103022744,1.00000000041431,0.524467937654672
6500.00000000612,177.441170427261,1.00000000041607,0.521895746639089
6600.00000000648,180.188674677953,1.00000000039694,0.524048585989995
6700.00000000684,182.665522898984,1.00000000040691,0.526456927979614
6800.00000000721,184.870940048183,1.00000000039412,0.521738064911941
6900.00000000757,186.79519549571,1.00000000038467,0.512812246113295
7000.00000000793,188.440494881221,1.00000000036172,0.512828786790907
7100.0000000083,189.834884765658,1.00000000038699,0.523277106022801
7200.00000000866,191.010857378864,1.00000000039462,0.530288895345596
7300.00000000903,191.97514395082,1.0000000003687,0.520574384833118
7400.00000000939,192.701402651593,1.00000000031665,0.501067807329646
7500.00000000975,193.172717184418,1.00000000029726,0.497289663669378
7600.00000001012,193.426277618498,1.00000000033702,0.518021268548085
7700.00000001048,193.530336235169,1.00000000038612,0.538610377813527
7800.00000001084,193.523344146845,1.00000000037948,0.536549159734204
7900.00000001121,193.377759414911,1.00000000033693,0.507250845392485
8000.00000001157,193.033065422856,1.0000000002593,0.474959789754617
8100.00000001194,192.472920689587,1.00000000024941,0.479741246382704
8200.0000000123,191.763371299525,1.00000000033716,0.51838276529022
8300.00000001266,190.998679525683,1.00000000042525,0.548705252955483
8400.00000001303,190.227541078667,1.00000000045485,0.550128088103811
8500.00000001339,189.422867730452,1.00000000036505,0.517361134681312
8600.00000001376,188.503927283079,1.00000000023862,0.46252734757878
8700.00000001412,187.412735108429,1.0000000001844,0.436036437167681
8800.00000001448,186.177876609659,1.00000000026694,0.472512697587674
8900.00000001485,184.890621289664,1.00000000040663,0.525014208944424
9000.00000001521,183.634298343718,1.00000000049359,0.553543912963757
9100.00000001557,182.439246623785,1.00000000047413,0.555357024747301
9200.00000001594,181.274420551592,1.00000000042009,0.523425680175391
9300.0000000163,180.065518816633,1.00000000028544,0.457171403733271
9400.00000001667,178.746562107123,1.00000000016297,0.398873333615536
9500.00000001703,177.313191134632,1.00000000017956,0.405519230732473
9600.00000001739,175.820763979729,1.00000000030313,0.469887039043969
9700.00000001776,174.336799502415,1.00000000044363,0.527056472733775
9800.00000001812,172.910560710354,1.0000000005101,0.552604673657697
9900.00000001848,171.560988593526,1.00000000051927,0.55474258477833
10000.0000000188,170.270545383777,1.00000000046226,0.533955137353749
10100.0000000192,168.991520394616,1.00000000034254,0.477040365791304
10200.0000000196,167.66883569803,1.00000000022457,0.399236729275081
10300.0000000199,166.274842899763,1.00000000014689,0.353590195218898
10400.0000000203,164.825526067653,1.00000000018195,0.376585880672424
10500.0000000207,163.359170440764,1.00000000030586,0.445361872092206
10600.000000021,161.910393116147,1.00000000043702,0.50635989626283
10700.0000000214,160.504397730969,1.00000000050822,0.536545366150151
10800.0000000218,159.156306723914,1.00000000055549,0.545357469807666
10900.0000000221,157.866598406034,1.00000000048061,0.54282724938559
11000.0000000225,156.619356277802,1.00000000044591,0.52136824167008
11100.0000000229,155.386721180714,1.00000000035889,0.473608871134326
11200.0000000232,154.141155225104,1.0000000002555,0.407431616178935
11300.0000000236,152.870186311241,1.00000000018162,0.354034217879244
11400.0000000239,151.580805180253,1.00000000016726,0.346022406233087
11500.0000000243,150.289496806769,1.00000000022586,0.380439745387128
11600.0000000247,149.009424161378,1.00000000031963,0.441458943255663
11700.000000025,147.748035089804,1.00000000041686,0.493086832868066
11800.0000000254,146.510146561913,1.00000000045941,0.516990324151469
11900.0000000258,145.300414598215,1.00000000052545,0.52456813343234
12000.0000000261,144.122665283271,1.00000000049611,0.531374558666016
12100.0000000265,142.976914868329,1.00000000044999,0.533923761358803
12200.0000000269,141.856931291102,1.00000000041304,0.517667614447352
12300.0000000272,140.75162963905,1.00000000034706,0.481073602064478
12400.0000000276,139.651871958361,1.00000000028832,0.433222995308487
12500.0000000279,138.556364331384,1.00000000025547,0.389520846432361
12600.0000000283,137.471508073428,1.00000000022965,0.363759409567029
12700.0000000287,136.40637526315,1.00000000022403,0.36726448413554
12800.000000029,135.366594864015,1.00000000026462,0.394858543525163
12900.0000000294,134.350565815729,1.00000000031984,0.429639528855353
13000.0000000298,133.352185914859,1.00000000036613,0.470289084104335
13100.0000000301,132.366130392589,1.00000000037812,0.499664280719299
13200.0000000305,131.390365259722,1.00000000038299,0.506417600881456
13300.0000000309,130.424287858748,1.0000000003969,0.500188169376586
13400.0000000312,129.467074780152,1.00000000045316,0.503640954279681
13500.0000000316,128.518940623045,1.00000000049463,0.52035230807714
13600.0000000319,127.581902002678,1.00000000050314,0.535600079408922
13700.0000000323,126.657629663998,1.00000000042625,0.531308749780916
13800.0000000327,125.746938582261,1.00000000036198,0.502917268717017
13900.000000033,124.851708384885,1.00000000027507,0.456846647918597
14000.0000000334,123.977516312502,1.00000000020394,0.412611170483272
14100.0000000338,123.132453262383,1.00000000020361,0.382855045447763
14200.0000000341,122.321730753897,1.00000000024217,0.374966546080721
14300.0000000345,121.545390644311,1.00000000029768,0.38348605052966
14400.0000000349,120.80030259862,1.00000000032544,0.409057325635001
14500.0000000352,120.079549048568,1.00000000032577,0.437940279400354
14600.0000000356,119.374708110949,1.00000000037078,0.460161358068788
14700.0000000359,118.677476016528,1.00000000038858,0.478950278629421
14800.0000000363,117.98339678516,1.00000000037328,0.4961845535052
14900.0000000367,117.293996997752,1.00000000036398,0.500658688046645
15000.000000037,116.61395067733,1.00000000029122,0.491592997169321
15100.0000000374,115.945110290265,1.0000000003172,0.479299342631893
15200.0000000378,115.281525108888,1.0000000003849,0.479042192104294
15300.0000000381,114.613208482619,1.00000000045718,0.49470389509287
15400.0000000385,113.934244992771,1.00000000050007,0.515285195153503
15500.0000000389,113.246024513133,1.00000000050344,0.532924054447984
15600.0000000392,112.554413879349,1.00000000047952,0.5374784159768
15700.0000000396,111.866317995498,1.00000000040622,0.523944294719678
15800.0000000399,111.189268296715,1.00000000036377,0.494794663000671
15900.0000000403,110.532296346419,1.000000000292,0.455751450708137
16000.0000000407,109.906644750352,1.00000000022121,0.419353129415002
16100.000000041,109.323542104226,1.00000000020213,0.391856037640801
16200.0000000414,108.787481150803,1.00000000020715,0.377620491287808
16300.0000000418,108.294182200355,1.00000000026557,0.381566978063097
16400.0000000418,107.832945139342,1.00000000032622,0.400281286362317
16500.0000000404,107.393851909595,1.00000000035095,0.42378203125071
16600.0000000389,106.968875956295,1.0000000003636,0.444999775564896
16700.0000000375,106.552084796973,1.00000000036765,0.464159381660036
16800.000000036,106.137061212834,1.00000000038115,0.477504018738265
16900.0000000346,105.719684281121,1.00000000041517,0.487372569500417
17000.0000000331,105.297050703917,1.00000000040976,0.49660668428352
17100.0000000317,104.86924213293,1.00000000039432,0.505831255342748
17200.0000000302,104.44009577429,1.00000000034843,0.509435911105838
17300.0000000287,104.014761226467,1.00000000030936,0.508022922224594
17400.0000000273,103.598333044918,1.00000000029882,0.502686970529313
17500.0000000258,103.190003239012,1.00000000029581,0.495817257259588
17600.0000000244,102.784371354973,1.00000000033946,0.492188859844063
17700.0000000229,102.373118271189,1.00000000037685,0.488735206907742
17800.0000000215,101.949791965864,1.00000000042943,0.49254900751872
17900.00000002,101.51043104757,1.00000000045458,0.501910633025187
18000.0000000186,101.054455232266,1.00000000047795,0.515338062761402
18100.0000000171,100.584479163843,1.00000000045885,0.531506865247465
18200.0000000156,100.106489079586,1.00000000044948,0.539918030093782
18300.0000000142,99.6283244853091,1.00000000040353,0.532997406128787
18400.0000000127,99.1587963300999,1.00000000034757,0.512547884408721
18500.0000000113,98.7085175486067,1.00000000028702,0.48162429142581
18600.0000000098,98.2884224301657,1.00000000024257,0.44921886972065
18700.0000000084,97.9068992182699,1.00000000021646,0.425310164483887
18800.0000000069,97.5692246930905,1.00000000023212,0.412044680705184
18900.0000000055,97.2773206316697,1.00000000024403,0.404676690009658
19000.000000004,97.0292961870763,1.0000000002574,0.402753174756454
19100.0000000026,96.8184225011739,1.00000000029072,0.404984205955903
19200.0000000011,96.6335698205992,1.00000000032048,0.416293519462342
19299.9999999996,96.4615314523341,1.00000000036616,0.437067554353941
19399.9999999982,96.2906122665688,1.0000000003951,0.45949458722434
19499.9999999967,96.1171714134226,1.00000000039296,0.474796052069666
19599.9999999953,95.9439592584678,1.00000000037182,0.482098097317915
19699.9999999938,95.7765685161175,1.00000000032269,0.483750240523959
19799.9999999924,95.6204685030012,1.00000000031139,0.482221111234963
19899.9999999909,95.4751399661412,1.00000000031378,0.483825631269092
19999.9999999895,95.332973487034,1.0000000003605,0.492895711891588
20099.999999988,95.1828228553902,1.00000000039449,0.505739086652853
20199.9999999865,95.0140337046843,1.00000000043524,0.518199378893525
20299.9999999851,94.8203693592783,1.00000000044106,0.527016315395478
20399.9999999836,94.6022380389429,1.00000000043571,0.531990010979018
20499.9999999822,94.3653166302512,1.00000000040472,0.534422865670649
20599.9999999807,94.1176404200468,1.00000000037385,0.535269278570925
20699.9999999793,93.8677040704349,1.00000000033788,0.530624248721605
20799.9999999778,93.6209645921355,1.00000000031368,0.5206373691397
20899.9999999764,93.3801783535383,1.00000000029497,0.510532490512527
20999.9999999749,93.1455367722935,1.00000000030045,0.504048989340204
21099.9999999734,92.9149406200673,1.00000000032362,0.499703797314557
21199.999999972,92.6843831030138,1.00000000034448,0.495682193553706
21299.9999999705,92.4477019020019,1.00000000038458,0.496608385457231
21399.9999999691,92.1994314679924,1.00000000042988,0.503658330352084
21499.9999999676,91.9346512728328,1.00000000046967,0.513928286789324
21599.9999999662,91.6505421039545,1.00000000047581,0.525243665330792
21699.9999999647,91.3485680108609,1.00000000049762,0.536827189307992
21799.9999999633,91.0336705734462,1.00000000048547,0.544711429446925
21899.9999999618,90.713089479001,1.00000000044024,0.543693391692205
21999.9999999603,90.3942110670213,1.00000000037447,0.534700650094419
22099.9999999589,90.085286292755,1.00000000032469,0.51746387441321
22199.9999999574,89.7952072965379,1.00000000028911,0.49213410162374
22299.999999956,89.5328975291861,1.0000000002594,0.469899045319909
22399.9999999545,89.3060436514777,1.00000000023845,0.449606588097886
22499.9999999531,89.1206453967076,1.00000000022906,0.433303267671962
22599.9999999516,88.9798395990075,1.00000000023418,0.424226648309653
22699.9999999502,88.8826842824605,1.00000000024982,0.418415914050144
22799.9999999487,88.8244357631983,1.00000000028759,0.415132898680464
22899.9999999473,88.7965727894076,1.00000000028737,0.416368006911812
22999.9999999458,88.7897853542994,1.00000000033402,0.422355761890598
23099.9999999443,88.7967503114535,1.00000000036322,0.43068875546115
23199.9999999429,88.8121107541827,1.00000000038123,0.437462245430558
23299.9999999414,88.8324940255428,1.00000000034831,0.444135636982658
23399.99999994,88.855130862957,1.00000000035975,0.455342487848932
23499.9999999385,88.8775472363847,1.00000000035161,0.469936436557961
23599.9999999371,88.8976367693107,1.00000000036824,0.481319376597536
23699.9999999356,88.913866397459,1.00000000035974,0.489556753829204
23799.9999999342,88.9243954126943,1.00000000038131,0.499234724148144
23899.9999999327,88.9284473706487,1.00000000035336,0.512018953132449
23999.9999999312,88.9271229872978,1.00000000037055,0.521683127290011
24099.9999999298,88.9233439976548,1.00000000034365,0.526056207253293
24199.9999999283,88.9202832020792,1.00000000035068,0.525946908979111
24299.9999999269,88.9185063859234,1.0000000003275,0.525844203877091
24399.9999999254,88.9159281253072,1.00000000034416,0.527249717514359
24499.999999924,88.9083096740315,1.00000000035176,0.531109977899754
24599.9999999225,88.8911991081482,1.00000000037748,0.533901095938319
24699.9999999211,88.8608645183443,1.00000000038237,0.533487924086865
24799.9999999196,88.8147057259823,1.00000000037604,0.531387304124155
24899.9999999181,88.7519554011557,1.0000000003756,0.528687196060821
24999.9999999167,88.6724429995647,1.00000000038295,0.525948341504779
25099.9999999152,88.5753201311957,1.00000000038948,0.522537795119799
25199.9999999138,88.4604089353708,1.00000000039636,0.521147956596601
25299.9999999123,88.329089122847,1.00000000039324,0.527329930457503
25399.9999999109,88.1851115307184,1.00000000038865,0.534784019800177
25499.9999999094,88.0336846273192,1.00000000036509,0.536349130788289
25599.999999908,87.8793978780422,1.0000000003576,0.534562891755759
25699.9999999065,87.7253504654575,1.00000000035558,0.533280336731237
25799.9999999051,87.5734705711092,1.00000000032674,0.533254938665129
25899.9999999036,87.4248670671768,1.00000000032803,0.532416483556997
25999.9999999021,87.2804355394455,1.0000000003011,0.532356220945983
26099.9999999007,87.1399073120329,1.00000000029988,0.533334252816711
26199.9999998992,87.0015477451396,1.00000000031176,0.534822194657438
26299.9999998978,86.8630387339768,1.00000000034062,0.533988534220355
26399.9999998963,86.7222171210531,1.00000000034856,0.532814497610839
26499.9999998949,86.5775058842501,1.00000000035438,0.531737475257992
26599.9999998934,86.4269326615441,1.00000000037591,0.530407362601169
26699.999999892,86.2681366344132,1.00000000039932,0.52933218931661
26799.9999998905,86.0988751094034,1.00000000041062,0.526737327842043
26899.999999889,85.9175069306906,1.0000000004278,0.524825743106767
26999.9999998876,85.7233038489196,1.00000000046193,0.528185189616482
27099.9999998861,85.5163455004028,1.00000000048694,0.534016995296431
27199.9999998847,85.2980259747377,1.00000000047283,0.538556188061301
27299.9999998832,85.0715897110554,1.00000000045294,0.541796550562708
27399.9999998818,84.8418620610867,1.00000000039829,0.542340313830997
27499.9999998803,84.6144592078101,1.00000000036327,0.539212337779438
27599.9999998789,84.3952437308969,1.00000000033433,0.529142108761238
27699.9999998774,84.1902358498831,1.0000000003019,0.513456434407025
27799.9999998759,84.0055481271156,1.00000000027465,0.497844450272583
27899.9999998745,83.8471939194852,1.0000000002484,0.482111901542964
27999.999999873,83.7202600761987,1.00000000023054,0.468066731817518
28099.9999998716,83.6287742960097,1.00000000024171,0.457364453407798
28199.9999998701,83.5748329105117,1.00000000022703,0.446019518184008
28299.9999998687,83.5588563453643,1.00000000025342,0.437033546060516
28399.9999998672,83.578816100697,1.00000000026442,0.432760988788742
28499.9999998658,83.6299107041327,1.00000000029469,0.432728544220228
28599.9999998643,83.7067391029292,1.00000000030037,0.438477639531509
28699.9999998629,83.8030096423844,1.00000000034836,0.443179812998371
28799.9999998614,83.9133694616257,1.00000000033709,0.446774742567256
28899.9999998599,84.0346543831849,1.00000000035746,0.448915282888867
28999.9999998585,84.1635936940261,1.00000000033665,0.450073521206065
