Time,AGPnorm,Energy,Entropy
0,0,1,-1.38948624602971e-17
99.9999999999986,4.90136519598967e-05,1.00000000000251,0.00190801508427009
199.999999999993,0.00420780591299067,1.00000000000186,0.00297213935390447
300,0.0105158605317257,1.00000000000049,0.00531236060182493
400.000000000022,0.0146465953161342,1.0000000000033,0.00889597238372105
500.000000000045,0.018038912377174,1.00000000000022,0.0118865387331546
600.000000000068,0.0253519338157045,1.00000000000208,0.0165567875277562
700.000000000091,0.0310414841434655,1.00000000000223,0.0209873302790718
800.000000000113,0.0399885192275632,1.00000000000038,0.0259369519133774
900.000000000136,0.0500094380782887,1.0000000000032,0.0317651145369218
1000.00000000016,0.0579690972747513,1.00000000000045,0.0372356298663672
1100.0000000001,0.068166096047403,1.00000000000169,0.0437942400445256
1200,0.0792906435568642,1.0000000000026,0.0504246584579328
1299.99999999991,0.0913853814125216,1.00000000000035,0.0574543102294902
1399.99999999982,0.103893649033131,1.00000000000294,0.0653057956679173
1499.99999999973,0.115354953420737,1.00000000000071,0.0729856302955487
1599.99999999964,0.128029852778943,1.00000000000141,0.0816662288831849
1699.99999999955,0.142203330765196,1.00000000000289,0.0907677076135956
1799.99999999946,0.155953870810724,1.00000000000037,0.100342690946929
1899.99999999937,0.169128263703609,1.00000000000264,0.110961286762607
1999.99999999928,0.182462882732208,1.00000000000105,0.121858644248681
2099.99999999919,0.196404320874035,1.00000000000134,0.134160570412172
2199.99999999909,0.211346887124247,1.00000000000355,0.147799643037588
2299.999999999,0.22506985778364,1.00000000000302,0.162676676126217
2399.99999999891,0.23825493303199,1.00000000001118,0.179949428141446
2499.99999999882,0.2505171220765,1.00000000002823,0.198823231264111
2599.99999999873,0.266478164942629,1.00000000005963,0.219641202981073
2699.99999999864,0.281078255390472,1.00000000011163,0.241606039627483
2799.99999999855,0.294651782013151,1.00000000017688,0.263082699266779
2899.99999999846,0.325987123686488,1.000000000268,0.284824330908547
2999.99999999837,0.35335708062448,1.00000000036359,0.305775135070781
3099.99999999828,0.419206843908922,1.00000000045824,0.326248060784573
3199.99999999819,0.517624544479879,1.00000000056501,0.346281778093927
3299.99999999809,0.652068429353697,1.00000000065065,0.364988845327449
3399.999999998,0.88258805184379,1.00000000074548,0.383310087068932
3499.99999999791,1.17459604803277,1.00000000087511,0.400525181412566
3599.99999999782,1.59258242599895,1.00000000093754,0.416854212569065
3699.99999999773,2.14515082895582,1.00000000099728,0.432464053430075
3799.99999999764,2.82716793371236,1.00000000111028,0.446679288677723
3899.99999999755,3.70468745268464,1.00000000114137,0.460496707192824
3999.99999999746,4.74471096109084,1.00000000121161,0.473108357906351
4099.99999999738,5.99435369288757,1.0000000012688,0.484850518286981
4199.99999999775,7.45729863855525,1.00000000128266,0.495975291060716
4299.99999999811,9.12120356119964,1.00000000129385,0.505939162007173
4399.99999999848,11.0251499721397,1.0000000014025,0.515271847415654
4499.99999999884,13.1335246665963,1.00000000140393,0.523899537837484
4599.9999999992,15.4751543224967,1.00000000147496,0.531673236878011
4699.99999999957,18.0297368779611,1.00000000142763,0.539383111903245
4799.99999999993,20.7841892766024,1.00000000146481,0.545861565647119
4900.00000000029,23.7544756854065,1.00000000150919,0.551967492888166
5000.00000000066,26.8925887013555,1.00000000148147,0.557793439660949
5100.00000000102,30.2239296930985,1.00000000147914,0.56259484404266
5200.00000000139,33.7085872637973,1.00000000135952,0.567998681721391
5300.00000000175,37.3298293260897,1.00000000148498,0.571723436859116
5400.00000000211,41.0999755743865,1.00000000149493,0.575555373614099
5500.00000000248,44.9574841549583,1.00000000141485,0.579584900291515
5600.00000000284,48.9300229972775,1.00000000135847,0.582275870410539
5700.00000000321,52.9748900014158,1.00000000145471,0.58511094288757
5800.00000000357,57.0666763637633,1.00000000137841,0.587803524067808
5900.00000000393,61.2267872049415,1.000000001433,0.589520071507986
6000.0000000043,65.3889003394017,1.00000000135393,0.592064988061981
6100.00000000466,69.5779365696621,1.00000000130176,0.593292251297772
6200.00000000502,73.7641822825407,1.00000000133614,0.595003739091588
6300.00000000539,77.912864360891,1.0000000013609,0.59633709734828
6400.00000000575,82.053950508008,1.00000000130843,0.596895851140259
6500.00000000612,86.1288446398703,1.00000000129997,0.598060242598218
6600.00000000648,90.1547310198311,1.00000000128762,0.598429805763976
6700.00000000684,94.1178392944182,1.00000000128338,0.599291658599513
6800.00000000721,97.9814974338206,1.00000000121727,0.599920286933801
6900.00000000757,101.778188934205,1.00000000124581,0.599552878138772
7000.00000000793,105.46208451481,1.00000000119821,0.600153335321097
7100.0000000083,109.043274813266,1.00000000118813,0.600168080194382
7200.00000000866,112.520923451869,1.00000000117813,0.600221718752118
7300.00000000903,115.862466084218,1.00000000115972,0.600277862251355
7400.00000000939,119.096888982208,1.00000000113644,0.60006592731019
7500.00000000975,122.193394463773,1.00000000113049,0.599640140387264
7600.00000001012,125.156943110227,1.0000000011081,0.600025919783776
7700.00000001048,127.99443378056,1.00000000109531,0.598831264465863
7800.00000001084,130.680344430426,1.00000000107535,0.599456588357343
7900.00000001121,133.238647439042,1.00000000103901,0.598062859643704
8000.00000001157,135.653754789367,1.00000000103605,0.598648610075033
8100.00000001194,137.922182739779,1.00000000102021,0.59766422426568
8200.0000000123,140.062591021603,1.00000000101625,0.597143556424081
8300.00000001266,142.04775917127,1.00000000099633,0.597143297158431
8400.00000001303,143.9057038627,1.00000000094253,0.596406191398154
8500.00000001339,145.619311619124,1.00000000095695,0.595530830558529
8600.00000001376,147.194469974284,1.0000000009492,0.59611093087325
8700.00000001412,148.64089836606,1.00000000092569,0.593934989845597
8800.00000001448,149.946547967697,1.00000000089323,0.595710765057133
8900.00000001485,151.127727884012,1.0000000008823,0.593357718675548
9000.00000001521,152.180483191153,1.00000000088428,0.593954905463303
9100.00000001557,153.104201024468,1.00000000084822,0.594131218735336
9200.00000001594,153.914154171168,1.00000000085975,0.59203472438396
9300.0000000163,154.598041554983,1.00000000080773,0.59331812749136
9400.00000001667,155.174814179254,1.00000000083389,0.593415485051208
9500.00000001703,155.640765904916,1.00000000078946,0.589562653134017
9600.00000001739,155.995798859799,1.00000000084045,0.594670488048407
9700.00000001776,156.260502900585,1.00000000079236,0.590754841275053
9800.00000001812,156.419750940508,1.00000000075496,0.588497411963144
9900.00000001848,156.493830981474,1.00000000083036,0.595138521416241
10000.0000000188,156.486599441958,1.00000000076666,0.586985679329024
10100.0000000192,156.389061216968,1.00000000078149,0.586683543514473
10200.0000000196,156.224218573783,1.00000000085754,0.59394984368821
10300.0000000199,155.989061248946,1.00000000076845,0.583885062746382
10400.0000000203,155.681703640889,1.00000000076855,0.583292597898839
10500.0000000207,155.316179998649,1.00000000086188,0.592854370152512
10600.000000021,154.898025548548,1.00000000081825,0.582840843175131
10700.0000000214,154.420279445247,1.00000000073318,0.576610749383192
10800.0000000218,153.89207021739,1.00000000084461,0.590521158541696
10900.0000000221,153.330898009321,1.00000000080911,0.583958465379394
11000.0000000225,152.722274074744,1.00000000073595,0.569623818367407
11100.0000000229,152.070752581659,1.00000000084551,0.585165332681262
11200.0000000232,151.399816425069,1.00000000085245,0.583679601695185
11300.0000000236,150.697083287423,1.00000000074572,0.570203793240967
11400.0000000239,149.95954707141,1.00000000077414,0.571709476002245
11500.0000000243,149.202470090719,1.0000000009013,0.583572257794513
11600.0000000247,148.429467473622,1.00000000084382,0.576119144493988
11700.000000025,147.635005692817,1.00000000078178,0.564827991094597
11800.0000000254,146.81499898538,1.00000000084325,0.573115411145197
11900.0000000258,145.987322165361,1.00000000088178,0.578009714785533
12000.0000000261,145.153679500108,1.00000000080882,0.570312843556471
12100.0000000265,144.303238367174,1.00000000077164,0.562504322416342
12200.0000000269,143.439525683398,1.00000000085883,0.565909692789083
12300.0000000272,142.571859146854,1.00000000088602,0.577896818197512
12400.0000000276,141.704316148426,1.00000000081873,0.562475415421711
12500.0000000279,140.829312822026,1.00000000081045,0.562147085189667
12600.0000000283,139.943560653566,1.0000000007725,0.557139629188215
12700.0000000287,139.058721429918,1.0000000009179,0.577457965777642
12800.000000029,138.178481995157,1.00000000088083,0.557179489506796
12900.0000000294,137.2963291591,1.00000000080316,0.557698544334822
13000.0000000298,136.411608900667,1.00000000081796,0.556954093931547
13100.0000000301,135.523887796401,1.00000000086225,0.561981348340276
13200.0000000305,134.644902346312,1.00000000093439,0.569697830089708
13300.0000000309,133.769382893798,1.00000000083258,0.543483701308843
13400.0000000312,132.894927038801,1.00000000086348,0.555797857082017
13500.0000000316,132.022421398779,1.00000000083356,0.556866409804428
13600.0000000319,131.152577162964,1.0000000009059,0.561937102630449
13700.0000000323,130.292304153061,1.00000000093593,0.56128655800264
13800.0000000327,129.436680344925,1.0000000008029,0.538238649016642
13900.000000033,128.584562176209,1.00000000086353,0.547407307169329
14000.0000000334,127.73754844842,1.00000000084752,0.560737232170338
14100.0000000338,126.895485617554,1.00000000090954,0.557797520548591
14200.0000000341,126.062173581113,1.00000000090509,0.556155413857883
14300.0000000345,125.2358270578,1.0000000008601,0.544508382502534
14400.0000000349,124.414311990716,1.00000000082361,0.533657828046802
14500.0000000352,123.599488773148,1.00000000086893,0.552850254814789
14600.0000000356,122.790814353615,1.00000000089181,0.561424407761296
14700.0000000359,121.990556135483,1.00000000087998,0.55505570378737
14800.0000000363,121.197986740836,1.00000000083333,0.546599490049136
14900.0000000367,120.412224951567,1.0000000008402,0.54068590458225
15000.000000037,119.633623225294,1.00000000082002,0.53549010790583
15100.0000000374,118.861860556138,1.00000000084238,0.548082904274681
15200.0000000378,118.09852996613,1.00000000088251,0.561999164064822
15300.0000000381,117.342808737329,1.00000000088127,0.556567335235184
15400.0000000385,116.594874848225,1.00000000084663,0.545809393290912
15500.0000000389,115.854936014861,1.0000000007907,0.53873114268829
15600.0000000392,115.12224920215,1.00000000085866,0.544473756385525
15700.0000000396,114.397787909225,1.00000000081633,0.540083733724357
15800.0000000399,113.681573578499,1.00000000083856,0.551008041704457
15900.0000000403,112.973513362268,1.00000000086029,0.561804386416688
16000.0000000407,112.273725978009,1.00000000084846,0.552222514201451
16100.000000041,111.581675807534,1.00000000084898,0.543274169571084
16200.0000000414,110.897970272536,1.00000000083264,0.542889595627387
16300.0000000418,110.222674283605,1.00000000081149,0.546772287792572
16400.0000000418,109.555614870688,1.00000000082191,0.546797887502489
16500.0000000404,108.897264142273,1.00000000085506,0.546995719519872
16600.0000000389,108.247080530755,1.00000000086806,0.558229806689925
16700.0000000375,107.60573158738,1.00000000079629,0.553240982947993
16800.000000036,106.972763043083,1.00000000082408,0.544551478259248
16900.0000000346,106.347862779278,1.00000000086147,0.547221507416333
17000.0000000331,105.731616120616,1.00000000078352,0.542162021553073
17100.0000000317,105.12402159836,1.00000000083003,0.548632647647841
17200.0000000302,104.524341602293,1.0000000008642,0.554968456626731
17300.0000000287,103.932664108716,1.00000000085898,0.549288391312397
17400.0000000273,103.349293954199,1.0000000008583,0.553604196420461
17500.0000000258,102.774923009212,1.00000000077741,0.551677633224667
17600.0000000244,102.209730342084,1.00000000077454,0.541731331309588
17700.0000000229,101.652987359319,1.00000000086681,0.544728920639003
17800.0000000215,101.103735369139,1.00000000084395,0.541614076379849
17900.00000002,100.56311159652,1.00000000080496,0.543971497959162
18000.0000000186,100.030089035862,1.00000000090772,0.552953017292246
18100.0000000171,99.5030830189868,1.00000000089719,0.56124989957113
18200.0000000156,98.9829277649433,1.0000000008478,0.55207477399759
18300.0000000142,98.4704889678091,1.00000000085182,0.549293149216613
18400.0000000127,97.9681851970681,1.00000000077816,0.543005039497077
18500.0000000113,97.4758639259211,1.00000000079902,0.543257353124527
18600.0000000098,96.9919380953355,1.00000000084043,0.539010063992537
18700.0000000084,96.5149567093328,1.0000000008721,0.541699189797834
18800.0000000069,96.0451962042165,1.00000000086285,0.540055172197367
18900.0000000055,95.5826589551387,1.00000000083039,0.546398299939014
19000.000000004,95.1248775739993,1.00000000092766,0.557381759474602
19100.0000000026,94.6704375685799,1.000000000942,0.565866403256303
19200.0000000011,94.2214250182391,1.00000000088662,0.551887291124769
19299.9999999996,93.7806422529638,1.0000000007733,0.540043009212635
19399.9999999982,93.3510379167351,1.00000000074568,0.538509381277726
19499.9999999967,92.9313891379206,1.00000000081781,0.542389994861961
19599.9999999953,92.5198875254463,1.0000000008314,0.538120007562064
19699.9999999938,92.1154485285088,1.00000000085236,0.53864710577525
19799.9999999924,91.716767353539,1.00000000086462,0.536287116964584
19899.9999999909,91.3239451442495,1.00000000083334,0.541479019430489
19999.9999999895,90.9356965094275,1.00000000089707,0.545326449920278
20099.999999988,90.5488742410446,1.00000000097423,0.555979186278892
20199.9999999865,90.1629826269372,1.00000000093844,0.563663684560708
20299.9999999851,89.7818262262326,1.00000000082243,0.546822009970792
20399.9999999836,89.4093163183901,1.00000000079029,0.535131586075395
20499.9999999822,89.0471081210399,1.00000000073741,0.537628609791367
20599.9999999807,88.6952506069212,1.00000000080802,0.537701745846458
20699.9999999793,88.3519469357725,1.00000000087309,0.541151759604147
20799.9999999778,88.0147592535201,1.00000000089219,0.539018462262357
20899.9999999764,87.6835209859982,1.00000000083248,0.535449476735917
20999.9999999749,87.356562262336,1.00000000091385,0.53769491426267
21099.9999999734,87.0336960881957,1.00000000079904,0.541002671036555
21199.999999972,86.7133345058199,1.00000000089603,0.545745497471212
21299.9999999705,86.3924472743857,1.00000000095214,0.547030585398173
21399.9999999691,86.0713855483656,1.000000000951,0.552371975487953
21499.9999999676,85.7527570058541,1.00000000085427,0.553417012054186
21599.9999999662,85.4410860363187,1.00000000080511,0.538002291935571
21699.9999999647,85.1384895289413,1.00000000079714,0.535439241489617
21799.9999999633,84.8446766062561,1.0000000007917,0.54104001066589
21899.9999999618,84.5602182735155,1.00000000083199,0.543069017783891
21999.9999999603,84.2837762715897,1.00000000081271,0.541284822176396
22099.9999999589,84.01362712654,1.00000000084883,0.542322554634123
22199.9999999574,83.7478287788925,1.00000000088925,0.543201204789187
22299.999999956,83.4853530625675,1.00000000085421,0.539967439088449
22399.9999999545,83.2257501217077,1.00000000087901,0.54653992578707
22499.9999999531,82.9681267398123,1.00000000086887,0.547003915301833
22599.9999999516,82.7124415940003,1.00000000088846,0.545689697864317
22699.9999999502,82.4560487680323,1.00000000094359,0.545941585096232
22799.9999999487,82.1994450310813,1.00000000092013,0.547203489549724
22899.9999999473,81.9454381859973,1.00000000086295,0.554565368998341
22999.9999999458,81.6962081844898,1.00000000084399,0.552833725143135
23099.9999999443,81.4536557653569,1.00000000081135,0.544468907387868
23199.9999999429,81.2196369037296,1.00000000083379,0.544495664011692
23299.9999999414,80.9934234794767,1.00000000078512,0.547954005886696
23399.99999994,80.7763972694826,1.00000000077477,0.544479302913394
23499.9999999385,80.5676076100576,1.0000000008206,0.544170331204742
23599.9999999371,80.3632468528798,1.00000000087395,0.551248146159037
23699.9999999356,80.1611255689703,1.00000000088135,0.554148172492602
23799.9999999342,79.9607796146604,1.00000000088048,0.551992786541259
23899.9999999327,79.7625671550124,1.00000000084947,0.552597161251799
23999.9999999312,79.5662594988124,1.0000000008392,0.551513268970265
24099.9999999298,79.3729163111938,1.00000000085436,0.550007056093806
24199.9999999283,79.1815423957268,1.00000000092806,0.547113709248788
24299.9999999269,78.9894473288103,1.00000000089559,0.543099860729045
24399.9999999254,78.7979237237927,1.00000000090097,0.544653751991274
24499.999999924,78.6064765880228,1.00000000090004,0.559385541124506
24599.9999999225,78.4163646920611,1.00000000091018,0.563013487685204
24699.9999999211,78.2290103940891,1.00000000088062,0.560391001174975
24799.9999999196,78.046747431488,1.00000000083334,0.553279472020104
24899.9999999181,77.8729988436808,1.00000000079716,0.544140379377784
24999.9999999167,77.7091414910944,1.00000000078412,0.544072685464343
25099.9999999152,77.5534605595966,1.00000000079528,0.547487066320499
25199.9999999138,77.4048023280956,1.00000000086107,0.548253029724194
25299.9999999123,77.2587258990247,1.00000000088613,0.55822029605605
25399.9999999109,77.1128084625114,1.00000000092821,0.561492264749328
25499.9999999094,76.9661293102011,1.0000000009081,0.56127830097873
25599.999999908,76.8199643136512,1.00000000087177,0.559043243338007
25699.9999999065,76.6751688373914,1.00000000089547,0.560178870613448
25799.9999999051,76.5316101559407,1.00000000083808,0.556920420138276
25899.9999999036,76.3915312207041,1.00000000081783,0.553108671046408
25999.9999999021,76.2546686466314,1.00000000087394,0.551016125132281
26099.9999999007,76.1187941867059,1.0000000008767,0.550333236446105
26199.9999998992,75.9828807373055,1.0000000009068,0.55252812832425
26299.9999998978,75.8444031543414,1.0000000009068,0.562704503356797
26399.9999998963,75.7030283784367,1.00000000094901,0.575831681428288
26499.9999998949,75.5597905364324,1.00000000092026,0.577205836724829
26599.9999998934,75.4187409405353,1.00000000085449,0.566758163098247
26699.999999892,75.2831789209585,1.00000000082154,0.554671697582158
26799.9999998905,75.1559641420563,1.00000000074713,0.548310488115241
26899.999999889,75.0384298105695,1.00000000078922,0.548273409386262
26999.9999998876,74.9287149376652,1.0000000008087,0.551958836811848
27099.9999998861,74.8242425833366,1.00000000082669,0.558088263040022
27199.9999998847,74.7234905454765,1.00000000088251,0.564312174964694
27299.9999998832,74.6229629168447,1.00000000089356,0.571938608638309
27399.9999998818,74.521694780489,1.00000000093533,0.56831286942738
27499.9999998803,74.4186005847087,1.00000000092798,0.56945037174494
27599.9999998789,74.3143801559228,1.00000000086212,0.565836920343402
27699.9999998774,74.2115097120279,1.00000000087046,0.564974395450455
27799.9999998759,74.1098832306361,1.00000000087936,0.563584183245515
27899.9999998745,74.0102557848119,1.00000000088646,0.562881549493141
27999.999999873,73.9132125846262,1.00000000085993,0.565758296647078
28099.9999998716,73.8179940423424,1.00000000087811,0.567130486941709
28199.9999998701,73.7237767559292,1.00000000088472,0.567983179265707
28299.9999998687,73.6279379681978,1.00000000090918,0.574460192058463
28399.9999998672,73.5289160120155,1.00000000096171,0.578834141171825
28499.9999998658,73.4266317210855,1.00000000094736,0.580946609124844
28599.9999998643,73.3222566677166,1.00000000091153,0.580705526862057
28699.9999998629,73.2192921297358,1.00000000087599,0.577987574534863
28799.9999998614,73.1199457126257,1.00000000081872,0.573464974754675
28899.9999998599,73.0263260335659,1.00000000085088,0.568999502707965
28999.9999998585,72.9391168006444,1.00000000082527,0.563399617169366
