Time,AGPnorm,Energy,Entropy
0,0,1,-1.10718428538102e-17
99.9999999999986,6.86801398835032e-06,0.999999999999195,0.00034716799565916
199.999999999993,0.000600570536297197,1.00000000000077,0.000544132508748447
300,0.00150180613503487,0.999999999999175,0.000964544195249272
400.000000000022,0.00206857919081702,1.00000000000005,0.00168253654525139
500.000000000045,0.00251422200677627,1.00000000000028,0.00223664739455617
600.000000000068,0.00363430764127734,0.999999999999052,0.00317083530692814
700.000000000091,0.0044731903622631,1.0000000000007,0.00407500906271692
800.000000000113,0.00577287745506641,0.999999999999428,0.0050215022550825
900.000000000136,0.0072803575545095,0.999999999999745,0.00624473305094001
1000.00000000016,0.00848409664785769,1.00000000000049,0.00732054481454594
1100.0000000001,0.0102252311727435,0.999999999999024,0.00864425744263019
1200,0.011940963051756,1.00000000000054,0.0100155018392344
1299.99999999991,0.0138572298262588,0.999999999999714,0.011347364676422
1399.99999999982,0.016045343771631,0.99999999999947,0.012939749061099
1499.99999999973,0.0180384369232466,1.00000000000061,0.0144194986212983
1599.99999999964,0.0204710984302075,0.999999999999105,0.0160535317149533
1699.99999999955,0.0229420288065704,1.00000000000031,0.0177963536155297
1799.99999999946,0.0254427290822482,0.999999999999994,0.0194559704531595
1899.99999999937,0.0282275476327784,0.999999999999265,0.021349436111905
1999.99999999928,0.0309416405835674,1.00000000000064,0.0231793337929456
2099.99999999919,0.034027220034621,0.999999999999273,0.0250878998697638
2199.99999999909,0.0372029654492472,1.00000000000004,0.0271488373425093
2299.999999999,0.0402695617372231,1.00000000000023,0.029109750712965
2399.99999999891,0.0435926211988705,0.999999999999153,0.0312705585287483
2499.99999999882,0.0469176264653518,1.00000000000057,0.0334232358176855
2599.99999999873,0.0505511703555185,0.999999999999501,0.0355971252797547
2699.99999999864,0.0543323803099811,0.999999999999776,0.0379464036964995
2799.99999999855,0.0579620151692844,1.00000000000039,0.0402031592145657
2899.99999999846,0.0617901063674806,0.999999999999142,0.0426185669460466
2999.99999999837,0.0656484718261513,1.00000000000044,0.0450832550185327
3099.99999999828,0.0697011569905849,0.999999999999758,0.0475293156635361
3199.99999999819,0.0739373552615485,0.999999999999542,0.0501579525827482
3299.99999999809,0.0780710411324749,1.00000000000047,0.0527226698734477
3399.999999998,0.0823690755587188,0.999999999999214,0.0553985637448379
3499.99999999791,0.0867242922712251,1.00000000000024,0.0581802317602269
3599.99999999782,0.0911123934021441,1.00000000000001,0.0609164780925049
3699.99999999773,0.0956662689033178,0.999999999999377,0.0638365765312071
3799.99999999764,0.100174820314036,1.00000000000047,0.0667317634946661
3899.99999999755,0.104871285973121,0.999999999999351,0.0696991604883835
3999.99999999746,0.109649008689393,1.00000000000002,0.0728165515055698
4099.99999999738,0.114348487353477,1.00000000000021,0.0758792131753415
4199.99999999775,0.119124341935671,0.999999999999303,0.0791222698565577
4299.99999999811,0.123894373448672,1.00000000000042,0.0823861828778328
4399.99999999848,0.128860922859283,0.999999999999554,0.0856989083287347
4499.99999999884,0.133928879197936,0.999999999999811,0.0891929416558448
4599.9999999992,0.138901777381734,1.0000000000003,0.0926505407481951
4699.99999999957,0.143855254599571,0.999999999999311,0.0962707157322151
4799.99999999993,0.148845270977631,1.00000000000032,0.0999776814764096
4900.00000000029,0.153957992647413,0.999999999999806,0.103715532300973
5000.00000000066,0.159184723578567,0.999999999999625,0.107670578117026
5100.00000000102,0.164310533004454,1.00000000000031,0.111628551840956
5200.00000000139,0.169433492866529,0.999999999999349,0.115737728865937
5300.00000000175,0.174603171826218,1.00000000000016,0.120010215805672
5400.00000000211,0.179796424192561,1.00000000000008,0.124318857646648
5500.00000000248,0.185076276030603,0.999999999999531,0.128882649231086
5600.00000000284,0.190198348473279,1.00000000000037,0.133518121203784
5700.00000000321,0.195458541813679,0.999999999999501,0.138323255645583
5800.00000000357,0.200716186537782,1.00000000000014,0.143387942550457
5900.00000000393,0.205935336141521,1.00000000000046,0.14852987683661
6000.0000000043,0.211260557139855,0.999999999999846,0.15397903180074
6100.00000000466,0.216263093877593,1.00000000000087,0.159606854916863
6200.00000000502,0.221680195750197,1.00000000000043,0.165435388484054
6300.00000000539,0.227042021658244,1.00000000000112,0.171635730117425
6400.00000000575,0.232198988772724,1.00000000000198,0.177966910074557
6500.00000000612,0.238038905518921,1.00000000000213,0.184617382061994
6600.00000000648,0.243017997295956,1.000000000004,0.191516247560104
6700.00000000684,0.249175148411272,1.00000000000465,0.198567047907227
6800.00000000721,0.255769837682003,1.00000000000616,0.205981892893352
6900.00000000757,0.261584034110445,1.00000000000879,0.213447366576584
7000.00000000793,0.270698647807605,1.00000000001029,0.221113268439497
7100.0000000083,0.278614943471567,1.00000000001388,0.228917908787653
7200.00000000866,0.289838696611048,1.00000000001715,0.236673591104632
7300.00000000903,0.305285060663175,1.00000000001983,0.244628333552294
7400.00000000939,0.320273817079071,1.00000000002443,0.252478861600547
7500.00000000975,0.345912270875187,1.00000000002724,0.260307900609594
7600.00000001012,0.374568701121285,1.00000000003177,0.268164416874549
7700.00000001048,0.412280079167883,1.00000000003854,0.275816513456899
7800.00000001084,0.466538909610896,1.00000000004086,0.283464512691826
7900.00000001121,0.526625888070116,1.00000000004858,0.290980912270664
8000.00000001157,0.612577426331968,1.00000000005339,0.298281605827088
8100.00000001194,0.717236528107014,1.00000000005741,0.305653780686663
8200.0000000123,0.84405955401599,1.00000000006448,0.312711885895996
8300.00000001266,1.01209579068063,1.00000000006651,0.319721870405144
8400.00000001303,1.2043058086839,1.00000000007386,0.326594445764728
8500.00000001339,1.44672259716049,1.00000000008451,0.333158166267488
8600.00000001376,1.73871227400232,1.00000000008728,0.339829726693326
8700.00000001412,2.07599209659265,1.00000000009086,0.346251301598082
8800.00000001448,2.49041139317281,1.00000000009727,0.35249896714619
8900.00000001485,2.96168568765305,1.00000000010225,0.358710124102009
9000.00000001521,3.51468635638742,1.00000000010964,0.364625062329367
9100.00000001557,4.16070849744665,1.00000000011436,0.370531634482817
9200.00000001594,4.88472812501678,1.00000000011506,0.376330934926213
9300.0000000163,5.72758725620425,1.00000000012617,0.38180468289404
9400.00000001667,6.67123732328004,1.00000000013294,0.387335005331608
9500.00000001703,7.73165212810063,1.00000000013253,0.392632559402113
9600.00000001739,8.93361016454317,1.00000000014871,0.397749715446867
9700.00000001776,10.2527008022565,1.00000000014026,0.402946682653691
9800.00000001812,11.7308978323139,1.00000000014371,0.407753884828037
9900.00000001848,13.3584040652183,1.00000000015614,0.412593956921962
10000.0000000188,15.1371166367542,1.00000000015822,0.417265201566116
10100.0000000192,17.1024988489457,1.00000000016802,0.421676024070345
10200.0000000196,19.2254916957724,1.00000000016402,0.426268553328905
10300.0000000199,21.5408407782108,1.00000000016718,0.430425788518608
10400.0000000203,24.0505474604273,1.00000000017279,0.434601327065506
10500.0000000207,26.7416728908173,1.00000000018359,0.438686216835653
10600.000000021,29.6549440132205,1.00000000017988,0.442514349420352
10700.0000000214,32.7619244698516,1.00000000017686,0.44648852044025
10800.0000000218,36.0841730244849,1.00000000018137,0.450165170120509
10900.0000000221,39.6361026631365,1.00000000017944,0.453725325788206
11000.0000000225,43.392541817217,1.00000000019459,0.457289082590286
11100.0000000229,47.3926359980248,1.00000000019434,0.460512467857527
11200.0000000232,51.6143687453282,1.00000000019709,0.463883513702601
11300.0000000236,56.0632604059358,1.00000000019532,0.467116555090507
11400.0000000239,60.7625895467531,1.00000000019533,0.470086210047708
11500.0000000243,65.6811863057401,1.00000000020904,0.473162226290597
11600.0000000247,70.8498287972018,1.00000000020365,0.476007007100321
11700.000000025,76.2567738233346,1.00000000021508,0.47867023272058
11800.0000000254,81.8922872359261,1.00000000020002,0.481637873436151
11900.0000000258,87.7839642146314,1.00000000020168,0.484044884351049
12000.0000000261,93.9001737407385,1.0000000002046,0.486651491971363
12100.0000000265,100.258922937282,1.00000000021031,0.489141753849964
12200.0000000269,106.859829050698,1.00000000021646,0.49127327052684
12300.0000000272,113.681964971831,1.00000000021368,0.493751119698718
12400.0000000276,120.751189331692,1.00000000021146,0.495856648873205
12500.0000000279,128.040911835288,1.0000000002138,0.497888253126934
12600.0000000283,135.555161162321,1.00000000020915,0.500186365748073
12700.0000000287,143.30320168235,1.0000000002193,0.501909323029228
12800.000000029,151.25725725518,1.00000000020818,0.503847393718894
12900.0000000294,159.437062253273,1.00000000022315,0.505661082600039
13000.0000000298,167.824270573757,1.00000000022165,0.50732332759364
13100.0000000301,176.411046649586,1.00000000022291,0.509020618402911
13200.0000000305,185.210987482946,1.00000000021664,0.51066930510559
13300.0000000309,194.196084831137,1.0000000002165,0.512147297339504
13400.0000000312,203.377628566401,1.00000000021243,0.513733126652301
13500.0000000316,212.745463934659,1.00000000022346,0.515002369918465
13600.0000000319,222.284055412653,1.0000000002132,0.51640649973804
13700.0000000323,232.005846585282,1.00000000022409,0.517657854264801
13800.0000000327,241.887031130162,1.00000000022204,0.518826709772294
13900.000000033,251.929404186544,1.00000000022501,0.520066897441639
14000.0000000334,262.129900070406,1.00000000021387,0.521230944861097
14100.0000000338,272.469771334616,1.00000000021741,0.522209998047063
14200.0000000341,282.95836231191,1.00000000021578,0.523285214438038
14300.0000000345,293.576535691121,1.00000000022019,0.524152604470258
14400.0000000349,304.319899243304,1.00000000022165,0.525114643126542
14500.0000000352,315.188104213038,1.0000000002181,0.526046534865369
14600.0000000356,326.163169701125,1.00000000021755,0.526804803379577
14700.0000000359,337.247799602791,1.00000000021014,0.527612727303068
14800.0000000363,348.430855696802,1.00000000021023,0.528376177723079
14900.0000000367,359.701986262546,1.00000000021087,0.528963145693094
15000.000000037,371.063044172593,1.00000000021247,0.529609061775695
15100.0000000374,382.497339972233,1.00000000021328,0.530434881409808
15200.0000000378,394.0050722266,1.00000000021879,0.530771792090515
15300.0000000381,405.576277581888,1.00000000021184,0.531199832284443
15400.0000000385,417.200477226025,1.00000000021142,0.531855478358824
15500.0000000389,428.880002730282,1.00000000020464,0.53230094791791
15600.0000000392,440.599843809201,1.0000000002146,0.532676444699497
15700.0000000396,452.355412518995,1.00000000020574,0.533299190271501
15800.0000000399,464.142611974336,1.00000000020873,0.533589749469057
15900.0000000403,475.949756098641,1.00000000020541,0.533640729491887
16000.0000000407,487.77576107426,1.00000000019947,0.534067429454518
16100.000000041,499.611541215276,1.00000000020194,0.534570365480545
16200.0000000414,511.450668081987,1.00000000020224,0.534842691732688
16300.0000000418,523.288883896193,1.00000000020847,0.535016879506746
16400.0000000418,535.116341054098,1.00000000019498,0.535151871106492
16500.0000000404,546.93263749964,1.00000000020002,0.535201771180719
16600.0000000389,558.728659221376,1.00000000020514,0.535141482870115
16700.0000000375,570.496884608276,1.00000000020097,0.535697890355358
16800.000000036,582.236675514026,1.00000000019881,0.535921576188425
16900.0000000346,593.93850784162,1.00000000019749,0.5359938505415
17000.0000000331,605.598969964184,1.00000000019859,0.535879176960716
17100.0000000317,617.212214229945,1.0000000001962,0.535689374146171
17200.0000000302,628.773085336118,1.00000000020327,0.535779664617071
17300.0000000287,640.277138473522,1.00000000019244,0.535782872151155
17400.0000000273,651.720078813379,1.00000000018932,0.536164543990859
17500.0000000258,663.096242179568,1.00000000019242,0.535992746446929
17600.0000000244,674.40177706607,1.00000000018792,0.536091153130806
17700.0000000229,685.63048980792,1.0000000001841,0.535631862138359
17800.0000000215,696.780696751082,1.00000000019201,0.535564361552145
17900.00000002,707.847310439188,1.00000000018106,0.53528672905058
18000.0000000186,718.825908184313,1.00000000018422,0.535486064258042
18100.0000000171,729.711720654927,1.00000000018609,0.535312812059814
18200.0000000156,740.501339673608,1.0000000001836,0.535382661843028
18300.0000000142,751.191370445555,1.00000000018557,0.535103424191642
18400.0000000127,761.778626028531,1.00000000018899,0.534868083816723
18500.0000000113,772.259201717619,1.00000000018093,0.534547675706045
18600.0000000098,782.629608709261,1.0000000001796,0.534288895138785
18700.0000000084,792.887629973129,1.00000000017687,0.534150028602651
18800.0000000069,803.029122424362,1.00000000017331,0.534061881220366
18900.0000000055,813.05240612457,1.00000000017851,0.533941856983989
19000.000000004,822.953834426201,1.00000000017478,0.533761468470712
19100.0000000026,832.730815519566,1.000000000174,0.533708366534061
19200.0000000011,842.382674891092,1.00000000017533,0.533240372473523
19299.9999999996,851.904722017825,1.00000000017387,0.532959930297447
19399.9999999982,861.295513192135,1.00000000016997,0.532585519189941
19499.9999999967,870.552615514769,1.00000000016932,0.532317794343578
19599.9999999953,879.673969527229,1.00000000016623,0.53217213411692
19699.9999999938,888.65976658887,1.00000000017086,0.531821874962195
19799.9999999924,897.506470557289,1.0000000001677,0.531929214578592
19899.9999999909,906.212420901284,1.00000000016782,0.531645246473148
19999.9999999895,914.77669575093,1.00000000016335,0.531417500928308
20099.999999988,923.197018417057,1.00000000016455,0.531006197419011
20199.9999999865,931.473009181863,1.00000000016353,0.530537512121667
20299.9999999851,939.603706650177,1.00000000016184,0.53028178296054
20399.9999999836,947.586207787793,1.00000000015852,0.529831835372294
20499.9999999822,955.422407117644,1.0000000001617,0.529714204308771
20599.9999999807,963.109064047846,1.0000000001596,0.529472987902876
20699.9999999793,970.646635084515,1.00000000016114,0.52941169795471
20799.9999999778,978.035077321423,1.00000000015463,0.529155830050841
20899.9999999764,985.2705211252,1.0000000001546,0.528860226577615
20999.9999999749,992.356463259602,1.00000000015327,0.528425856528335
21099.9999999734,999.289707819853,1.00000000015442,0.527910228636933
21199.999999972,1006.0713067731,1.00000000015207,0.527720101190357
21299.9999999705,1012.70184563818,1.00000000015284,0.527335501635787
21399.9999999691,1019.17837827719,1.00000000015155,0.52725475934402
21499.9999999676,1025.50451772609,1.00000000015319,0.527017766181969
21599.9999999662,1031.67786540735,1.0000000001476,0.526748472336233
21699.9999999647,1037.6987700107,1.00000000014771,0.5266096348556
21799.9999999633,1043.5680471475,1.00000000014418,0.525968456734928
21899.9999999618,1049.28406159399,1.00000000014431,0.525802920466693
21999.9999999603,1054.84991740298,1.00000000014416,0.525276735004804
22099.9999999589,1060.26453599632,1.00000000014608,0.52494728246231
22199.9999999574,1065.52804704923,1.00000000014233,0.525161203812061
22299.999999956,1070.64264855844,1.00000000014543,0.525002103767564
22399.9999999545,1075.60730403864,1.00000000014138,0.52516125508076
22499.9999999531,1080.42574148656,1.00000000014095,0.524981840778101
22599.9999999516,1085.09633313127,1.00000000014164,0.524442443595281
22699.9999999502,1089.61970453828,1.00000000013875,0.523884380150455
22799.9999999487,1093.99670587061,1.00000000013804,0.522744787004728
22899.9999999473,1098.2262523502,1.00000000013838,0.522237476924413
22999.9999999458,1102.31128042086,1.0000000001348,0.521657164518089
23099.9999999443,1106.25112563342,1.00000000013342,0.521792636861245
23199.9999999429,1110.04688464568,1.00000000013691,0.522521454817235
23299.9999999414,1113.70196514567,1.00000000013751,0.52338392559419
23399.99999994,1117.21715727518,1.00000000013496,0.52432014188678
23499.9999999385,1120.59610951898,1.0000000001357,0.524515673342604
23599.9999999371,1123.83946526408,1.00000000013153,0.5241071743942
23699.9999999356,1126.94700393042,1.000000000131,0.522787021886405
23799.9999999342,1129.91961231888,1.00000000013265,0.520527967427599
23899.9999999327,1132.75533843895,1.00000000013128,0.518538936756136
23999.9999999312,1135.45387486456,1.00000000012556,0.516920171785354
24099.9999999298,1138.01478967324,1.00000000012625,0.516446956152011
24199.9999999283,1140.43874723006,1.00000000012293,0.517720534290854
24299.9999999269,1142.73008121228,1.00000000012196,0.519948582615021
24399.9999999254,1144.89334903184,1.00000000012764,0.522872561083834
24499.999999924,1146.93377953089,1.00000000012687,0.525430198239624
24599.9999999225,1148.8570099398,1.00000000012897,0.526929894466161
24699.9999999211,1150.66533899601,1.00000000012685,0.526580518481979
24799.9999999196,1152.36065309737,1.00000000012798,0.524136072069033
24899.9999999181,1153.94140548672,1.00000000012491,0.520245291835437
24999.9999999167,1155.40210861165,1.00000000011866,0.515368413835037
25099.9999999152,1156.73915817429,1.00000000011544,0.511034884532898
25199.9999999138,1157.94703162489,1.00000000011086,0.508809160669892
25299.9999999123,1159.02611601998,1.00000000010983,0.509233864873253
25399.9999999109,1159.98040757867,1.00000000011412,0.512793215101201
25499.9999999094,1160.81632808626,1.00000000011196,0.518415699770296
25599.999999908,1161.5455524669,1.00000000011855,0.52435383741272
25699.9999999065,1162.17832961867,1.00000000012528,0.529392071466004
25799.9999999051,1162.72466845438,1.00000000012691,0.532149639473941
25899.9999999036,1163.19152008339,1.00000000013265,0.531985268188917
25999.9999999021,1163.57805652353,1.00000000012627,0.528443528019624
26099.9999999007,1163.88084872398,1.00000000012467,0.521697113070285
26199.9999998992,1164.08917837916,1.00000000011607,0.513093376263962
26299.9999998978,1164.19257983665,1.00000000010343,0.504341580693571
26399.9999998963,1164.18226433302,1.00000000010144,0.497889296223226
26499.9999998949,1164.05194965629,1.00000000009577,0.496370548207272
26599.9999998934,1163.80544679656,1.00000000009229,0.500100820885108
26699.999999892,1163.45043566378,1.00000000010034,0.508081361838889
26799.9999998905,1163.00223247155,1.00000000010931,0.518104320484558
26899.999999889,1162.47917701734,1.00000000012299,0.527588769692889
26999.9999998876,1161.89730913523,1.00000000013454,0.534905031608099
27099.9999998861,1161.26970719326,1.00000000013508,0.538664269585628
27199.9999998847,1160.60279212678,1.00000000014089,0.538412047562199
27299.9999998832,1159.89489799232,1.00000000013606,0.533169136323641
27399.9999998818,1159.13904593629,1.00000000012471,0.523899975502782
27499.9999998803,1158.32113004283,1.00000000011456,0.51111007276976
27599.9999998789,1157.42465030872,1.00000000010117,0.497001339530827
27699.9999998774,1156.43407918442,1.00000000008982,0.485209010000415
27799.9999998759,1155.33868820955,1.00000000008182,0.478866222196996
27899.9999998745,1154.13813875086,1.00000000008093,0.480523630509587
27999.999999873,1152.83903334254,1.00000000008562,0.489847941660294
28099.9999998716,1151.45937865238,1.00000000010056,0.503974482668632
28199.9999998701,1150.01816758838,1.00000000011526,0.518380368800915
28299.9999998687,1148.53740230839,1.00000000013078,0.531560666571302
28399.9999998672,1147.03565401568,1.00000000014165,0.539840611761083
28499.9999998658,1145.5256521259,1.00000000015557,0.545054564929885
28599.9999998643,1144.0138127215,1.00000000015473,0.544031834188693
28699.9999998629,1142.49771199339,1.00000000015334,0.538978497987954
