Time,AGPnorm,Energy,Entropy
0,0,1,-1.00107078244216e-17
99.9999999999986,4.09784846813998e-05,0.999999999999067,0.00166492720297197
199.999999999993,0.00368528917087373,1.00000000000035,0.00265552532204974
300,0.00939090732863658,0.999999999999425,0.00461953429521273
400.000000000022,0.0129631584619002,0.999999999999577,0.00788883043795639
500.000000000045,0.015405348856237,1.00000000000011,0.0105749625131706
600.000000000068,0.0221439845823531,0.999999999999172,0.0146218588682637
700.000000000091,0.02768114596287,1.00000000000011,0.0187088891946389
800.000000000113,0.0350335442276331,0.999999999999736,0.0229652383949293
900.000000000136,0.0431266825117067,0.999999999999331,0.0282252269966655
1000.00000000016,0.0499535167639456,1.00000000000007,0.0331529059279101
1100.0000000001,0.0601875227371466,0.999999999999474,0.0388074068005392
1200,0.0705675304892096,0.99999999999984,0.0448779653727579
1299.99999999991,0.0800742336524112,0.99999999999985,0.050952341813009
1399.99999999982,0.0905444347263761,0.999999999999284,0.0578233042286116
1499.99999999973,0.101383468277504,1.00000000000001,0.0647133081675372
1599.99999999964,0.113856730426473,0.999999999999816,0.072132933231397
1699.99999999955,0.126425019586349,0.999999999999494,0.0802021682276755
1799.99999999946,0.137514278078059,0.999999999999799,0.0883174581790795
1899.99999999937,0.149833490415708,0.999999999999497,0.0972371809177877
1999.99999999928,0.163246203258887,0.999999999999952,0.10666368751774
2099.99999999919,0.176244531085239,1.00000000000003,0.116688886445458
2199.99999999909,0.188983877776591,0.999999999999259,0.127758700981848
2299.999999999,0.201027336965272,0.999999999999953,0.139357385306156
2399.99999999891,0.214437747434789,1.00000000000061,0.152439998306605
2499.99999999882,0.2281001183185,1.00000000000313,0.167159346858089
2599.99999999873,0.240867367107588,1.00000000001021,0.183306816277046
2699.99999999864,0.252799343810562,1.00000000002461,0.20148610545698
2799.99999999855,0.263877250799955,1.00000000005291,0.220703928440937
2899.99999999846,0.282554045652905,1.00000000009607,0.240883294078875
2999.99999999837,0.294316745908847,1.00000000015246,0.261468518365186
3099.99999999828,0.318359810367477,1.00000000022041,0.281198860830959
3199.99999999819,0.357317699891805,1.00000000028632,0.300979909254519
3299.99999999809,0.401716053707287,1.00000000036346,0.320132674826966
3399.999999998,0.500842489499248,1.00000000045746,0.338580932947295
3499.99999999791,0.62527284959132,1.00000000052462,0.356713270273523
3599.99999999782,0.81396460063827,1.00000000061243,0.37357116597176
3699.99999999773,1.10027090917859,1.00000000070454,0.389904464900887
3799.99999999764,1.45501592520571,1.00000000079085,0.405775480254309
3899.99999999755,1.95403267421528,1.00000000081249,0.420496084070522
3999.99999999746,2.5827398267268,1.00000000090072,0.434370711616481
4099.99999999738,3.35393626165216,1.00000000093288,0.447758644979259
4199.99999999775,4.32463241040227,1.00000000103367,0.459922711409509
4299.99999999811,5.45810847672158,1.00000000107898,0.471860852142068
4399.99999999848,6.8024499057461,1.00000000109312,0.482569477662642
4499.99999999884,8.36650675948702,1.00000000109818,0.492715457614545
4599.9999999992,10.1275359871307,1.00000000118465,0.502183737804565
4699.99999999957,12.129191053489,1.00000000124304,0.510835412439678
4799.99999999993,14.3494436736719,1.00000000121022,0.518911133354915
4900.00000000029,16.7861398386734,1.00000000123661,0.526604933100706
5000.00000000066,19.4562938272856,1.00000000123962,0.533433369684208
5100.00000000102,22.3287614766361,1.00000000125035,0.540021267921108
5200.00000000139,25.409605165311,1.00000000125994,0.545854579460492
5300.00000000175,28.6967125543625,1.00000000127395,0.550987471959406
5400.00000000211,32.1573270055982,1.00000000129359,0.556242617440441
5500.00000000248,35.795921777839,1.00000000123822,0.561006261596618
5600.00000000284,39.5965115834764,1.00000000130667,0.564919390963542
5700.00000000321,43.531317439227,1.00000000129851,0.568958313846782
5800.00000000357,47.6078450005372,1.00000000132267,0.571998604942424
5900.00000000393,51.7911985228571,1.00000000125778,0.575575527210169
6000.0000000043,56.0655845820808,1.00000000125322,0.578463311632053
6100.00000000466,60.4335152714888,1.00000000126983,0.580591468648929
6200.00000000502,64.8536288110348,1.00000000122899,0.583268781026164
6300.00000000539,69.3290310926749,1.0000000012657,0.584988958757153
6400.00000000575,73.84076672356,1.00000000120465,0.586887141527664
6500.00000000612,78.3572223607283,1.00000000119472,0.588744662270098
6600.00000000648,82.891471552892,1.00000000121794,0.589754882343196
6700.00000000684,87.4058481372856,1.0000000011796,0.591259047033535
6800.00000000721,91.8950577648712,1.00000000115447,0.592199190527194
6900.00000000757,96.3567754185149,1.00000000115407,0.592890974660172
7000.00000000793,100.754143581514,1.00000000115296,0.59409706268537
7100.0000000083,105.101919839839,1.00000000110294,0.594228635785413
7200.00000000866,109.376321027665,1.00000000113502,0.594489290204482
7300.00000000903,113.563334698528,1.00000000109311,0.595427966766923
7400.00000000939,117.671595009242,1.00000000106533,0.595328154884711
7500.00000000975,121.66871206035,1.00000000103998,0.595688806269635
7600.00000001012,125.568164455883,1.00000000103377,0.595253593230248
7700.00000001048,129.357093807372,1.00000000105383,0.595839471747943
7800.00000001084,133.018086132019,1.00000000099451,0.595594048783844
7900.00000001121,136.56782024844,1.0000000010118,0.595248173926599
8000.00000001157,139.979579403076,1.0000000010096,0.595205814928232
8100.00000001194,143.265007339323,1.0000000009776,0.595299097331153
8200.0000000123,146.418725423945,1.00000000097581,0.594222907469966
8300.00000001266,149.427400622573,1.00000000095128,0.594797814497098
8400.00000001303,152.304553992595,1.00000000094198,0.593507655859405
8500.00000001339,155.037326206136,1.00000000093031,0.593861890008316
8600.00000001376,157.62756003551,1.0000000009011,0.592799267401166
8700.00000001412,160.082137855498,1.00000000090327,0.593020105396069
8800.00000001448,162.38399329855,1.00000000085461,0.59194496389542
8900.00000001485,164.552674444902,1.000000000849,0.592251518502581
9000.00000001521,166.576013891687,1.00000000086295,0.590310530267801
9100.00000001557,168.458193758725,1.00000000082439,0.591940270809286
9200.00000001594,170.207504595084,1.00000000079276,0.589394597675403
9300.0000000163,171.81075671254,1.00000000079867,0.590722856857321
9400.00000001667,173.286077947697,1.00000000080104,0.589313189871094
9500.00000001703,174.625900349747,1.00000000079123,0.588601894359077
9600.00000001739,175.834026804582,1.00000000076901,0.589463007969547
9700.00000001776,176.919153905134,1.00000000076847,0.587907271090059
9800.00000001812,177.8733453427,1.00000000073832,0.588057690488959
9900.00000001848,178.709950064757,1.00000000076221,0.588900001889399
10000.0000000188,179.430067944954,1.00000000075425,0.587727305710711
10100.0000000192,180.031833497903,1.00000000073158,0.58698007908173
10200.0000000196,180.527649505207,1.00000000073065,0.590030196023917
10300.0000000199,180.915988944483,1.00000000070432,0.585951417036854
10400.0000000203,181.200014570882,1.00000000069879,0.584619350703035
10500.0000000207,181.388623921753,1.0000000007276,0.589940194800686
10600.000000021,181.485474253407,1.00000000069484,0.584196990827372
10700.0000000214,181.490561948787,1.00000000066472,0.581474782141838
10800.0000000218,181.410173078226,1.00000000070315,0.588864885449439
10900.0000000221,181.259830938666,1.00000000070242,0.583351090073484
11000.0000000225,181.030493006487,1.00000000065155,0.576495931033305
11100.0000000229,180.726987590061,1.00000000068945,0.584972184549018
11200.0000000232,180.370824491892,1.00000000070707,0.584132571291378
11300.0000000236,179.952767070991,1.00000000063402,0.574219201493373
11400.0000000239,179.472160132529,1.00000000065801,0.574219026350107
11500.0000000243,178.942290429277,1.00000000075383,0.584276996746097
11600.0000000247,178.372118207532,1.00000000071753,0.578729553496669
11700.000000025,177.756223898077,1.00000000061597,0.566794939612814
11800.0000000254,177.087069045227,1.00000000067952,0.572425437424965
11900.0000000258,176.389781962387,1.00000000077464,0.583954974291525
12000.0000000261,175.670772613719,1.0000000007453,0.573040292218712
12100.0000000265,174.911902636135,1.00000000062438,0.557794644679147
12200.0000000269,174.115298747179,1.00000000069625,0.569647701140531
12300.0000000272,173.302413392551,1.00000000079427,0.584611307403758
12400.0000000276,172.479165426526,1.00000000069202,0.568624935943534
12500.0000000279,171.628569729621,1.00000000059013,0.552278096248624
12600.0000000283,170.744666639447,1.00000000064576,0.560376943690902
12700.0000000287,169.854440914284,1.00000000080096,0.584464039593535
12800.000000029,168.96290749669,1.0000000007538,0.567406574765312
12900.0000000294,168.058644210418,1.00000000063056,0.553043012046571
13000.0000000298,167.129768842221,1.00000000061012,0.545347477816598
13100.0000000301,166.187814561191,1.00000000081289,0.574134043555895
13200.0000000305,165.253215635662,1.0000000008466,0.575929193576578
13300.0000000309,164.319856051506,1.00000000073747,0.552017212882541
13400.0000000312,163.374197496812,1.00000000064089,0.545062452270631
13500.0000000316,162.414940068482,1.0000000007027,0.546255802776533
13600.0000000319,161.453208479795,1.00000000079949,0.572909768892954
13700.0000000323,160.503622251512,1.0000000008769,0.570866610364408
13800.0000000327,159.557811120937,1.00000000067512,0.541693758701094
13900.000000033,158.604841729235,1.00000000067141,0.542437035688433
14000.0000000334,157.646215788892,1.00000000070268,0.544609790182373
14100.0000000338,156.687151024165,1.00000000077784,0.561772418943931
14200.0000000341,155.739942896617,1.00000000088325,0.571092843970666
14300.0000000345,154.80136672838,1.00000000072703,0.540448124642923
14400.0000000349,153.861776589784,1.00000000066948,0.536243308797735
14500.0000000352,152.921675399285,1.00000000073161,0.545408358462237
14600.0000000356,151.981285710264,1.00000000072794,0.546496383633294
14700.0000000359,151.048912194237,1.00000000084144,0.562552569221039
14800.0000000363,150.127058761932,1.00000000084256,0.554954825874976
14900.0000000367,149.211942296489,1.00000000070537,0.530445952892104
15000.000000037,148.300098266138,1.00000000069594,0.536116408969339
15100.0000000374,147.390195194893,1.00000000073857,0.545991368447171
15200.0000000378,146.485850306133,1.0000000007372,0.543980337341363
15300.0000000381,145.588565300013,1.00000000081167,0.549077522299958
15400.0000000385,144.699779980616,1.0000000008044,0.550792310049427
15500.0000000389,143.819675671567,1.00000000072962,0.532601729479842
15600.0000000392,142.945115976267,1.00000000069552,0.53274717727507
15700.0000000396,142.077004325113,1.00000000069667,0.544298904653825
15800.0000000399,141.214593815484,1.00000000074013,0.545423040563495
15900.0000000403,140.358714817227,1.00000000074535,0.539219486435108
16000.0000000407,139.51098034061,1.00000000076132,0.539572580481916
16100.000000041,138.670938058414,1.00000000076955,0.542392997440754
16200.0000000414,137.839114772564,1.00000000078874,0.534943966080221
16300.0000000418,137.01536420984,1.0000000007325,0.533444173517985
16400.0000000418,136.198834014932,1.00000000073082,0.544732703750905
16500.0000000404,135.390089291868,1.00000000072534,0.546456490410876
16600.0000000389,134.588171340071,1.00000000073377,0.534687594746436
16700.0000000375,133.793786550992,1.00000000070458,0.531810476961341
16800.000000036,133.007525638984,1.00000000075984,0.539728070779365
16900.0000000346,132.229132832499,1.00000000075727,0.542790894369866
17000.0000000331,131.459453306263,1.00000000076705,0.535862967321067
17100.0000000317,130.698043848914,1.00000000072841,0.540573959328459
17200.0000000302,129.945344665774,1.00000000071295,0.547843667763111
17300.0000000287,129.200647185528,1.00000000070094,0.539431006695895
17400.0000000273,128.463503251934,1.00000000070794,0.530659758381736
17500.0000000258,127.73470046881,1.00000000073076,0.530702837034589
17600.0000000244,127.01407106878,1.00000000072874,0.53606806147169
17700.0000000229,126.301557778459,1.000000000768,0.547136180333061
17800.0000000215,125.597332957595,1.00000000073622,0.544232149943416
17900.00000002,124.901222122875,1.0000000007347,0.541327690897831
18000.0000000186,124.213995263887,1.00000000074587,0.546705621337483
18100.0000000171,123.535491814279,1.00000000067463,0.542227100155035
18200.0000000156,122.866238702226,1.0000000006561,0.531563277904798
18300.0000000142,122.205729756586,1.00000000068881,0.52783169066771
18400.0000000127,121.553356330134,1.00000000073165,0.531881098864044
18500.0000000113,120.90952828855,1.00000000073232,0.5360625606454
18600.0000000098,120.273360029425,1.00000000075424,0.54806131172918
18700.0000000084,119.644418355925,1.0000000007781,0.550064344912537
18800.0000000069,119.022980832911,1.00000000075262,0.543944974884402
18900.0000000055,118.40894940121,1.00000000077904,0.548280786345573
19000.000000004,117.804042861641,1.00000000068407,0.541988719621814
19100.0000000026,117.209198138464,1.0000000006481,0.532476480394237
19200.0000000011,116.624720915038,1.00000000066484,0.52178555194475
19299.9999999996,116.04925906976,1.00000000075544,0.52575460085764
19399.9999999982,115.481407459407,1.00000000076505,0.53377827931024
19499.9999999967,114.92089798934,1.00000000072949,0.53447431701369
19599.9999999953,114.367148269621,1.00000000075826,0.544851476826335
19699.9999999938,113.819120406365,1.00000000075641,0.554758844662271
19799.9999999924,113.276635500839,1.0000000007709,0.549880875880601
19899.9999999909,112.739940318888,1.0000000007948,0.548819714761832
19999.9999999895,112.210682635183,1.0000000007476,0.543360097185536
20099.999999988,111.691772340896,1.00000000063642,0.530988527353261
20199.9999999865,111.185155757954,1.00000000063747,0.51993265795752
20299.9999999851,110.689112204746,1.00000000067726,0.516747146180457
20399.9999999836,110.200915686793,1.00000000080192,0.526489618535081
20499.9999999822,109.718090961767,1.00000000075997,0.529725093583996
20599.9999999807,109.241789136942,1.00000000072771,0.527368831910535
20699.9999999793,108.770857534331,1.0000000007469,0.539574389542221
20799.9999999778,108.303230273276,1.00000000078974,0.554591454905007
20899.9999999764,107.838356400529,1.00000000081822,0.557060074277636
20999.9999999749,107.376856295826,1.00000000078677,0.54995379478187
21099.9999999734,106.920541453583,1.00000000079952,0.543842946770869
21199.999999972,106.473339279815,1.00000000069131,0.531168251706717
21299.9999999705,106.038091764301,1.000000000631,0.525098577986463
21399.9999999691,105.61450809357,1.00000000064283,0.521414117093855
21499.9999999676,105.200910608326,1.00000000071183,0.517416780954087
21599.9999999662,104.794206878708,1.00000000075168,0.51870161836753
21699.9999999647,104.392542939183,1.00000000080864,0.525277614613227
21799.9999999633,103.995356436939,1.00000000073568,0.524783582463079
21899.9999999618,103.602553213516,1.00000000074171,0.530902452602907
21999.9999999603,103.21134187098,1.0000000007939,0.545233836515248
22099.9999999589,102.819840786341,1.00000000082534,0.555297538461567
22199.9999999574,102.429144265128,1.00000000081334,0.555732445152806
22299.999999956,102.041555074089,1.00000000078622,0.544579722013318
22399.9999999545,101.660237403197,1.00000000073376,0.536258479257872
22499.9999999531,101.287474035647,1.00000000073278,0.536001874592789
22599.9999999516,100.924998090172,1.00000000065654,0.529264082017259
22699.9999999502,100.573864853925,1.00000000066898,0.526789393900079
22799.9999999487,100.232092189493,1.00000000070076,0.525727003656715
22899.9999999473,99.898747522789,1.0000000006848,0.5171076982777
22999.9999999458,99.5721158448898,1.00000000072444,0.520109108879467
23099.9999999443,99.2499817699622,1.00000000072599,0.524985671085213
23199.9999999429,98.9310511017354,1.00000000074999,0.532997789890496
23299.9999999414,98.6133946461878,1.00000000077719,0.537181569855189
23399.99999994,98.2950613172229,1.00000000076188,0.544959453832731
23499.9999999385,97.97499512263,1.00000000083418,0.54892656347568
23599.9999999371,97.6548572592602,1.00000000077925,0.55219961890857
23699.9999999356,97.3375833635467,1.00000000074374,0.548427184170276
23799.9999999342,97.0252880595339,1.00000000071657,0.543455750936478
23899.9999999327,96.7187319341427,1.00000000071267,0.542203295979696
23999.9999999312,96.4194935726214,1.00000000074465,0.54354060608009
24099.9999999298,96.12847927721,1.00000000070926,0.541477248958001
24199.9999999283,95.8476035256996,1.00000000066915,0.530870349613768
24299.9999999269,95.576731560859,1.00000000067156,0.528671300342524
24399.9999999254,95.3149762158498,1.00000000070885,0.524405997453652
24499.999999924,95.0608082880204,1.00000000070178,0.522290754151694
24599.9999999225,94.8127663967358,1.00000000072245,0.527364019251197
24699.9999999211,94.5674164888844,1.00000000077374,0.537181696815402
24799.9999999196,94.3219822166236,1.000000000829,0.543196944446711
24899.9999999181,94.0761492846377,1.00000000077224,0.544701381224401
24999.9999999167,93.8292763073718,1.00000000080052,0.546173220172046
25099.9999999152,93.5803401956623,1.00000000083436,0.546496039939526
25199.9999999138,93.3312903296437,1.0000000007645,0.547190565841799
25299.9999999123,93.0842653747323,1.00000000075407,0.550144718488541
25399.9999999109,92.8411221838192,1.00000000071487,0.548646507318356
25499.9999999094,92.602564096413,1.00000000075274,0.548259960346452
25599.999999908,92.3674045367825,1.00000000076656,0.552029160602568
25699.9999999065,92.1358299666066,1.00000000076113,0.551188549224005
25799.9999999051,91.9106551169496,1.00000000067747,0.543053111192041
25899.9999999036,91.6942305440158,1.00000000067747,0.535441672799969
25999.9999999021,91.4891922370147,1.00000000063616,0.524704592997918
26099.9999999007,91.2948516046473,1.00000000068993,0.526471036859838
26199.9999998992,91.108214069297,1.00000000075294,0.530327380692358
26299.9999998978,90.9263662811505,1.00000000075133,0.534180384824549
26399.9999998963,90.7481803881177,1.00000000073919,0.535748329613969
26499.9999998949,90.5718618014684,1.00000000075556,0.54128871570002
26599.9999998934,90.3941060880095,1.00000000077615,0.549999218310006
26699.999999892,90.2138045258023,1.00000000077987,0.553219378486841
26799.9999998905,90.031709056831,1.00000000077829,0.54836167146855
26899.999999889,89.8482102098741,1.0000000008105,0.545575370445007
26999.9999998876,89.6644094014169,1.0000000007682,0.541988640754041
27099.9999998861,89.4809894363261,1.00000000076175,0.543476413312402
27199.9999998847,89.2999960398864,1.00000000071528,0.549980119757619
27299.9999998832,89.1210296965092,1.00000000073832,0.558649571321815
27399.9999998818,88.9425749576215,1.00000000075024,0.559561470110084
27499.9999998803,88.7646067341864,1.00000000079974,0.55557865214576
27599.9999998789,88.5880411518334,1.00000000078211,0.552327096595968
27699.9999998774,88.4146610735749,1.00000000075223,0.546263162581079
27799.9999998759,88.2486791398719,1.00000000068502,0.536777581405286
27899.9999998745,88.0918857200937,1.00000000067148,0.531031382802176
27999.999999873,87.9462728118329,1.00000000063891,0.526146674908952
28099.9999998716,87.8103008862713,1.0000000006948,0.530452006108635
28199.9999998701,87.6808835486967,1.00000000076356,0.534399887005862
28299.9999998687,87.5547390823115,1.00000000076851,0.538729717055337
28399.9999998672,87.4303927526184,1.00000000076279,0.543146827775527
28499.9999998658,87.3073743055709,1.00000000077212,0.550266155905951
28599.9999998643,87.1839484768113,1.00000000078267,0.555278795810575
28699.9999998629,87.0578109859447,1.00000000081839,0.558551230847761
28799.9999998614,86.9278442067138,1.00000000083151,0.563980053213216
28899.9999998599,86.7956377585426,1.0000000007648,0.557563707103162
28999.9999998585,86.663808989899,1.00000000073996,0.544735883120483
