Time,AGPnorm,Energy,Entropy
0,0,1,-1.59971111034257e-17
99.9999999999986,8.62356969076719e-06,0.999999999998864,0.000417818389559526
199.999999999993,0.000764948157376469,0.99999999999941,0.000666823600736598
300,0.00188916376284863,0.999999999999727,0.00117679024223796
400.000000000022,0.00259773773024452,0.999999999998704,0.00204699794575875
500.000000000045,0.00317936092414743,0.999999999999934,0.00274649602546234
600.000000000068,0.00460305250604119,0.999999999999075,0.00385401533647358
700.000000000091,0.0056710457954077,0.999999999999155,0.00497539025324328
800.000000000113,0.00724236840082958,0.999999999999914,0.00613132126148338
900.000000000136,0.00915019093449037,0.999999999998688,0.00759204597932855
1000.00000000016,0.0107191337400857,0.999999999999771,0.00893829081711154
1100.0000000001,0.0129006175655746,0.999999999999327,0.0105071831402342
1200,0.015085190192016,0.999999999998928,0.012184237514947
1299.99999999991,0.0174347762569253,1.00000000000001,0.0138197553017735
1399.99999999982,0.0201913250927525,0.999999999998772,0.0157055068989344
1499.99999999973,0.0227319372565644,0.999999999999541,0.0175465611169143
1599.99999999964,0.0257105312485403,0.999999999999583,0.0194959016702871
1699.99999999955,0.0288454105801284,0.999999999998771,0.0216046845118571
1799.99999999946,0.0319808583892276,1,0.0236539592315184
1899.99999999937,0.0354744382905098,0.999999999998942,0.0258924967768564
1999.99999999928,0.0388695329565554,0.99999999999928,0.0281581990139398
2099.99999999919,0.0425634280406196,0.999999999999799,0.0304586187173605
2199.99999999909,0.0465405302129928,0.999999999998706,0.0329372689422034
2299.999999999,0.0504250199763324,0.999999999999895,0.0353726216854486
2399.99999999891,0.0545555022619064,0.999999999999169,0.0379401198560417
2499.99999999882,0.0586735003037782,0.999999999999031,0.0405948875020664
2599.99999999873,0.0629828780926293,0.999999999999952,0.0432477471948677
2699.99999999864,0.0676423037889499,0.999999999998745,0.0460727754350509
2799.99999999855,0.0721939827840292,0.999999999999695,0.0488932719823993
2899.99999999846,0.0768574443451695,0.999999999999407,0.0517972460787621
2999.99999999837,0.0816014731866456,0.999999999998837,0.0548315721639857
3099.99999999828,0.0864426539392112,1.00000000000002,0.0578604907513237
3199.99999999819,0.0915945883089401,0.999999999998882,0.0610408538208308
3299.99999999809,0.0966662414542543,0.999999999999433,0.0642699582153452
3399.999999998,0.10174800628361,0.999999999999625,0.0675432380920041
3499.99999999791,0.107039680703441,0.999999999998721,0.0709817358582881
3599.99999999782,0.112337302057176,1,0.0744300342500234
3699.99999999773,0.117819577293385,0.999999999999079,0.0780109795828154
3799.99999999764,0.123227455862389,0.999999999999168,0.0816959882821922
3899.99999999755,0.128629329027018,0.999999999999793,0.0854061501451278
3999.99999999746,0.134334683888388,0.999999999998718,0.0893092352996205
4099.99999999738,0.139999876122373,0.99999999999988,0.0932614506551313
4199.99999999775,0.145674652321283,0.99999999999929,0.0973316920362511
4299.99999999811,0.151281037545138,0.999999999998957,0.101557190870092
4399.99999999848,0.156925290452616,0.999999999999914,0.105830321495036
4499.99999999884,0.162869431841774,0.999999999998839,0.110319515459806
4599.9999999992,0.168755932796318,0.999999999999658,0.114921379794478
4699.99999999957,0.174503046815404,0.999999999999506,0.119646309073133
4799.99999999993,0.180253159571494,0.9999999999988,0.124597920890375
4900.00000000029,0.186066203498651,1.00000000000004,0.129652567591608
5000.00000000066,0.192104219091942,0.999999999999111,0.134974435688308
5100.00000000102,0.19799755719744,0.999999999999471,0.140509738114075
5200.00000000139,0.203779410476013,0.999999999999856,0.146216835282386
5300.00000000175,0.209593315352927,0.999999999999056,0.152267579649318
5400.00000000211,0.215508870876737,1.00000000000058,0.158533038577689
5500.00000000248,0.221642600643038,1.00000000000017,0.16514953239941
5600.00000000284,0.227268139539247,1.00000000000057,0.172100552799843
5700.00000000321,0.233333050397438,1.0000000000021,0.179304721440286
5800.00000000357,0.239286089292374,1.00000000000221,0.186935374427004
5900.00000000393,0.245341398008624,1.00000000000489,0.194838974386478
6000.0000000043,0.252560249943325,1.00000000000655,0.203030034661234
6100.00000000466,0.258356459463141,1.00000000000875,0.211520287884598
6200.00000000502,0.266654735383864,1.00000000001263,0.220105994272821
6300.00000000539,0.275832241031753,1.0000000000164,0.228937987459742
6400.00000000575,0.285372222474748,1.00000000002092,0.237871640387169
6500.00000000612,0.301130711931138,1.00000000002611,0.246761613430628
6600.00000000648,0.31652980113091,1.00000000003089,0.255741726921679
6700.00000000684,0.340345633795172,1.00000000003764,0.264545819144424
6800.00000000721,0.373205852129577,1.00000000004245,0.273376941295546
6900.00000000757,0.411110918564871,1.00000000005084,0.282085004279619
7000.00000000793,0.469517554971079,1.00000000005976,0.290553826912438
7100.0000000083,0.539328517345387,1.00000000006497,0.299002970522496
7200.00000000866,0.631596622373484,1.00000000007243,0.30721335067023
7300.00000000903,0.755870492900202,1.00000000008104,0.315270250528138
7400.00000000939,0.902389198087012,1.00000000008925,0.323223108389067
7500.00000000975,1.09598287219979,1.0000000000953,0.330888876921329
7600.00000001012,1.33103254291159,1.00000000011122,0.338423900533907
7700.00000001048,1.61431741733982,1.00000000011192,0.345910736755841
7800.00000001084,1.96823368527018,1.00000000011923,0.353071678392922
7900.00000001121,2.37866761434572,1.00000000012783,0.36018635324894
8000.00000001157,2.87275880791331,1.00000000013824,0.366968833998553
8100.00000001194,3.45509482646557,1.00000000014062,0.373696982503432
8200.0000000123,4.12276819018131,1.00000000015291,0.380286229368914
8300.00000001266,4.90817081241382,1.00000000015869,0.386559598901076
8400.00000001303,5.79842750008733,1.00000000016843,0.392798030575262
8500.00000001339,6.8126421886683,1.0000000001676,0.398793465872885
8600.00000001376,7.96913012961518,1.00000000017401,0.404624109089108
8700.00000001412,9.25496615513463,1.00000000018839,0.410344532181243
8800.00000001448,10.703774693835,1.00000000018938,0.415789820079737
8900.00000001485,12.3104345489158,1.00000000020099,0.421151418326747
9000.00000001521,14.0792367094986,1.00000000020267,0.426397461664073
9100.00000001557,16.0394747651989,1.00000000020497,0.431351803184731
9200.00000001594,18.1732900460422,1.0000000002186,0.436301323710093
9300.0000000163,20.5052450428815,1.00000000021684,0.440928594523563
9400.00000001667,23.0423282379173,1.00000000021838,0.44552636897005
9500.00000001703,25.7730949828008,1.00000000023026,0.450032734850644
9600.00000001739,28.7302017240445,1.00000000022614,0.454248024168741
9700.00000001776,31.8984602931589,1.0000000002282,0.458483366005485
9800.00000001812,35.285680326856,1.00000000024612,0.46238006284818
9900.00000001848,38.9111712357373,1.00000000024071,0.466253097694039
10000.0000000188,42.752745148766,1.00000000024704,0.470092812866989
10100.0000000192,46.8366191147935,1.00000000025465,0.473578524707073
10200.0000000196,51.157389762155,1.00000000024819,0.477150375443692
10300.0000000199,55.7035747526211,1.00000000026197,0.480485191953505
10400.0000000203,60.5021048923917,1.00000000026306,0.483656850337863
10500.0000000207,65.529083095461,1.00000000026335,0.486897900566075
10600.000000021,70.7952443152684,1.0000000002623,0.489802126452069
10700.0000000214,76.3080338567836,1.00000000026458,0.492744897933666
10800.0000000218,82.0414528741179,1.00000000026572,0.495632999432238
10900.0000000221,88.0216702412305,1.00000000026453,0.498139132517774
11000.0000000225,94.2308431476087,1.00000000027309,0.500864760507797
11100.0000000229,100.66191524092,1.00000000027362,0.503222991528788
11200.0000000232,107.332170497624,1.00000000026873,0.50557567336582
11300.0000000236,114.209391988094,1.00000000026783,0.508048268543712
11400.0000000239,121.311329552865,1.00000000028066,0.509963134165066
11500.0000000243,128.630631329019,1.00000000027635,0.512203531495799
11600.0000000247,136.143764086476,1.00000000027045,0.514298860098772
11700.000000025,143.873873764599,1.00000000027185,0.515968287877081
11800.0000000254,151.79015406694,1.00000000027494,0.51810840413003
11900.0000000258,159.897080669612,1.00000000027788,0.519643678750218
12000.0000000261,168.19891188538,1.00000000027972,0.521202042811577
12100.0000000265,176.661482291843,1.00000000027549,0.523122851724602
12200.0000000269,185.30709899049,1.00000000026604,0.524366183655993
12300.0000000272,194.112940136729,1.00000000027537,0.52583162446576
12400.0000000276,203.067336536676,1.00000000027909,0.527342327552168
12500.0000000279,212.185799922086,1.00000000027139,0.52832629400107
12600.0000000283,221.429294148394,1.00000000027109,0.529871536620411
12700.0000000287,230.814023528966,1.00000000027918,0.530896998825888
12800.000000029,240.32942458861,1.00000000027419,0.531824625095183
12900.0000000294,249.949972909571,1.00000000027739,0.533071225160724
13000.0000000298,259.696560625464,1.00000000027335,0.53392662803957
13100.0000000301,269.533961341765,1.00000000027625,0.534858252955711
13200.0000000305,279.465584459633,1.0000000002752,0.535696151244915
13300.0000000309,289.495402065942,1.00000000026301,0.536407819087976
13400.0000000312,299.587774919594,1.00000000026344,0.537418645156887
13500.0000000316,309.763752241153,1.0000000002694,0.5378851756626
13600.0000000319,319.997642917765,1.00000000026396,0.538595718335063
13700.0000000323,330.281636793338,1.00000000027512,0.539149050202088
13800.0000000327,340.627366404763,1.00000000026006,0.539676694932825
13900.000000033,350.997730831488,1.00000000027492,0.540336742858148
14000.0000000334,361.40877833448,1.00000000025801,0.540822808338849
14100.0000000338,371.846150490876,1.0000000002571,0.54099527089894
14200.0000000341,382.290073705124,1.00000000025683,0.541748532855356
14300.0000000345,392.759892965433,1.00000000025692,0.542027350132488
14400.0000000349,403.220477432393,1.00000000025483,0.542257865600977
14500.0000000352,413.679883824829,1.0000000002595,0.54252797233378
14600.0000000356,424.136068277754,1.0000000002608,0.542507202325415
14700.0000000359,434.562349425609,1.00000000025506,0.542768046174697
14800.0000000363,444.977726760982,1.00000000024922,0.543349644036907
14900.0000000367,455.355889305964,1.00000000025718,0.543443628481519
15000.000000037,465.6955179809,1.00000000024054,0.543287676403776
15100.0000000374,476.002347025642,1.00000000024625,0.54325295682433
15200.0000000378,486.249394219357,1.0000000002414,0.543619986014569
15300.0000000381,496.450678764883,1.00000000024561,0.543627698793926
15400.0000000385,506.590105872051,1.00000000023915,0.543824427926107
15500.0000000389,516.658537079793,1.00000000024137,0.543848577023334
15600.0000000392,526.669337803352,1.00000000024751,0.543514073230698
15700.0000000396,536.593805578327,1.00000000024271,0.543564806203163
15800.0000000399,546.443693362483,1.00000000023895,0.54358965757848
15900.0000000403,556.212060914649,1.00000000023433,0.543565447369884
16000.0000000407,565.882237372862,1.00000000022842,0.543751084386113
16100.000000041,575.47207890901,1.00000000023835,0.543592286058279
16200.0000000414,584.95579148858,1.00000000023372,0.543321371766992
16300.0000000418,594.340056265091,1.00000000023307,0.543134345789422
16400.0000000418,603.624723532386,1.00000000022206,0.542859794788503
16500.0000000404,612.792087071445,1.00000000023158,0.54315313853769
16600.0000000389,621.858609435927,1.00000000022955,0.542802415387503
16700.0000000375,630.803433703898,1.00000000022324,0.543003192869019
16800.000000036,639.630668627873,1.00000000022898,0.542658334458385
16900.0000000346,648.342651217952,1.0000000002223,0.542334333935537
17000.0000000331,656.924709077082,1.00000000022058,0.542038533952239
17100.0000000317,665.386287622896,1.00000000022201,0.54179937934608
17200.0000000302,673.719431046097,1.00000000021142,0.541837642123235
17300.0000000287,681.916126767723,1.00000000020739,0.541721897392349
17400.0000000273,689.989337186681,1.00000000020404,0.541409232656895
17500.0000000258,697.918770773427,1.00000000020906,0.541162972663847
17600.0000000244,705.716786534978,1.00000000020711,0.540709992552762
17700.0000000229,713.376129581677,1.00000000021318,0.540229086926646
17800.0000000215,720.889220063646,1.00000000020374,0.540079518277999
17900.00000002,728.26911169156,1.00000000020638,0.539841039784162
18000.0000000186,735.4983830632,1.00000000020906,0.539672010490122
18100.0000000171,742.584751597844,1.00000000020941,0.539465296526705
18200.0000000156,749.527019317876,1.00000000020462,0.538996281875733
18300.0000000142,756.316695127474,1.00000000020012,0.538870227035188
18400.0000000127,762.966314242317,1.00000000019808,0.538284982133309
18500.0000000113,769.462758842402,1.00000000019162,0.537983026200072
18600.0000000098,775.808889346368,1.00000000019154,0.537803579704142
18700.0000000084,782.009509958869,1.00000000019223,0.537448175257236
18800.0000000069,788.05339663238,1.00000000019907,0.537506402494765
18900.0000000055,793.953018429691,1.00000000019397,0.536919381020931
19000.000000004,799.698432159056,1.0000000001992,0.536679611478629
19100.0000000026,805.291306360187,1.0000000001829,0.536326421510902
19200.0000000011,810.737944478619,1.00000000018486,0.535717427817695
19299.9999999996,816.028301500186,1.00000000018436,0.535557692407398
19399.9999999982,821.171094616744,1.00000000018727,0.535202126188094
19499.9999999967,826.163280406863,1.0000000001864,0.535400621734739
19599.9999999953,831.002107725676,1.00000000018132,0.535194302889089
19699.9999999938,835.697224515993,1.00000000018377,0.534883350685356
19799.9999999924,840.238042299669,1.0000000001829,0.5342215098397
19899.9999999909,844.63193016884,1.00000000017603,0.533632724705988
19999.9999999895,848.878568483285,1.00000000017383,0.532864798489911
20099.999999988,852.973037723058,1.00000000017436,0.532700085723591
20199.9999999865,856.926405497023,1.0000000001806,0.532849484131847
20299.9999999851,860.730750922626,1.00000000017336,0.533274476082358
20399.9999999836,864.392169629097,1.0000000001682,0.533820772884578
20499.9999999822,867.913415807463,1.0000000001724,0.533356010350875
20599.9999999807,871.288253570595,1.00000000016769,0.532708989367101
20699.9999999793,874.526912147729,1.00000000017063,0.53113424675641
20799.9999999778,877.621430943794,1.00000000016556,0.529614595273693
20899.9999999764,880.574455037969,1.00000000016616,0.52915552942751
20999.9999999749,883.390061180435,1.00000000016187,0.529077160799829
21099.9999999734,886.063973533074,1.00000000016406,0.530786174337527
21199.999999972,888.607685134973,1.0000000001588,0.532623071160286
21299.9999999705,891.019152270249,1.00000000016599,0.533755735129057
21399.9999999691,893.301928828283,1.00000000016188,0.53396767074769
21499.9999999676,895.461774748259,1.00000000015806,0.531955528815946
21599.9999999662,897.490647306517,1.00000000015601,0.529262445396445
21699.9999999647,899.393338623876,1.00000000015074,0.525833549938995
21799.9999999633,901.163236376547,1.00000000015152,0.523565030124713
21899.9999999618,902.800261316998,1.00000000014795,0.524229032614174
21999.9999999603,904.311653044275,1.00000000015574,0.526669537444824
22099.9999999589,905.698149354702,1.00000000015316,0.531295588930002
22199.9999999574,906.973142380159,1.00000000015198,0.535171342359902
22299.999999956,908.142318891781,1.00000000016693,0.537353176408309
22399.9999999545,909.208439485414,1.00000000016338,0.536571294470994
22499.9999999531,910.176707384198,1.00000000015782,0.532360523753886
22599.9999999516,911.036293560072,1.00000000015229,0.526217861456853
22699.9999999502,911.783523933396,1.00000000014505,0.519769996861421
22799.9999999487,912.410310787405,1.00000000013569,0.515574307478786
22899.9999999473,912.912341578715,1.00000000013216,0.516577558807431
22999.9999999458,913.29940083879,1.00000000014075,0.521595950854052
23099.9999999443,913.578484213215,1.00000000014442,0.529616889494355
23199.9999999429,913.767347080588,1.00000000015222,0.537251343493783
23299.9999999414,913.880212206069,1.0000000001616,0.541949531779655
23399.99999994,913.923660315027,1.00000000016157,0.542763612514014
23499.9999999385,913.902436930433,1.00000000016495,0.538087325565812
23599.9999999371,913.806469722965,1.00000000015421,0.529201283732094
23699.9999999356,913.623807123318,1.0000000001391,0.517818045825168
23799.9999999342,913.341171448585,1.0000000001263,0.507595460127193
23899.9999999327,912.94579590489,1.00000000011207,0.503044140595229
23999.9999999312,912.44055582078,1.00000000011796,0.505807685547116
24099.9999999298,911.833450580386,1.00000000012251,0.51583562318469
24199.9999999283,911.143398519379,1.00000000014447,0.528526779279552
24299.9999999269,910.393910484488,1.00000000015897,0.539831778581485
24399.9999999254,909.600725628804,1.00000000017061,0.547201353801514
24499.999999924,908.777838300874,1.00000000017931,0.548580558094921
24599.9999999225,907.925287708925,1.00000000017691,0.54350980706052
24699.9999999211,907.033197589387,1.00000000016568,0.532544221038007
24799.9999999196,906.08758624448,1.00000000014125,0.516436936845985
24899.9999999181,905.064342158818,1.0000000001176,0.499866478426259
24999.9999999167,903.949839835296,1.00000000010961,0.487933353518956
25099.9999999152,902.735521947122,1.00000000010029,0.485268288732778
25199.9999999138,901.425711673387,1.00000000010865,0.494841250853304
25299.9999999123,900.041216843149,1.00000000012727,0.51178856999824
25399.9999999109,898.602676314044,1.00000000014412,0.529511799410249
25499.9999999094,897.136259634252,1.00000000016902,0.544167086637359
25599.999999908,895.661711313351,1.00000000019432,0.552186935878995
25699.9999999065,894.187590227253,1.00000000019479,0.553594008867389
25799.9999999051,892.71663690488,1.00000000019176,0.548559101792498
25899.9999999036,891.237306144132,1.0000000001734,0.535745006962216
25999.9999999021,889.730998363136,1.00000000014909,0.516766889206773
26099.9999999007,888.176162357728,1.00000000012688,0.494365470419232
26199.9999998992,886.549249743574,1.00000000010187,0.474535867211132
26299.9999998978,884.84037339705,1.00000000008594,0.464582504531916
26399.9999998963,883.046603497304,1.00000000008892,0.46922669170829
26499.9999998949,881.181766558769,1.00000000010412,0.487077296517778
26599.9999998934,879.268414269632,1.00000000013481,0.510810071165146
26699.999999892,877.329854423094,1.00000000016032,0.53248471298087
26799.9999998905,875.39074744113,1.00000000018788,0.547726444855041
26899.999999889,873.46736892129,1.00000000020464,0.556446575325415
26999.9999998876,871.567877075508,1.00000000021563,0.557861198828359
27099.9999998861,869.693599163538,1.00000000021257,0.553529819252503
27199.9999998847,867.833661656256,1.00000000019156,0.541270171781882
27299.9999998832,865.971606309094,1.00000000016452,0.52157996310702
27399.9999998818,864.085771049865,1.00000000013726,0.496476326848647
27499.9999998803,862.152913722031,1.00000000010243,0.469346238059176
27599.9999998789,860.158583157926,1.00000000008255,0.449902970799557
27699.9999998774,858.093223207465,1.00000000007237,0.443961011150373
27799.9999998759,855.964461705231,1.00000000008208,0.455367837335553
27899.9999998745,853.786317679144,1.00000000011203,0.480148795238613
27999.999999873,851.580176673025,1.00000000014144,0.50823207276034
28099.9999998716,849.369125419118,1.0000000001769,0.531643698286753
28199.9999998701,847.171680390383,1.00000000020258,0.548301254360393
28299.9999998687,845.001675389596,1.00000000021178,0.556162303661189
28399.9999998672,842.867518596584,1.00000000022927,0.559706753522677
28499.9999998658,840.768983786019,1.00000000021477,0.555895177335933
28599.9999998643,838.700387042531,1.00000000021061,0.548353152241811
28699.9999998629,836.649534591473,1.00000000018482,0.532300762504853
28799.9999998614,834.598069459788,1.000000000156,0.508269980926896
