Time,AGPnorm,Energy,Entropy
0,0,1,-7.26491367829465e-17
99.9999999999986,0.00120436957794618,0.999999999999008,0.00403004940468418
199.999999999993,0.00841045590118077,0.999999999999894,0.0118522495358779
300,0.017020286479795,1.00000000000134,0.0220439272836041
400.000000000022,0.0257338245030401,1.00000000000092,0.0348868790342744
500.000000000045,0.0366645167103467,0.999999999998942,0.0503226514971038
600.000000000068,0.0505942469459705,0.999999999999109,0.0680796535501512
700.000000000091,0.0645076554129133,1.00000000000097,0.0882632053589499
800.000000000113,0.0784001549654005,1.00000000000168,0.111323652745329
900.000000000136,0.0934819584580844,1.00000000000023,0.138342578932711
1000.00000000016,0.109137545535504,1.00000000000256,0.170583905961313
1100.0000000001,0.124804525044707,1.00000000002794,0.210567870360755
1200,0.144000447964328,1.00000000012406,0.258279042515366
1299.99999999991,0.1698037638578,1.00000000032042,0.308685432949161
1399.99999999982,0.220544270793734,1.00000000058101,0.355899783212811
1499.99999999973,0.368425026963566,1.00000000089522,0.39717003790512
1599.99999999964,0.698543459135523,1.00000000107051,0.433184207004724
1699.99999999955,1.27439870358536,1.00000000131086,0.463992474688372
1799.99999999946,2.18240197647019,1.00000000136998,0.489971125412652
1899.99999999937,3.49887647454429,1.00000000163705,0.510690337145559
1999.99999999928,5.24070997803361,1.00000000166908,0.528306762115389
2099.99999999919,7.40115003046438,1.00000000174617,0.543083748281517
2199.99999999909,9.98410594668572,1.00000000179865,0.554509940981548
2299.999999999,12.9547855915325,1.00000000175806,0.562900211543235
2399.99999999891,16.2152342736536,1.00000000175726,0.569619011468625
2499.99999999882,19.6839771344978,1.00000000179052,0.575257317180326
2599.99999999873,23.3259405557056,1.00000000177354,0.578554123219361
2699.99999999864,27.0829414138033,1.00000000170275,0.580264578020029
2799.99999999855,30.8549943408807,1.0000000016462,0.581034075400136
2899.99999999846,34.5532066495696,1.00000000165003,0.581789198681398
2999.99999999837,38.1455465391698,1.00000000156868,0.581552853833556
3099.99999999828,41.6079012670946,1.00000000153543,0.580110684807803
3199.99999999819,44.8872416038533,1.00000000148324,0.57900387218909
3299.99999999809,47.9266542809109,1.0000000014586,0.577536081322638
3399.999999998,50.7067428043761,1.00000000138262,0.574253110871629
3499.99999999791,53.2346172714814,1.00000000130369,0.572215839087237
3599.99999999782,55.5014952389901,1.00000000130677,0.571645350276864
3699.99999999773,57.4869271292788,1.00000000119437,0.568723610892698
3799.99999999764,59.1875701596511,1.00000000121571,0.56575842252571
3899.99999999755,60.6073551832337,1.00000000118987,0.567321971639093
3999.99999999746,61.7710106499329,1.00000000112501,0.561966213300398
4099.99999999738,62.6841638530457,1.00000000107857,0.56126221551634
4199.99999999775,63.3607667062509,1.00000000105338,0.563453583289677
4299.99999999811,63.8011137157016,1.0000000009336,0.553336253330878
4399.99999999848,64.0430115394589,1.00000000106888,0.569597973888162
4499.99999999884,64.1147541063805,1.00000000094557,0.544773248369583
4599.9999999992,64.0039540123428,1.00000000096425,0.561769618338896
4699.99999999957,63.7919879917388,1.00000000106366,0.561490961249949
4799.99999999993,63.4339700783479,1.0000000007445,0.524505212385476
4900.00000000029,62.964862072969,1.00000000117169,0.573955347676089
5000.00000000066,62.4671279997331,1.00000000102403,0.549259191825093
5100.00000000102,61.8631200508339,1.00000000072183,0.506549826542556
5200.00000000139,61.1904777632631,1.00000000125801,0.573254607717837
5300.00000000175,60.5330544462636,1.00000000118601,0.555774638299507
5400.00000000211,59.8180252883995,1.00000000070878,0.491944112825868
5500.00000000248,59.0372443027266,1.00000000107806,0.53456671376467
5600.00000000284,58.2855376721006,1.00000000136442,0.578728392788758
5700.00000000321,57.5489157792086,1.00000000091035,0.505985123920528
5800.00000000357,56.7600391990553,1.00000000072076,0.46908574859575
5900.00000000393,55.9504228081156,1.00000000115649,0.539144837638826
6000.0000000043,55.1841530233571,1.00000000138743,0.566180917674462
6100.00000000466,54.4415656460651,1.00000000096674,0.498002681950218
6200.00000000502,53.6756644884381,1.00000000072669,0.456663189002077
6300.00000000539,52.8937120785566,1.00000000102167,0.498714372334178
6400.00000000575,52.1370126349059,1.00000000141328,0.554939104537895
6500.00000000612,51.4163985584511,1.00000000120322,0.531871858849218
6600.00000000648,50.7063765905849,1.00000000083397,0.473699787749396
6700.00000000684,49.9925079299096,1.00000000078566,0.463475760371193
6800.00000000721,49.2813456063684,1.0000000009842,0.493869691565073
6900.00000000757,48.5887851236208,1.00000000124898,0.531745112431973
7000.00000000793,47.9210032654689,1.00000000120477,0.534497059410749
7100.0000000083,47.2711612652387,1.00000000101054,0.492758237301745
7200.00000000866,46.6329706749886,1.00000000079292,0.468855144058325
7300.00000000903,46.0075639653145,1.00000000092903,0.487828212316482
7400.00000000939,45.395666937757,1.00000000097707,0.498772104799077
7500.00000000975,44.7994033045889,1.00000000105448,0.51287152886371
7600.00000001012,44.2181441420371,1.00000000122189,0.530932438277834
7700.00000001048,43.6515009410692,1.00000000110888,0.515722858867881
7800.00000001084,43.1029400172052,1.00000000079361,0.475199750015007
7900.00000001121,42.5752307411451,1.00000000084711,0.485344658897677
8000.00000001157,42.0636432634239,1.00000000113563,0.505745850193034
8100.00000001194,41.5661509988345,1.00000000095813,0.506325049582007
8200.0000000123,41.0865181286545,1.00000000090494,0.488393202726665
8300.00000001266,40.6204160148338,1.00000000108901,0.516061342788795
8400.00000001303,40.1604992862517,1.00000000128469,0.527753959961589
8500.00000001339,39.70983770945,1.00000000101189,0.508199932035642
8600.00000001376,39.2816147581335,1.00000000082505,0.479239715225106
8700.00000001412,38.8765466226935,1.00000000093267,0.487386208261499
8800.00000001448,38.4836708117447,1.00000000116419,0.504130287393284
8900.00000001485,38.0966621214404,1.00000000109168,0.51711517318362
9000.00000001521,37.7247769359398,1.00000000088571,0.498082998273819
9100.00000001557,37.3725009793358,1.0000000009079,0.484806163787669
9200.00000001594,37.0290376415883,1.00000000114931,0.518878470754208
9300.0000000163,36.6864853338511,1.00000000128162,0.531560531999533
9400.00000001667,36.3452957652935,1.00000000111093,0.519040167500044
9500.00000001703,36.0192899711935,1.00000000090842,0.499847252938708
9600.00000001739,35.7162303165897,1.00000000092052,0.490332423245862
9700.00000001776,35.4312898615256,1.0000000009979,0.500691766194878
9800.00000001812,35.1561500398963,1.00000000110086,0.508672545048007
9900.00000001848,34.8830862413473,1.00000000111328,0.506802533124822
10000.0000000188,34.6152207049857,1.00000000103929,0.519885420086381
10100.0000000192,34.3594566177714,1.00000000096808,0.517367542464817
10200.0000000196,34.115303538974,1.00000000099717,0.50919030010207
10300.0000000199,33.8767851153384,1.00000000104375,0.520514413902502
10400.0000000203,33.6412901582915,1.0000000011046,0.532513714753575
10500.0000000207,33.4073769942895,1.00000000113682,0.532066710834918
10600.000000021,33.1759626382383,1.00000000105535,0.526259923399843
10700.0000000214,32.9601321900406,1.00000000092596,0.510995037701358
10800.0000000218,32.7653258325291,1.00000000089961,0.502676593649755
10900.0000000221,32.5821920282418,1.00000000111253,0.516491058695701
11000.0000000225,32.4055617521348,1.00000000102312,0.515029667164431
11100.0000000229,32.2387475338292,1.00000000092744,0.509898080422707
11200.0000000232,32.0811952781819,1.00000000098656,0.513514862579403
11300.0000000236,31.9282269849527,1.00000000108355,0.516207586259548
11400.0000000239,31.770250511047,1.00000000113729,0.543160165772257
11500.0000000243,31.6086437523239,1.00000000107385,0.549437584699318
11600.0000000247,31.4472195402732,1.00000000102043,0.54146646761796
11700.000000025,31.2913930246323,1.00000000095162,0.533772190179223
11800.0000000254,31.1418781747854,1.00000000099679,0.532572269587337
11900.0000000258,30.9960892476525,1.00000000113825,0.537549876603983
12000.0000000261,30.8518641805998,1.00000000118072,0.539139401769251
12100.0000000265,30.7083620357311,1.00000000107527,0.532377051236047
12200.0000000269,30.5744530789401,1.00000000095569,0.531762026233396
12300.0000000272,30.4581155426601,1.00000000091724,0.523802511612795
12400.0000000276,30.3574836236575,1.00000000099391,0.516989045748056
12500.0000000279,30.2633078938989,1.00000000111783,0.523055937983594
12600.0000000283,30.164978849929,1.0000000011254,0.53433650886978
12700.0000000287,30.0706456795306,1.00000000095566,0.524769614945702
12800.000000029,29.9881968696215,1.00000000093124,0.514817822605396
12900.0000000294,29.9159164179863,1.00000000097345,0.532170818380837
13000.0000000298,29.8457228279312,1.00000000103624,0.544025759554239
13100.0000000301,29.7728029905253,1.00000000107313,0.542419779600801
13200.0000000305,29.6918691289084,1.00000000120755,0.554690720364196
13300.0000000309,29.6024097911079,1.00000000109917,0.558526855651469
13400.0000000312,29.5060869466169,1.00000000112199,0.568159561455395
13500.0000000316,29.4056667054218,1.00000000106997,0.568620896400767
13600.0000000319,29.3037023513996,1.00000000103232,0.567478038061075
13700.0000000323,29.2049478631768,1.0000000009914,0.561614747834317
13800.0000000327,29.1125376282004,1.00000000111101,0.552253513047759
13900.000000033,29.0264161339146,1.0000000010651,0.54535409419583
14000.0000000334,28.9433598584692,1.00000000107289,0.549943086804939
14100.0000000338,28.8619352438103,1.00000000110932,0.549360191284728
14200.0000000341,28.787580426542,1.0000000009894,0.547199573030687
14300.0000000345,28.7271396540391,1.00000000093132,0.547269813815305
14400.0000000349,28.6807593391727,1.00000000100699,0.53652301464944
14500.0000000352,28.6394937269316,1.00000000113795,0.545162954614664
14600.0000000356,28.6022075188403,1.00000000101233,0.542600890374904
14700.0000000359,28.5698880809227,1.00000000103245,0.535560294889969
14800.0000000363,28.5408833398065,1.00000000108093,0.535798805486432
14900.0000000367,28.5155671633773,1.00000000101096,0.535351444604521
15000.000000037,28.494243969128,1.00000000102761,0.547375200974438
15100.0000000374,28.4744253492526,1.00000000105069,0.558502655953127
15200.0000000378,28.4521799037365,1.00000000116981,0.568282794945258
15300.0000000381,28.4243637435707,1.00000000112941,0.577293512609625
15400.0000000385,28.3936052844633,1.00000000109181,0.578128279859625
15500.0000000389,28.363059380107,1.00000000100343,0.578141459470595
15600.0000000392,28.3350367492636,1.00000000099995,0.573314632542524
15700.0000000396,28.3049683700709,1.00000000102221,0.575230934285472
15800.0000000399,28.26946617572,1.00000000110724,0.57990778312068
15900.0000000403,28.2248613668589,1.00000000117122,0.580471181452537
16000.0000000407,28.1697798482586,1.00000000113926,0.581481368164712
16100.000000041,28.1021188351433,1.00000000117577,0.583938509953269
16200.0000000414,28.0280403300189,1.00000000113891,0.595322366633547
16300.0000000418,27.9537358536979,1.00000000102675,0.593616686761103
16400.0000000418,27.8838477622859,1.00000000096916,0.582477819187819
16500.0000000404,27.819510617813,1.00000000100753,0.576420812437127
16600.0000000389,27.7616819582174,1.00000000103184,0.570792834582633
16700.0000000375,27.7093982575755,1.00000000107761,0.567366892554682
16800.000000036,27.6609512239964,1.00000000110936,0.570941318748501
16900.0000000346,27.6163581729668,1.00000000106829,0.570001899698094
17000.0000000331,27.5765173619409,1.00000000104022,0.568552316966191
17100.0000000317,27.5453101724625,1.00000000103488,0.568596072200189
17200.0000000302,27.5258539394902,1.00000000102143,0.566491754859698
17300.0000000287,27.5164658229645,1.00000000106344,0.566212549884586
17400.0000000273,27.5132025634627,1.00000000105763,0.558371828951307
17500.0000000258,27.5132495823279,1.00000000113372,0.557195069828594
17600.0000000244,27.5153254688069,1.00000000111721,0.556084108533595
17700.0000000229,27.520508808158,1.00000000102731,0.556926275229381
17800.0000000215,27.5309966590653,1.00000000100978,0.562720534021731
17900.00000002,27.5448420677654,1.00000000106807,0.565423874780755
18000.0000000186,27.559175262673,1.0000000010908,0.564940205033193
18100.0000000171,27.5720265908778,1.00000000112387,0.566179495266808
18200.0000000156,27.5818924711341,1.00000000116649,0.562509261016903
18300.0000000142,27.5883538325359,1.00000000109143,0.560987409809345
18400.0000000127,27.5908493030443,1.00000000116434,0.57581712982754
18500.0000000113,27.5906409690163,1.00000000111063,0.586613493740704
18600.0000000098,27.5911773964193,1.00000000104806,0.586294634424208
18700.0000000084,27.5909377702598,1.00000000110751,0.589241164071743
18800.0000000069,27.5874892413408,1.00000000115853,0.588248363687517
18900.0000000055,27.5788206316718,1.00000000111137,0.590096619206727
19000.000000004,27.5661329385642,1.00000000117045,0.593479345498474
19100.0000000026,27.5518200437074,1.00000000107343,0.599749916932486
19200.0000000011,27.5373627285802,1.00000000102361,0.605250611192041
19299.9999999996,27.5224149749764,1.00000000111932,0.607761264097886
19399.9999999982,27.5034139115787,1.00000000116005,0.614888502298422
19499.9999999967,27.4798361017417,1.00000000112408,0.611450982257037
19599.9999999953,27.4532338632318,1.0000000010983,0.607820413513076
19699.9999999938,27.4230189526282,1.00000000107937,0.59831288336564
19799.9999999924,27.3878737098113,1.00000000108301,0.592011730051922
19899.9999999909,27.3448451572898,1.00000000115593,0.596686650166329
19999.9999999895,27.2929861819104,1.00000000120455,0.600946874428691
20099.999999988,27.2333456512208,1.00000000116297,0.601761627331338
20199.9999999865,27.1695792589885,1.00000000112839,0.60021508039199
20299.9999999851,27.1047675614371,1.00000000110525,0.600462181809871
20399.9999999836,27.0422401211173,1.00000000109071,0.597858325274105
20499.9999999822,26.9834583662299,1.00000000105582,0.59877113789132
20599.9999999807,26.9292234603308,1.00000000112131,0.599748024986999
20699.9999999793,26.879574797008,1.00000000106264,0.590171418232711
20799.9999999778,26.8351428229968,1.00000000109867,0.589151746618161
20899.9999999764,26.7957314975571,1.00000000119186,0.593158217734807
20999.9999999749,26.7617644216115,1.00000000111903,0.588777465924357
21099.9999999734,26.7315813006062,1.00000000112266,0.575716027048504
21199.999999972,26.7062861521232,1.00000000111111,0.569859039005843
21299.9999999705,26.6866087851419,1.0000000010437,0.570563197337363
21399.9999999691,26.6753165679677,1.00000000107463,0.575948571376238
21499.9999999676,26.6729898932685,1.00000000107813,0.574901882564436
21599.9999999662,26.6797011271443,1.00000000106651,0.578619609341628
21699.9999999647,26.6914791287362,1.00000000112055,0.571375868665191
21799.9999999633,26.7065311220375,1.00000000117977,0.573918010942213
21899.9999999618,26.7262919251285,1.00000000105686,0.572850735081049
21999.9999999603,26.749879389611,1.00000000114778,0.569799800893714
22099.9999999589,26.7762169429884,1.00000000109691,0.563357029521094
22199.9999999574,26.8051444142036,1.00000000110272,0.565018420866756
22299.999999956,26.837492041333,1.00000000105063,0.571870787740005
22399.9999999545,26.8721746249335,1.00000000119197,0.574760645733868
22499.9999999531,26.9049657858888,1.00000000121908,0.577005727196276
22599.9999999516,26.9360018247472,1.00000000112538,0.580099579346548
22699.9999999502,26.9651686631415,1.00000000115641,0.580617312811552
22799.9999999487,26.991110557944,1.00000000120376,0.580885297387659
22899.9999999473,27.012970927843,1.00000000115797,0.588816800695039
22999.9999999458,27.0308875551317,1.00000000114817,0.598689579568987
23099.9999999443,27.0467267609173,1.00000000109162,0.60127082075862
23199.9999999429,27.0607568986799,1.00000000109574,0.610170130513308
23299.9999999414,27.0740399028914,1.00000000114087,0.611134573962795
23399.99999994,27.0841141295002,1.00000000117846,0.616462052097163
23499.9999999385,27.0908947087645,1.00000000114806,0.616423285015555
23599.9999999371,27.0941009693377,1.00000000120357,0.615750578280754
23699.9999999356,27.094870107286,1.00000000114748,0.619451326392714
23799.9999999342,27.0963264453132,1.00000000108243,0.617027594590848
23899.9999999327,27.0979965232711,1.00000000113338,0.608777170073024
23999.9999999312,27.1004384314604,1.00000000111003,0.603884703634741
24099.9999999298,27.1042184339702,1.00000000118459,0.605317805013565
24199.9999999283,27.1050008048171,1.00000000121153,0.608697911108689
24299.9999999269,27.1005527389005,1.00000000116754,0.62392999788752
24399.9999999254,27.0931746009359,1.0000000012278,0.630763002195581
24499.999999924,27.0835389469424,1.00000000112351,0.626607284997397
24599.9999999225,27.073735188999,1.00000000115658,0.629317169724714
24699.9999999211,27.0624400326628,1.0000000011737,0.632409205457805
24799.9999999196,27.0506895489535,1.00000000107577,0.633292626268219
24899.9999999181,27.0411868374144,1.00000000106619,0.625498966083048
24999.9999999167,27.0317053042332,1.00000000116637,0.620887571406973
25099.9999999152,27.0187231400019,1.00000000121715,0.623770661978476
25199.9999999138,27.0021726595545,1.00000000113229,0.625892695929706
25299.9999999123,26.982994240557,1.00000000122155,0.630274664685096
25399.9999999109,26.9586676283564,1.00000000119777,0.627662049864529
25499.9999999094,26.9315860726985,1.00000000117988,0.629359267336931
25599.999999908,26.9024819829845,1.00000000120468,0.637767650345663
25699.9999999065,26.8717896253689,1.00000000114855,0.631309260637515
25799.9999999051,26.8410181025466,1.00000000113184,0.634179773238172
25899.9999999036,26.808615732141,1.00000000113921,0.634526679243354
25999.9999999021,26.7740616780321,1.00000000114924,0.628536855224539
26099.9999999007,26.7378787114034,1.00000000115941,0.624120473853646
26199.9999998992,26.7000863597882,1.00000000116424,0.627306146400583
26299.9999998978,26.661021373349,1.00000000119045,0.630868880186681
26399.9999998963,26.6197182309636,1.00000000123116,0.634792879797216
26499.9999998949,26.5760630164832,1.00000000124658,0.632784384876672
26599.9999998934,26.5286923009009,1.00000000126598,0.630967133904578
26699.999999892,26.4770851882731,1.0000000012459,0.634581148773738
26799.9999998905,26.421654764936,1.00000000128691,0.640858595611841
26899.999999889,26.3637059569194,1.00000000121818,0.639946250634646
26999.9999998876,26.3045830835688,1.00000000119537,0.642318843871236
27099.9999998861,26.2444493616265,1.00000000114412,0.641038548501953
27199.9999998847,26.1851399021822,1.00000000106041,0.64066002670149
27299.9999998832,26.1275611559167,1.00000000114507,0.631469661827997
27399.9999998818,26.0726657461902,1.0000000011576,0.622048710699177
27499.9999998803,26.0211195147771,1.00000000111491,0.619687449819009
27599.9999998789,25.9733549827921,1.00000000111681,0.625389088159767
27699.9999998774,25.9307275499467,1.00000000113176,0.63080776904312
27799.9999998759,25.8932711435,1.00000000116816,0.632150849573178
27899.9999998745,25.8592006076716,1.00000000115118,0.628773274371882
27999.999999873,25.82969443195,1.00000000122293,0.624424061689687
28099.9999998716,25.8037270325905,1.0000000011863,0.618036977186813
28199.9999998701,25.7816532488755,1.00000000113614,0.604792149376148
28299.9999998687,25.7641054684307,1.00000000117121,0.595141489351972
28399.9999998672,25.7510561207352,1.00000000116029,0.596467916568334
28499.9999998658,25.7439613362375,1.0000000012108,0.597196763524744
28599.9999998643,25.7439811874858,1.00000000109985,0.589391659854928
28699.9999998629,25.7515391428052,1.00000000114069,0.591172041459614
28799.9999998614,25.7640225339157,1.0000000011496,0.591727525748624
28899.9999998599,25.783129265492,1.00000000115193,0.586352624322384
28999.9999998585,25.8064370054892,1.00000000122781,0.58432415218192
