Time,AGPnorm,Energy,Entropy
0,0,1,-7.308388752275e-17
99.9999999999986,0.00164181203795817,0.999999999999031,0.00520789333543993
199.999999999993,0.0114328003353961,1.00000000000061,0.0152330417575006
300,0.0229398145997767,1.00000000000231,0.0283738229850783
400.000000000022,0.0344518132197408,1.00000000000125,0.0449794963611492
500.000000000045,0.048804764911605,0.999999999998809,0.0649626222147649
600.000000000068,0.0667169526717899,0.999999999999449,0.0883394695345894
700.000000000091,0.0839037758508977,1.00000000000199,0.115711610187705
800.000000000113,0.100641905237453,1.00000000000327,0.14859888757903
900.000000000136,0.118033070308973,1.00000000001492,0.190004640725882
1000.00000000016,0.1336441689212,1.00000000011105,0.242603786671555
1100.0000000001,0.158044106414471,1.00000000035963,0.30151889100339
1200,0.22452106898006,1.00000000076306,0.357368959628011
1299.99999999991,0.371543384261748,1.00000000117806,0.405972030709533
1399.99999999982,0.695951021223986,1.0000000014822,0.447124883766207
1499.99999999973,1.31679675732978,1.00000000187288,0.480480433231162
1599.99999999964,2.3026378317546,1.00000000214604,0.508565463149853
1699.99999999955,3.69717366322641,1.00000000223368,0.531600737343083
1799.99999999946,5.53802671178486,1.00000000226798,0.549390384347478
1899.99999999937,7.78970291120417,1.00000000240075,0.562415054477125
1999.99999999928,10.3580337824377,1.00000000245489,0.573231630114536
2099.99999999919,13.1909501130279,1.00000000235236,0.581653510235337
2199.99999999909,16.2507905254433,1.00000000231525,0.586492747594933
2299.999999999,19.4364780300634,1.00000000230388,0.589083559211879
2399.99999999891,22.6239053756637,1.00000000219915,0.591148898913121
2499.99999999882,25.7419184216459,1.00000000219375,0.592758236099107
2599.99999999873,28.7668909421268,1.00000000204415,0.592479410859509
2699.99999999864,31.6525862924668,1.0000000019704,0.59052072716226
2799.99999999855,34.328387614848,1.00000000194359,0.588731790960449
2899.99999999846,36.7493228230126,1.00000000187781,0.588168872994954
2999.99999999837,38.907201841972,1.00000000176411,0.585918882389886
3099.99999999828,40.8125250232903,1.00000000171712,0.581372593695369
3199.99999999819,42.4537058205704,1.00000000169322,0.578549439756633
3299.99999999809,43.814644827283,1.00000000152185,0.578493794374084
3399.999999998,44.9006743652275,1.00000000149495,0.576774768565821
3499.99999999791,45.7337616268445,1.00000000145622,0.577120884871555
3599.99999999782,46.3345033290643,1.000000001374,0.571272105539058
3699.99999999773,46.716443806241,1.00000000137248,0.57497505542282
3799.99999999764,46.8956825140389,1.00000000123784,0.565186245165821
3899.99999999755,46.8925797292758,1.00000000147632,0.579826560881518
3999.99999999746,46.7445815666304,1.00000000109955,0.550549478985368
4099.99999999738,46.4716890754194,1.00000000155258,0.58216167019391
4199.99999999775,46.1074900899916,1.00000000108463,0.543253365441445
4299.99999999811,45.6366592923155,1.00000000148473,0.575906202760948
4399.99999999848,45.1337802135769,1.00000000126684,0.55108968387533
4499.99999999884,44.5472970056338,1.00000000122087,0.534782971527898
4599.9999999992,43.9492335079592,1.00000000187989,0.581548315209975
4699.99999999957,43.3348280102635,1.00000000121838,0.52302568283406
4799.99999999993,42.6692068144418,1.00000000142759,0.544232783992495
4900.00000000029,42.0244670605723,1.00000000175982,0.565376825781729
5000.00000000066,41.3746408082865,1.00000000119474,0.507171885770717
5100.00000000102,40.6966305985314,1.00000000136532,0.521389010963249
5200.00000000139,40.0415580633262,1.00000000180698,0.56705086158159
5300.00000000175,39.4033380165662,1.0000000012301,0.501418637502101
5400.00000000211,38.7506648931059,1.00000000121036,0.500255336710434
5500.00000000248,38.1046125937193,1.00000000162655,0.541949380882778
5600.00000000284,37.4867152576599,1.00000000167498,0.535410167333295
5700.00000000321,36.8809678137033,1.00000000110395,0.490311560034787
5800.00000000357,36.276846153424,1.00000000128472,0.507772773531579
5900.00000000393,35.6832213601862,1.00000000151124,0.52585923574144
6000.0000000043,35.1104846065603,1.00000000170853,0.532205896292105
6100.00000000466,34.5547637377699,1.00000000127509,0.492993673082113
6200.00000000502,34.0130312744367,1.00000000126542,0.511753688799955
6300.00000000539,33.4837785116062,1.00000000131572,0.521127790333928
6400.00000000575,32.9695299823671,1.00000000143941,0.520932792650307
6500.00000000612,32.4713204124453,1.00000000147274,0.521116825721348
6600.00000000648,31.9885642932232,1.00000000133268,0.507309017382797
6700.00000000684,31.5255056080702,1.00000000123457,0.509772937783627
6800.00000000721,31.0768706876292,1.00000000152602,0.534304661501582
6900.00000000757,30.6430739817992,1.00000000120356,0.514302642085008
7000.00000000793,30.2270833938047,1.00000000145323,0.512899332158719
7100.0000000083,29.8219911895378,1.00000000166535,0.522143885243662
7200.00000000866,29.4300367037142,1.00000000131658,0.509337785181408
7300.00000000903,29.0582329780041,1.00000000125819,0.507852919627732
7400.00000000939,28.7003802928282,1.00000000158749,0.531217235410038
7500.00000000975,28.3496680677425,1.00000000146242,0.533918594753393
7600.00000001012,28.0181528636074,1.00000000120452,0.501205758852463
7700.00000001048,27.7029743916626,1.0000000014969,0.518332823927714
7800.00000001084,27.3945010138012,1.00000000156029,0.527980265375787
7900.00000001121,27.0942673969402,1.00000000143448,0.507221017770421
8000.00000001157,26.8102494092327,1.00000000132798,0.512875231458659
8100.00000001194,26.5410127314896,1.00000000135632,0.52845890022559
8200.0000000123,26.2768748120518,1.00000000156048,0.530488921870855
8300.00000001266,26.0178444863431,1.00000000143881,0.528459378580896
8400.00000001303,25.7741368067458,1.00000000130334,0.517814565803781
8500.00000001339,25.543764137004,1.00000000141887,0.514966813843658
8600.00000001376,25.3220036647192,1.00000000156144,0.535943849502287
8700.00000001412,25.1058041800807,1.0000000015346,0.530613974910036
8800.00000001448,24.8981451141244,1.00000000132902,0.518026168525769
8900.00000001485,24.7055046571993,1.00000000137305,0.522463480895416
9000.00000001521,24.5200661435526,1.00000000151571,0.543022869427577
9100.00000001557,24.3422420157996,1.00000000140231,0.535008495809285
9200.00000001594,24.1721727315756,1.00000000136836,0.524662214886679
9300.0000000163,24.0049548208322,1.00000000153506,0.533389954248729
9400.00000001667,23.8395602655553,1.00000000150978,0.551840540777551
9500.00000001703,23.6820732939643,1.00000000133703,0.535748442035971
9600.00000001739,23.5362558343296,1.0000000014409,0.5362426276782
9700.00000001776,23.3962463693063,1.00000000157178,0.546802466976451
9800.00000001812,23.2604997457436,1.00000000144935,0.534209172104795
9900.00000001848,23.1316732222768,1.00000000132583,0.535111737597024
10000.0000000188,23.0157983025439,1.00000000135991,0.536707474500803
10100.0000000192,22.9055862606522,1.00000000158351,0.544022079994037
10200.0000000196,22.7916754052539,1.00000000151442,0.553789990514423
10300.0000000199,22.68521515644,1.00000000133725,0.529133719558841
10400.0000000203,22.5940986905162,1.00000000138133,0.532687875669373
10500.0000000207,22.5036852524447,1.00000000156028,0.543479190488696
10600.000000021,22.4070649582069,1.00000000152763,0.553448872718488
10700.0000000214,22.3054464018341,1.00000000147314,0.564582282158849
10800.0000000218,22.2053832963669,1.00000000144763,0.561788452058621
10900.0000000221,22.1111366044234,1.00000000147457,0.555396979772935
11000.0000000225,22.0218193023026,1.00000000147838,0.562595291248547
11100.0000000229,21.9384153670602,1.00000000157287,0.553408149811531
11200.0000000232,21.8622315635325,1.00000000157848,0.544166439548771
11300.0000000236,21.7942686905051,1.00000000151055,0.539067319439286
11400.0000000239,21.734276170293,1.00000000150597,0.552334206827601
11500.0000000243,21.678535220523,1.00000000157562,0.562314942891761
11600.0000000247,21.6249598141717,1.00000000150656,0.55632201353858
11700.000000025,21.5703551722484,1.00000000147264,0.550587343325584
11800.0000000254,21.5186177409014,1.00000000143963,0.556775749460128
11900.0000000258,21.4745326713585,1.0000000014038,0.54548486683441
12000.0000000261,21.4383059160693,1.00000000142481,0.55148849649208
12100.0000000265,21.4035254898564,1.00000000157474,0.567509650531616
12200.0000000269,21.3657643287613,1.00000000151317,0.563706761400109
12300.0000000272,21.3233004745604,1.00000000152007,0.570657373460395
12400.0000000276,21.2735487160044,1.00000000161609,0.573769332748071
12500.0000000279,21.2170860030707,1.00000000155194,0.584786648129232
12600.0000000283,21.1565352567562,1.00000000158278,0.592347895590868
12700.0000000287,21.0967355966844,1.00000000153177,0.58125402937408
12800.000000029,21.0427366858882,1.00000000151015,0.578920862201616
12900.0000000294,20.9963311387719,1.00000000154395,0.575820217274077
13000.0000000298,20.9576984148988,1.0000000014862,0.557472115785041
13100.0000000301,20.9249552360303,1.00000000149708,0.55125424665913
13200.0000000305,20.8999306495601,1.00000000157652,0.55364399460106
13300.0000000309,20.8799119923899,1.00000000153124,0.561992912646577
13400.0000000312,20.8632250368072,1.00000000161428,0.575627614990078
13500.0000000316,20.8465947334471,1.00000000149401,0.571349435725175
13600.0000000319,20.8291902884109,1.00000000150135,0.568035760402085
13700.0000000323,20.8154277970491,1.00000000148397,0.561750575783121
13800.0000000327,20.8068898055662,1.0000000014926,0.553159726944364
13900.000000033,20.7992392293794,1.00000000159279,0.561244616673554
14000.0000000334,20.792347102024,1.00000000153192,0.570575189744858
14100.0000000338,20.7908807681203,1.00000000151331,0.57581890214233
14200.0000000341,20.7930384902926,1.00000000155533,0.580385006468626
14300.0000000345,20.7934330045346,1.00000000154846,0.593772278517727
14400.0000000349,20.7854571377849,1.00000000171905,0.599870804032141
14500.0000000352,20.7711034809953,1.00000000158619,0.6038605100244
14600.0000000356,20.7531712088058,1.0000000015468,0.596147676123902
14700.0000000359,20.7338341898817,1.00000000155717,0.591317735540502
14800.0000000363,20.7106514958529,1.00000000163537,0.598064551249381
14900.0000000367,20.6814093486209,1.00000000160406,0.591469855567999
15000.000000037,20.6452233121081,1.00000000165998,0.594523573633411
15100.0000000374,20.6043082869195,1.00000000153212,0.594183068288998
15200.0000000378,20.5617079728808,1.00000000153153,0.596991983104809
15300.0000000381,20.5219283248763,1.00000000156369,0.589747143295277
15400.0000000385,20.4882037357015,1.0000000015435,0.583864909463184
15500.0000000389,20.4611477065221,1.000000001574,0.579047216326655
15600.0000000392,20.4419318253435,1.00000000160386,0.573027525849397
15700.0000000396,20.4294665535607,1.0000000014692,0.564407487725645
15800.0000000399,20.4256110198278,1.00000000153778,0.567935468610113
15900.0000000403,20.4269843479585,1.00000000155325,0.569739869795008
16000.0000000407,20.4318366855591,1.00000000164536,0.582444798962922
16100.000000041,20.4384444631393,1.00000000151751,0.581153865760396
16200.0000000414,20.443997748148,1.00000000165402,0.584299482963152
16300.0000000418,20.4487612698556,1.00000000153245,0.576926979314167
16400.0000000418,20.4573872028041,1.00000000154762,0.569600962556606
16500.0000000404,20.4694579014474,1.00000000160854,0.57211415521008
16600.0000000389,20.4832498637654,1.0000000016275,0.58039669394948
16700.0000000375,20.4982737372429,1.00000000152913,0.585780656355773
16800.000000036,20.5158128658212,1.00000000153673,0.581605091610784
16900.0000000346,20.5338469081046,1.00000000167125,0.589939772418204
17000.0000000331,20.5506086097812,1.00000000163056,0.585076446256502
17100.0000000317,20.5669740473197,1.00000000162243,0.582447278228397
17200.0000000302,20.5846964158683,1.00000000157918,0.584314693384034
17300.0000000287,20.6037388961352,1.00000000166074,0.600980811674631
17400.0000000273,20.6210237873663,1.00000000168149,0.609906759412859
17500.0000000258,20.6339169321128,1.00000000167686,0.61808403490665
17600.0000000244,20.6412875671296,1.00000000162564,0.625174851100111
17700.0000000229,20.645624999673,1.00000000164704,0.628203525609642
17800.0000000215,20.6462809574971,1.00000000156584,0.624369923206632
17900.00000002,20.643777735455,1.00000000171114,0.625082057175639
18000.0000000186,20.6374192288411,1.00000000167285,0.628582405704557
18100.0000000171,20.6282171807807,1.0000000016727,0.634703170145393
18200.0000000156,20.6162652289066,1.00000000159752,0.634753616443364
18300.0000000142,20.6017540178735,1.00000000160735,0.635926346008624
18400.0000000127,20.5839426768617,1.00000000162977,0.638168752467785
18500.0000000113,20.5603665579312,1.00000000177103,0.643345158971738
18600.0000000098,20.5295630924315,1.00000000168013,0.63853702522805
18700.0000000084,20.4943858123782,1.0000000016758,0.638288252848264
18800.0000000069,20.4552328613483,1.0000000016811,0.637376778712732
18900.0000000055,20.4158776809582,1.00000000162716,0.630790184696282
19000.000000004,20.3789655237368,1.00000000159615,0.628578300759077
19100.0000000026,20.3452494686778,1.00000000153452,0.625962849385029
19200.0000000011,20.3166173706807,1.00000000162606,0.624401124592648
19299.9999999996,20.2936275906063,1.00000000176728,0.627229937394461
19399.9999999982,20.276615176954,1.00000000166726,0.618629299453621
19499.9999999967,20.2657439039449,1.00000000169984,0.618231520132233
19599.9999999953,20.2594738178363,1.00000000162712,0.611147741558
19699.9999999938,20.2601895731839,1.00000000169376,0.603280191940205
19799.9999999924,20.2681743566954,1.00000000165176,0.594013747571617
19899.9999999909,20.2798880025452,1.0000000016849,0.600280003515228
19999.9999999895,20.295939851909,1.00000000175029,0.603750619489463
20099.999999988,20.311966652827,1.00000000171589,0.608414273508317
20199.9999999865,20.3275067326783,1.00000000172177,0.611248010187028
20299.9999999851,20.3463147658704,1.00000000163261,0.607437304362088
20399.9999999836,20.3652074778825,1.00000000171526,0.607792131209683
20499.9999999822,20.3853021223626,1.00000000169242,0.607133990221291
20599.9999999807,20.4075593375821,1.00000000165688,0.595543075647859
20699.9999999793,20.4325652090243,1.00000000162713,0.593057710235189
20799.9999999778,20.4607134887471,1.00000000171888,0.599399074148254
20899.9999999764,20.4904151384461,1.00000000172616,0.605488329793443
20999.9999999749,20.519968627093,1.00000000172749,0.609005143490432
21099.9999999734,20.548587131196,1.00000000179591,0.61178651986052
21199.999999972,20.5777974520298,1.00000000173853,0.614484678282968
21299.9999999705,20.6093700539044,1.00000000162237,0.615350352351525
21399.9999999691,20.6424956168963,1.00000000173175,0.622561468443013
21499.9999999676,20.6739795933916,1.00000000176715,0.620957019950917
21599.9999999662,20.7014705480664,1.00000000181089,0.635854879955113
21699.9999999647,20.7237359710415,1.00000000185253,0.645088818690202
21799.9999999633,20.7428455913764,1.00000000177168,0.651210016046212
21899.9999999618,20.7580526685619,1.00000000178588,0.652137170929988
21999.9999999603,20.7730092246058,1.0000000017975,0.645850424367395
22099.9999999589,20.7888342718429,1.00000000181172,0.642300650096186
22199.9999999574,20.8055607918048,1.00000000165402,0.641996779949661
22299.999999956,20.8246103788508,1.00000000176512,0.648442432535402
22399.9999999545,20.8429935039721,1.0000000018069,0.654286831679684
22499.9999999531,20.8599233620259,1.00000000177254,0.651782380735689
22599.9999999516,20.8731002987865,1.00000000180937,0.654214019324633
22699.9999999502,20.8789436504619,1.00000000192857,0.654731416952076
22799.9999999487,20.882424383314,1.000000001833,0.656262428947267
22899.9999999473,20.8822408693323,1.00000000183009,0.65157903683803
22999.9999999458,20.8810778622711,1.00000000167378,0.648627146973141
23099.9999999443,20.8830559544937,1.00000000171507,0.640833548439423
23199.9999999429,20.8850961133401,1.00000000179043,0.644436452627768
23299.9999999414,20.8843850039363,1.00000000176314,0.641604367141548
23399.99999994,20.8827299454719,1.00000000185663,0.645007353776149
23499.9999999385,20.8790624269127,1.00000000170688,0.642834256896507
23599.9999999371,20.8744531979111,1.00000000179554,0.65227535919722
23699.9999999356,20.8688375246551,1.00000000181799,0.660212826614455
23799.9999999342,20.8602759576873,1.00000000191277,0.663661718255224
23899.9999999327,20.8504031900875,1.0000000018292,0.659437547890103
23999.9999999312,20.8390527422495,1.00000000187981,0.666513742300458
24099.9999999298,20.8257395140447,1.00000000176564,0.663925956631627
24199.9999999283,20.8128025726012,1.0000000018625,0.662066608152506
24299.9999999269,20.7947743165044,1.0000000018232,0.65278077200267
24399.9999999254,20.7729842941033,1.00000000175878,0.651911454142781
24499.999999924,20.7503723991666,1.00000000181241,0.656189103603366
24599.9999999225,20.7273746362535,1.00000000180404,0.653743156976567
24699.9999999211,20.7025336499271,1.00000000188134,0.659321087175775
24799.9999999196,20.6758398192699,1.00000000194158,0.661264245595939
24899.9999999181,20.6464567328277,1.00000000195513,0.665275856155323
24999.9999999167,20.6131761873417,1.00000000195159,0.662216838798308
25099.9999999152,20.5781025191835,1.00000000188123,0.665057529717305
25199.9999999138,20.5426062217768,1.000000001846,0.669485999601577
25299.9999999123,20.508808721568,1.00000000177769,0.663629332615539
25399.9999999109,20.4786592132923,1.00000000178855,0.655724912538752
25499.9999999094,20.4515663310982,1.00000000189834,0.657214532885065
25599.999999908,20.4276641554546,1.00000000181947,0.646778931749569
25699.9999999065,20.4070283561993,1.00000000192499,0.643168540048556
25799.9999999051,20.3906685123888,1.00000000189846,0.645587775423315
25899.9999999036,20.3800541715465,1.00000000187186,0.650482660407692
25999.9999999021,20.3747702802176,1.0000000018624,0.654799801218608
26099.9999999007,20.3741041560721,1.00000000175632,0.652581443338538
26199.9999998992,20.379535687761,1.00000000179678,0.64862049202556
26299.9999998978,20.3902988010063,1.0000000018863,0.643840038809973
26399.9999998963,20.405989906351,1.00000000186475,0.635135051825747
26499.9999998949,20.4297292824176,1.0000000018117,0.627182585490592
26599.9999998934,20.4560480284716,1.00000000203377,0.630557548821257
26699.999999892,20.4839480779156,1.00000000177531,0.62279585060193
26799.9999998905,20.5150196870523,1.00000000192321,0.624425002838371
26899.999999889,20.5440815508188,1.00000000198971,0.623975511103151
26999.9999998876,20.5739196639268,1.00000000185269,0.609591428587078
27099.9999998861,20.6086434065486,1.00000000193152,0.619839508120887
27199.9999998847,20.6427882828234,1.0000000020525,0.617120680453485
27299.9999998832,20.6777756703317,1.00000000172577,0.607403829331374
27399.9999998818,20.7172196892672,1.00000000187789,0.615547381438965
27499.9999998803,20.7588554012253,1.00000000193919,0.61361079020765
27599.9999998789,20.8009264044785,1.00000000195214,0.612882058055116
27699.9999998774,20.8461683626093,1.00000000185689,0.611558595848488
27799.9999998759,20.8926211730737,1.00000000191168,0.612726603338502
27899.9999998745,20.9407081785934,1.00000000196712,0.615475749072381
27999.999999873,20.9897908858108,1.0000000019513,0.612710232144235
28099.9999998716,21.0407323474749,1.00000000187632,0.61801655948957
28199.9999998701,21.093195008532,1.00000000205301,0.61931466722851
28299.9999998687,21.1442016382112,1.00000000192826,0.621999889273092
28399.9999998672,21.1941992210477,1.00000000197276,0.625931723603834
28499.9999998658,21.2446611983786,1.00000000195617,0.624766973631003
28599.9999998643,21.294697426042,1.00000000208296,0.631305082969132
28699.9999998629,21.3419497273218,1.00000000198952,0.644779671426426
28799.9999998614,21.387396907286,1.00000000191907,0.63822230930111
28899.9999998599,21.4305655134802,1.00000000211747,0.650150624172205
28999.9999998585,21.4701184646924,1.00000000199294,0.64778897493226
