Time,AGPnorm,Energy,Entropy
0,0,1,-1.06714145408334e-17
99.9999999999986,4.81337490498177e-05,1.00000000000031,0.00191626168474328
199.999999999993,0.00450430152082286,0.999999999999006,0.0031236822321094
300,0.0111631090335857,1.00000000000083,0.0054475631678277
400.000000000022,0.0157634226431212,0.999999999999395,0.00915894854220354
500.000000000045,0.019032184329476,0.999999999999587,0.0124412014078283
600.000000000068,0.0264640338457899,1.00000000000068,0.0170680599178311
700.000000000091,0.032877968774675,0.999999999998836,0.0218796630675342
800.000000000113,0.0420854400429119,1.00000000000081,0.0269666454596334
900.000000000136,0.0523363122398666,0.999999999999672,0.0329322678122365
1000.00000000016,0.060372073529229,0.99999999999905,0.0389008000980526
1100.0000000001,0.0713833335565148,1.00000000000106,0.0454522650912585
1200,0.0839652560183591,0.99999999999892,0.0525549708747339
1299.99999999991,0.0958401455889047,1.00000000000049,0.0599534208615779
1399.99999999982,0.108015285916355,1.00000000000002,0.06793070230899
1499.99999999973,0.120049921479761,0.999999999998668,0.0762909092084419
1599.99999999964,0.133966911034245,1.00000000000132,0.0851974764275704
1699.99999999955,0.149304398018838,0.999999999999101,0.0949087604629468
1799.99999999946,0.162481817469404,0.999999999999879,0.105166760565281
1899.99999999937,0.17549688661597,1.00000000000049,0.116097875335091
1999.99999999928,0.189962407045157,0.999999999998684,0.128080207233412
2099.99999999919,0.204926742955935,1.00000000000161,0.14126198009996
2199.99999999909,0.219839738907533,1.00000000000066,0.156107004576545
2299.999999999,0.232837169102973,1.00000000000535,0.172730438843845
2399.99999999891,0.246832135436198,1.0000000000196,0.191391186619937
2499.99999999882,0.259869505319016,1.00000000004495,0.212277220983696
2599.99999999873,0.277066900378722,1.00000000009623,0.234348568620971
2699.99999999864,0.293282984139742,1.00000000016189,0.256803739012492
2799.99999999855,0.309266404794983,1.00000000024877,0.278934079021689
2899.99999999846,0.351004450139911,1.00000000034967,0.300697789722345
2999.99999999837,0.396422331226575,1.00000000044047,0.322164533656013
3099.99999999828,0.483458870012489,1.00000000058151,0.342679662591991
3199.99999999819,0.623075738035063,1.00000000067691,0.36207771141708
3299.99999999809,0.811184250766381,1.00000000078947,0.381061082812276
3399.999999998,1.10604024172076,1.00000000089334,0.398920538367738
3499.99999999791,1.49708938511118,1.00000000097129,0.415888019015036
3599.99999999782,2.01384329842023,1.00000000106612,0.432051464364331
3699.99999999773,2.6934283705174,1.00000000113869,0.44666704759751
3799.99999999764,3.52757416382592,1.00000000117338,0.461001325573216
3899.99999999755,4.54888886471335,1.00000000129927,0.474083830540423
3999.99999999746,5.77782685261613,1.00000000129485,0.485952622094318
4099.99999999738,7.20578881260578,1.00000000134599,0.497444391562895
4199.99999999775,8.85225348282467,1.0000000013844,0.507694107582369
4299.99999999811,10.7290765893052,1.00000000146723,0.517041955136868
4399.99999999848,12.8102216970353,1.00000000148626,0.526273571172888
4499.99999999884,15.1254274622187,1.00000000146811,0.533963510767893
4599.9999999992,17.6571801024704,1.00000000152249,0.541586909422979
4699.99999999957,20.3746489595177,1.00000000152281,0.548614029702929
4799.99999999993,23.3169517923759,1.00000000155183,0.554306508079969
4900.00000000029,26.4237102500297,1.00000000155154,0.560417843492219
5000.00000000066,29.7019774366187,1.0000000015673,0.565317718771581
5100.00000000102,33.15798260082,1.00000000150151,0.570093231587272
5200.00000000139,36.7185178172323,1.00000000149708,0.574854706855383
5300.00000000175,40.4303538473763,1.00000000150584,0.577937653421858
5400.00000000211,44.2401168084157,1.00000000152935,0.581810870566536
5500.00000000248,48.1201234146345,1.00000000152061,0.58501922187481
5600.00000000284,52.1038540319801,1.00000000146717,0.587470812910496
5700.00000000321,56.1064622023948,1.00000000150244,0.590306766182153
5800.00000000357,60.1611161009413,1.00000000143287,0.592055848913132
5900.00000000393,64.2428618786557,1.00000000141212,0.593995849149623
6000.0000000043,68.2992091222565,1.00000000139722,0.596081256641844
6100.00000000466,72.3770505425495,1.00000000141525,0.596425653844409
6200.00000000502,76.4035661055224,1.00000000139719,0.598282605187787
6300.00000000539,80.3925702309482,1.00000000141517,0.599206530924338
6400.00000000575,84.3456104218506,1.00000000134756,0.599655159172319
6500.00000000612,88.2036638738519,1.0000000013585,0.600666327000187
6600.00000000648,92.0115530055778,1.00000000131514,0.60063974081259
6700.00000000684,95.7199087174668,1.00000000128186,0.601454675917098
6800.00000000721,99.3273936533654,1.00000000125913,0.601664136249557
6900.00000000757,102.851725450993,1.00000000125443,0.601520148172036
7000.00000000793,106.239254528324,1.00000000123567,0.602509418314095
7100.0000000083,109.527007992237,1.00000000119715,0.601353928368108
7200.00000000866,112.687228492709,1.0000000011878,0.601742031114701
7300.00000000903,115.710140960223,1.00000000119442,0.601471115273897
7400.00000000939,118.619958308929,1.00000000119425,0.600926388355606
7500.00000000975,121.374205587327,1.00000000115656,0.600707048345688
7600.00000001012,124.004372615471,1.00000000113393,0.600256731838024
7700.00000001048,126.493639527194,1.00000000112554,0.600260859515015
7800.00000001084,128.833530060028,1.00000000110457,0.599473931823467
7900.00000001121,131.046873764854,1.00000000106451,0.599540539897236
8000.00000001157,133.106681789683,1.00000000103349,0.598341106206732
8100.00000001194,135.031747867956,1.00000000108587,0.599191480333199
8200.0000000123,136.821625927364,1.00000000100865,0.596593753706696
8300.00000001266,138.462569568928,1.0000000010456,0.598693787855149
8400.00000001303,139.980651170085,1.00000000096691,0.595376848218382
8500.00000001339,141.353585099129,1.00000000098309,0.597782422569973
8600.00000001376,142.598401019531,1.00000000091459,0.59503847431495
8700.00000001412,143.71667508513,1.00000000091912,0.596418832752773
8800.00000001448,144.70084973465,1.00000000091414,0.594731786949525
8900.00000001485,145.569661275176,1.00000000089234,0.594768366073392
9000.00000001521,146.313567696666,1.00000000090519,0.594849453334221
9100.00000001557,146.941186495255,1.00000000090843,0.59322808922799
9200.00000001594,147.460415792379,1.00000000085213,0.594233520606214
9300.0000000163,147.865504353772,1.00000000084624,0.594164884727169
9400.00000001667,148.17275665992,1.00000000082955,0.591237140639809
9500.00000001703,148.376568331032,1.00000000087983,0.594911932847679
9600.00000001739,148.489756494878,1.00000000082364,0.591148802115489
9700.00000001776,148.512660982851,1.00000000081382,0.589815873528353
9800.00000001812,148.449350920752,1.00000000087167,0.594492269814458
9900.00000001848,148.315443745956,1.000000000814,0.585890829658755
10000.0000000188,148.099356386083,1.00000000083651,0.589058356190673
10100.0000000192,147.820907228985,1.00000000085785,0.592513500577455
10200.0000000196,147.484373600372,1.00000000078451,0.580952028945115
10300.0000000199,147.079543207934,1.00000000084062,0.584926791056501
10400.0000000203,146.6317807317,1.0000000008898,0.58929326499518
10500.0000000207,146.136964390125,1.00000000080779,0.578125544334889
10600.000000021,145.590078262629,1.00000000080965,0.578221576935067
10700.0000000214,145.00967866267,1.00000000089892,0.586088355786226
10800.0000000218,144.396289720396,1.00000000085546,0.580539284978661
10900.0000000221,143.744814553204,1.00000000077135,0.567842999435214
11000.0000000225,143.058851338809,1.00000000089738,0.582826304641195
11100.0000000229,142.355561562556,1.00000000091704,0.584332014115458
11200.0000000232,141.627699302548,1.00000000078639,0.562882996174978
11300.0000000236,140.864887714792,1.0000000008358,0.574414810902971
11400.0000000239,140.09304407854,1.00000000093853,0.581859052186479
11500.0000000243,139.311628053043,1.00000000086043,0.572918460164962
11600.0000000247,138.506444265974,1.00000000076751,0.55519494781163
11700.000000025,137.685916159396,1.00000000090221,0.578542375634001
11800.0000000254,136.862316975519,1.00000000089884,0.574058993365287
11900.0000000258,136.03502672661,1.00000000084266,0.565297896458577
12000.0000000261,135.18986317823,1.00000000079197,0.553119692765085
12100.0000000265,134.336588504045,1.00000000099607,0.57605380844976
12200.0000000269,133.48814774435,1.00000000092977,0.565236240139425
12300.0000000272,132.636166331219,1.00000000087765,0.560014865935749
12400.0000000276,131.778127666619,1.00000000084783,0.554544068110332
12500.0000000279,130.91573572881,1.00000000093179,0.565615590315305
12600.0000000283,130.05654271643,1.00000000092094,0.562498716726889
12700.0000000287,129.20273110032,1.0000000009143,0.554452757190484
12800.000000029,128.345361768284,1.00000000082561,0.554396514219534
12900.0000000294,127.48936829602,1.00000000094092,0.559130391426931
13000.0000000298,126.636628410474,1.00000000092176,0.559576858095557
13100.0000000301,125.788215165979,1.00000000097109,0.550854406341432
13200.0000000305,124.946082488099,1.00000000085126,0.546573279295462
13300.0000000309,124.104546499382,1.00000000088647,0.559495947296172
13400.0000000312,123.269629969249,1.00000000094032,0.556904139467997
13500.0000000316,122.439182331994,1.00000000087102,0.54954222101752
13600.0000000319,121.613849425855,1.00000000098715,0.544814706200498
13700.0000000323,120.795831021463,1.00000000085522,0.542861388637286
13800.0000000327,119.982285161131,1.00000000089462,0.559779745165939
13900.000000033,119.177138882318,1.0000000009587,0.559643716509916
14000.0000000334,118.377904025058,1.00000000083607,0.541747520505496
14100.0000000338,117.583131073212,1.00000000092438,0.542304527070639
14200.0000000341,116.796163298356,1.00000000089372,0.538753801341366
14300.0000000345,116.015744863717,1.00000000093105,0.550315936598883
14400.0000000349,115.244149026899,1.00000000098001,0.563593324206405
14500.0000000352,114.480677969459,1.00000000093945,0.551117316513857
14600.0000000356,113.722625782622,1.00000000081089,0.536178446367539
14700.0000000359,112.97115033941,1.00000000089231,0.537415573154228
14800.0000000363,112.226515331274,1.00000000094541,0.541676007442871
14900.0000000367,111.490781673445,1.00000000089674,0.549672298066106
15000.000000037,110.763624370106,1.00000000094364,0.562049590702332
15100.0000000374,110.044121542932,1.00000000089229,0.552896004036113
15200.0000000378,109.332456904903,1.00000000083991,0.537109942971511
15300.0000000381,108.627221165877,1.00000000083985,0.533325673667654
15400.0000000385,107.929222574631,1.00000000090819,0.547165846393343
15500.0000000389,107.239847581229,1.00000000088531,0.545629371631136
15600.0000000392,106.558843503349,1.0000000009033,0.555995243009445
15700.0000000396,105.886819014463,1.0000000008857,0.560788569252594
15800.0000000399,105.222599676038,1.00000000087465,0.54685619067352
15900.0000000403,104.566222975882,1.00000000083096,0.537329199861973
16000.0000000407,103.91795467346,1.0000000008737,0.53830530434124
16100.000000041,103.277656529628,1.00000000086491,0.548037166580185
16200.0000000414,102.645724185482,1.00000000086461,0.552618562904056
16300.0000000418,102.021768963915,1.0000000009263,0.553308452713598
16400.0000000418,101.406512326605,1.00000000090726,0.557756574209619
16500.0000000404,100.800136699958,1.00000000084465,0.550505358728012
16600.0000000389,100.202049800893,1.000000000812,0.542116869639014
16700.0000000375,99.6124256541589,1.00000000087343,0.538370256373372
16800.000000036,99.0314201047726,1.00000000086324,0.538978529262722
16900.0000000346,98.4584896658481,1.00000000089536,0.5555610638558
17000.0000000331,97.892886013048,1.00000000088786,0.556967494212907
17100.0000000317,97.3348418206183,1.00000000093895,0.54961032213686
17200.0000000302,96.7848190919131,1.00000000091818,0.554928082148549
17300.0000000287,96.2437219316217,1.00000000083236,0.548547201226635
17400.0000000273,95.7119793526191,1.00000000084191,0.537456522693576
17500.0000000258,95.1885356991032,1.0000000008843,0.53548719514592
17600.0000000244,94.6734611727562,1.00000000087222,0.538091164786158
17700.0000000229,94.1659817399985,1.00000000089566,0.546035653772484
17800.0000000215,93.6643618545714,1.00000000092427,0.556337864504539
17900.00000002,93.1693700369973,1.00000000088942,0.556184752070777
18000.0000000186,92.6807641097211,1.00000000093595,0.551844414452712
18100.0000000171,92.1991281640389,1.00000000094807,0.550478216612483
18200.0000000156,91.7271126356459,1.00000000080966,0.544411525092818
18300.0000000142,91.2646915277319,1.00000000080599,0.534421484904164
18400.0000000127,90.8111551809752,1.00000000088635,0.531035537023762
18500.0000000113,90.3646143699448,1.00000000088576,0.534521633488465
18600.0000000098,89.9245995379035,1.00000000090058,0.54129239561346
18700.0000000084,89.4898732155041,1.0000000009092,0.546530472819543
18800.0000000069,89.0593529695306,1.00000000096141,0.560110130273593
18900.0000000055,88.6337353549407,1.00000000088958,0.560971978687769
19000.000000004,88.2132652879038,1.00000000093462,0.550722911198796
19100.0000000026,87.8003004288438,1.00000000087623,0.544277419074453
19200.0000000011,87.3969331600708,1.0000000008675,0.540797489076569
19299.9999999996,87.0032127933656,1.0000000008372,0.535489207947277
19399.9999999982,86.6183659382632,1.00000000088195,0.529139993151628
19499.9999999967,86.2400347228477,1.00000000088787,0.530646643652499
19599.9999999953,85.8672314444762,1.00000000087781,0.534388032923741
19699.9999999938,85.4995275726421,1.00000000091043,0.539501703016851
19799.9999999924,85.1340230204096,1.00000000101337,0.548897192238538
19899.9999999909,84.7699729475436,1.00000000092504,0.563116164384858
19999.9999999895,84.4096236966404,1.00000000091555,0.55786619246089
20099.999999988,84.0551258219245,1.00000000087163,0.546330982196377
20199.9999999865,83.7077899041683,1.00000000089306,0.545102254545902
20299.9999999851,83.3681517892546,1.00000000088101,0.545023646633098
20399.9999999836,83.0379135354165,1.00000000084253,0.539894438123115
20499.9999999822,82.7160931971485,1.00000000084306,0.533551735337048
20599.9999999807,82.4022615110983,1.00000000084056,0.527205762662018
20699.9999999793,82.094313680838,1.00000000090799,0.530963048016171
20799.9999999778,81.7905847651456,1.00000000091234,0.534436526299295
20899.9999999764,81.4891718127645,1.00000000101307,0.547864740204177
20999.9999999749,81.1874044055297,1.00000000096407,0.548366329710267
21099.9999999734,80.886171283734,1.00000000097014,0.555507060018856
21199.999999972,80.5878642909425,1.00000000087644,0.555802374197642
21299.9999999705,80.294537085446,1.0000000008768,0.549882311574077
21399.9999999691,80.0067598313355,1.00000000088774,0.548807121356347
21499.9999999676,79.7252457130655,1.00000000086591,0.549640252088065
21599.9999999662,79.4510737130007,1.00000000089726,0.548451932817584
21699.9999999647,79.1857578279875,1.00000000083793,0.538746536938477
21799.9999999633,78.9289140849127,1.00000000081233,0.534791285266111
21899.9999999618,78.6788578304418,1.00000000088455,0.534186222377903
21999.9999999603,78.4343687472095,1.00000000085855,0.536880356694157
22099.9999999589,78.1942087932516,1.00000000091159,0.539707148671427
22199.9999999574,77.9564421534837,1.00000000094373,0.542628619583639
22299.999999956,77.7184194605097,1.00000000099795,0.545360789798058
22399.9999999545,77.4789197457502,1.00000000097446,0.550829848665909
22499.9999999531,77.2397341377759,1.00000000091341,0.556153125197044
22599.9999999516,77.0025078517942,1.00000000088443,0.561127163298236
22699.9999999502,76.768770166485,1.00000000092315,0.557787375287965
22799.9999999487,76.5391304932921,1.0000000009297,0.554066315664069
22899.9999999473,76.3154903204842,1.00000000088864,0.550303185516891
22999.9999999458,76.0986747398679,1.00000000083687,0.550394715608212
23099.9999999443,75.8901971182318,1.00000000083863,0.544920747984277
23199.9999999429,75.6909200631152,1.00000000081954,0.540839474916461
23299.9999999414,75.4973306868554,1.00000000090512,0.54491198577508
23399.99999994,75.3077663449994,1.00000000091462,0.54050559003455
23499.9999999385,75.1229155527942,1.00000000084686,0.539612342210142
23599.9999999371,74.943200680813,1.0000000008485,0.54084198585143
23699.9999999356,74.7664481237409,1.00000000093022,0.547620878513306
23799.9999999342,74.5901613149793,1.00000000095429,0.549262259642348
23899.9999999327,74.4120153212239,1.00000000105194,0.549783202707509
23999.9999999312,74.2304162508112,1.00000000102499,0.554904190785698
24099.9999999298,74.0479976301034,1.00000000093447,0.559802231053913
24199.9999999283,73.8670765133161,1.00000000093091,0.564307582794934
24299.9999999269,73.6889311040929,1.00000000091587,0.558959273318202
24399.9999999254,73.5145440514244,1.00000000089904,0.552169665254481
24499.999999924,73.3451481003738,1.00000000091203,0.549183930825334
24599.9999999225,73.1810307766258,1.00000000092683,0.551469329826496
24699.9999999211,73.0249157185853,1.00000000082469,0.547541116378213
24799.9999999196,72.8761907554183,1.00000000086786,0.549519146830576
24899.9999999181,72.7331618688584,1.00000000092137,0.546926991548633
24999.9999999167,72.5939106224469,1.00000000094865,0.546301116092182
25099.9999999152,72.4577098930163,1.00000000089319,0.542160239188447
25199.9999999138,72.3271623122455,1.00000000085575,0.542772561487391
25299.9999999123,72.2010615455924,1.00000000088822,0.546117895712985
25399.9999999109,72.0776078310658,1.00000000092773,0.553395567452787
25499.9999999094,71.9532686466595,1.000000000946,0.563960588231144
25599.999999908,71.826745207171,1.0000000009608,0.559498502378108
25699.9999999065,71.6969982542298,1.00000000104693,0.55651071001839
25799.9999999051,71.5628710740927,1.00000000102718,0.559017167978518
25899.9999999036,71.4279634533387,1.00000000093699,0.563192017464013
25999.9999999021,71.2930865585835,1.00000000094842,0.573036197705183
26099.9999999007,71.160536199693,1.00000000087173,0.571209166739596
26199.9999998992,71.0319931674193,1.00000000088815,0.565870947810147
26299.9999998978,70.9068519618055,1.00000000090622,0.558016235343963
26399.9999998963,70.7856458880528,1.00000000091489,0.55315924419156
26499.9999998949,70.6690864638883,1.00000000091007,0.555957399049468
26599.9999998934,70.5573150521239,1.00000000088068,0.559128161491762
26699.999999892,70.451637333623,1.00000000090249,0.559794418369231
26799.9999998905,70.3502608397399,1.00000000089899,0.555091873388906
26899.999999889,70.2540948311574,1.00000000087735,0.551073131315402
26999.9999998876,70.1624235609521,1.000000000916,0.546815236544277
27099.9999998861,70.0746694154483,1.00000000085354,0.547193575413408
27199.9999998847,69.9904977782222,1.00000000089886,0.556777412882078
27299.9999998832,69.9074523056582,1.00000000093222,0.566166441868768
27399.9999998818,69.8240945303771,1.00000000094704,0.571141459281798
27499.9999998803,69.738487667621,1.00000000095986,0.577824262379858
27599.9999998789,69.6495876721784,1.00000000097526,0.579537663951658
27699.9999998774,69.557497094948,1.00000000098884,0.573274768610472
27799.9999998759,69.4628081004552,1.00000000097653,0.568332478644552
27899.9999998745,69.3662400551614,1.00000000092366,0.575450139102302
27999.999999873,69.268884371086,1.00000000093505,0.575845335973391
28099.9999998716,69.1724068695522,1.00000000092011,0.574885168579112
28199.9999998701,69.0782129463207,1.00000000087753,0.57706611946461
28299.9999998687,68.9869727114352,1.00000000088714,0.581693567109394
28399.9999998672,68.8989192591088,1.00000000090185,0.582736996156818
28499.9999998658,68.8133123447113,1.00000000094278,0.575741758430876
28599.9999998643,68.7294442858223,1.00000000093805,0.572750565756431
28699.9999998629,68.6475383102306,1.00000000094807,0.572130744799359
28799.9999998614,68.5680714421827,1.00000000093134,0.574833255943814
28899.9999998599,68.4927421920128,1.00000000087723,0.565935473757635
28999.9999998585,68.4245278107093,1.00000000086507,0.55964753052094
