Time,AGPnorm,Energy,Entropy
0,0,1,-7.553222063638e-17
99.9999999999986,0.00129294074753692,0.999999999999539,0.00425331664911429
199.999999999993,0.00899520232462281,1.00000000000237,0.0126062757968537
300,0.0182392249202745,1.00000000000386,0.0236260970112346
400.000000000022,0.027689086705235,1.00000000000159,0.0373891710703798
500.000000000045,0.0396373454587971,0.999999999998982,0.0537863044274634
600.000000000068,0.0545339905157556,1.00000000000072,0.0728056868969282
700.000000000091,0.0692215394747342,1.00000000000371,0.0947914013779062
800.000000000113,0.0836622317462158,1.00000000000322,0.120074925928475
900.000000000136,0.0998759528568517,1.000000000001,0.149906376121765
1000.00000000016,0.115851492474845,1.00000000000957,0.186407133143107
1100.0000000001,0.132025255935562,1.00000000006656,0.232135208573469
1200,0.155748230413475,1.00000000022956,0.284409001799169
1299.99999999991,0.196592891026017,1.00000000050036,0.335748299111124
1399.99999999982,0.289678534084867,1.00000000078556,0.381677134884401
1499.99999999973,0.52094055319162,1.00000000106364,0.421212488434346
1599.99999999964,0.985112614631026,1.00000000137573,0.455288181183259
1699.99999999955,1.76003577106251,1.00000000154215,0.48421995308753
1799.99999999946,2.92457378660513,1.00000000170217,0.507681290174341
1899.99999999937,4.51293821756818,1.00000000173679,0.526531805533093
1999.99999999928,6.51005103986944,1.00000000197541,0.54225409433456
2099.99999999919,8.91631827884463,1.00000000187223,0.555523097336077
2199.99999999909,11.7234152861746,1.00000000194295,0.564842698224716
2299.999999999,14.8528348088065,1.00000000196826,0.571331563695365
2399.99999999891,18.1849688090445,1.00000000185898,0.577421938804519
2499.99999999882,21.6519558204748,1.00000000189645,0.581638607104753
2599.99999999873,25.2291679899753,1.00000000186574,0.583532645209002
2699.99999999864,28.8448582046782,1.00000000171508,0.584032819951356
2799.99999999855,32.3906047716426,1.00000000174859,0.583735540816162
2899.99999999846,35.7941451735374,1.00000000165387,0.584266575428399
2999.99999999837,39.0407878450231,1.00000000154624,0.582960203362705
3099.99999999828,42.1149760011292,1.00000000158224,0.580246545070578
3199.99999999819,44.9643067037674,1.00000000151961,0.579136388620646
3299.99999999809,47.5414391769036,1.00000000143966,0.579178298188738
3399.999999998,49.8373287257318,1.00000000135875,0.576175706117228
3499.99999999791,51.8719416489657,1.0000000013271,0.572860733683991
3599.99999999782,53.6426457707673,1.00000000138244,0.571181910487389
3699.99999999773,55.1350259686164,1.00000000130845,0.569522091236474
3799.99999999764,56.3500981521209,1.0000000012002,0.566707070656274
3899.99999999755,57.30344726577,1.0000000011838,0.570233007547731
3999.99999999746,58.0177347014265,1.00000000103762,0.559515838817482
4099.99999999738,58.5160371910636,1.00000000112783,0.570213048661716
4199.99999999775,58.7989968478215,1.00000000100447,0.552767242564767
4299.99999999811,58.8874123873705,1.00000000114964,0.572703073334802
4399.99999999848,58.8277329033046,1.00000000100604,0.550745034889961
4499.99999999884,58.6008130626233,1.00000000102209,0.556802198994594
4599.9999999992,58.2933634188938,1.00000000114752,0.566192164362013
4699.99999999957,57.869108569095,1.00000000085296,0.526829064977466
4799.99999999993,57.341669632384,1.00000000127792,0.575898632966997
4900.00000000029,56.7979645170404,1.00000000117839,0.553680006682037
5000.00000000066,56.1655917793164,1.00000000080524,0.507443746457902
5100.00000000102,55.4829616860209,1.00000000137214,0.575511275908865
5200.00000000139,54.821353040743,1.00000000116576,0.549789213621216
5300.00000000175,54.1091659410391,1.00000000071299,0.489745504301353
5400.00000000211,53.3469937689022,1.00000000120818,0.544982405073782
5500.00000000248,52.6226523484102,1.00000000139422,0.569967337966467
5600.00000000284,51.9073611361465,1.0000000008897,0.495795931070159
5700.00000000321,51.1486319456203,1.00000000089537,0.480387749334946
5800.00000000357,50.3851823915139,1.00000000136446,0.5540782122059
5900.00000000393,49.6641047233459,1.00000000136728,0.552428022064767
6000.0000000043,48.9557994040942,1.00000000090343,0.481734440256318
6100.00000000466,48.2310214686691,1.00000000087313,0.47109411847538
6200.00000000502,47.5038570957277,1.00000000124516,0.518748360647716
6300.00000000539,46.8049171111505,1.00000000148618,0.553420016460707
6400.00000000575,46.1328318613744,1.00000000116995,0.507078228021895
6500.00000000612,45.4679091750278,1.000000000825,0.472100529167949
6600.00000000648,44.8061609477122,1.0000000009083,0.487187198385561
6700.00000000684,44.1534473908354,1.00000000112815,0.509806685158745
6800.00000000721,43.5202685566474,1.00000000135119,0.536931331430399
6900.00000000757,42.9077590451608,1.00000000117812,0.521538908755164
7000.00000000793,42.3106093136144,1.0000000009502,0.478985717651303
7100.0000000083,41.7286498305438,1.00000000095193,0.489310147859361
7200.00000000866,41.160497929731,1.00000000106698,0.511106725217199
7300.00000000903,40.606784394209,1.00000000107669,0.500097740862592
7400.00000000939,40.0683450138143,1.00000000122412,0.522516992331905
7500.00000000975,39.5426890728232,1.0000000012952,0.525495273390257
7600.00000001012,39.0327194901994,1.00000000104331,0.500599124989341
7700.00000001048,38.5444239621053,1.00000000089863,0.483601580287754
7800.00000001084,38.0735375135078,1.00000000117138,0.508296486513634
7900.00000001121,37.6140569834798,1.00000000110916,0.523211210619842
8000.00000001157,37.1714490115319,1.00000000094035,0.492325266991473
8100.00000001194,36.7454034187622,1.00000000113367,0.509202055523561
8200.0000000123,36.3275081208712,1.00000000139994,0.535433133851392
8300.00000001266,35.9153325232119,1.000000001186,0.518499453448334
8400.00000001303,35.5221011480847,1.00000000095738,0.491536891098919
8500.00000001339,35.1521438745859,1.00000000091863,0.49375784431075
8600.00000001376,34.795962245344,1.00000000123909,0.513007939742248
8700.00000001412,34.4439631399579,1.0000000012512,0.521975994295623
8800.00000001448,34.1031823683415,1.00000000097172,0.509251856691799
8900.00000001485,33.7820531564502,1.00000000099624,0.491569220221951
9000.00000001521,33.4721748353202,1.00000000120543,0.521623840841952
9100.00000001557,33.1639304553995,1.00000000128321,0.537865854886591
9200.00000001594,32.8576892691273,1.00000000121011,0.527201734343963
9300.0000000163,32.5642874991434,1.00000000102613,0.505175799595885
9400.00000001667,32.2921991299463,1.00000000105289,0.503625870201065
9500.00000001703,32.0360199470808,1.00000000098941,0.512837781084534
9600.00000001739,31.7888789433201,1.00000000117047,0.521141222823865
9700.00000001776,31.5442950724412,1.00000000118271,0.515560657614146
9800.00000001812,31.3046489779529,1.00000000111667,0.52410801934363
9900.00000001848,31.0750677377181,1.00000000102173,0.527627719427744
10000.0000000188,30.8558287887467,1.00000000108004,0.521529182182976
10100.0000000192,30.64348562542,1.00000000112066,0.529544316151266
10200.0000000196,30.4364347409236,1.00000000121128,0.542490777107918
10300.0000000199,30.2311338549144,1.00000000131154,0.540323763538663
10400.0000000203,30.029986428809,1.00000000111285,0.53111294400799
10500.0000000207,29.8444985072815,1.00000000095095,0.517744896166829
10600.000000021,29.6782525078445,1.00000000107367,0.512589922309293
10700.0000000214,29.517841612575,1.00000000119911,0.530913002781912
10800.0000000218,29.3603552489351,1.00000000113454,0.526887635835001
10900.0000000221,29.2149925060158,1.00000000105396,0.518839478295025
11000.0000000225,29.080362405109,1.00000000112192,0.523099874674796
11100.0000000229,28.9481432351733,1.00000000122112,0.532730682759407
11200.0000000232,28.8083472104076,1.0000000012763,0.553640684224033
11300.0000000236,28.6633677070722,1.00000000113523,0.562601961128938
11400.0000000239,28.521317808655,1.00000000109823,0.549785094139844
11500.0000000243,28.3866186182428,1.00000000106727,0.547605127572312
11600.0000000247,28.2595290272263,1.00000000118641,0.55003116985841
11700.000000025,28.1348523178238,1.00000000121987,0.553016633225389
11800.0000000254,28.0114949824137,1.00000000135622,0.550133393445486
11900.0000000258,27.893096079085,1.00000000113348,0.542013894819692
12000.0000000261,27.7883791316797,1.00000000102683,0.536127884417559
12100.0000000265,27.6971052202182,1.00000000105822,0.53533230864968
12200.0000000269,27.6157466200509,1.00000000106318,0.533154576813533
12300.0000000272,27.5326172237148,1.00000000127226,0.544180189549878
12400.0000000276,27.448317529716,1.00000000116598,0.549066158296432
12500.0000000279,27.3715633821641,1.00000000100865,0.528277161783405
12600.0000000283,27.3073294919544,1.00000000103979,0.537003640097251
12700.0000000287,27.2506820823942,1.00000000117249,0.555375457749057
12800.000000029,27.1929145473188,1.00000000116514,0.554813076023141
12900.0000000294,27.1296525064436,1.00000000120313,0.558001642015565
13000.0000000298,27.0565346209341,1.00000000124502,0.566242442632543
13100.0000000301,26.9759296343671,1.00000000123691,0.576650563291537
13200.0000000305,26.8894368396571,1.00000000119532,0.579248644906499
13300.0000000309,26.8001641110723,1.00000000115719,0.584809226248888
13400.0000000312,26.714072747422,1.00000000107565,0.579844755507569
13500.0000000316,26.6356352271231,1.00000000109046,0.570653134281969
13600.0000000319,26.5640646068212,1.00000000112916,0.563210013260645
13700.0000000323,26.4977492462283,1.00000000121874,0.56041120230067
13800.0000000327,26.4338117598507,1.00000000122619,0.56027369174696
13900.000000033,26.3752887888341,1.00000000111658,0.557498387728501
14000.0000000334,26.3278521466995,1.0000000010544,0.557829490440343
14100.0000000338,26.2935354088819,1.00000000103298,0.548687769462432
14200.0000000341,26.2609902534089,1.00000000127856,0.556206298206929
14300.0000000345,26.2292066662236,1.00000000114665,0.556578295691086
14400.0000000349,26.2023205201288,1.00000000109099,0.550832490912917
14500.0000000352,26.1803293115632,1.0000000011897,0.54541705450159
14600.0000000356,26.1599439695194,1.0000000011384,0.542546429678105
14700.0000000359,26.14147055999,1.00000000118791,0.555487536142182
14800.0000000363,26.1251785008478,1.00000000114265,0.565933174111849
14900.0000000367,26.1103614141448,1.00000000120498,0.575815279627191
15000.000000037,26.09342441432,1.00000000120834,0.583286006038218
15100.0000000374,26.0739489423449,1.00000000120143,0.593102564552739
15200.0000000378,26.0532702561281,1.00000000118647,0.593760168714389
15300.0000000381,26.0335883974178,1.00000000109334,0.584816951934381
15400.0000000385,26.0110178886431,1.00000000115909,0.585106503709795
15500.0000000389,25.9820541421115,1.00000000130253,0.588451382192163
15600.0000000392,25.9427414639307,1.00000000136219,0.589647000558592
15700.0000000396,25.8947849651392,1.00000000136748,0.593299696789189
15800.0000000399,25.8351135813529,1.00000000129062,0.59571552273778
15900.0000000403,25.7708339119159,1.00000000125379,0.606078715491832
16000.0000000407,25.7076785904272,1.00000000111925,0.607130841035345
16100.000000041,25.6502993332849,1.000000001092,0.595415953756034
16200.0000000414,25.6002949806967,1.00000000111524,0.589489722280256
16300.0000000418,25.5580995019266,1.00000000122702,0.584096153720895
16400.0000000418,25.5214076218593,1.0000000011702,0.578973442406093
16500.0000000404,25.4881057799194,1.00000000125287,0.579338717433339
16600.0000000389,25.458799848666,1.00000000121654,0.57422860405009
16700.0000000375,25.436105573722,1.00000000116987,0.571533420426513
16800.000000036,25.421685529039,1.00000000114022,0.573658139438674
16900.0000000346,25.4161061322781,1.00000000117773,0.573428358532652
17000.0000000331,25.4157321104421,1.00000000118533,0.572172435051235
17100.0000000317,25.4180957711118,1.00000000124985,0.566466176704636
17200.0000000302,25.4205027319612,1.00000000121952,0.564631602454305
17300.0000000287,25.4244986550255,1.00000000120435,0.55930519506937
17400.0000000273,25.4335288038888,1.00000000113541,0.561984264450549
17500.0000000258,25.4463653317139,1.00000000117961,0.567511836366496
17600.0000000244,25.4608480937136,1.00000000116732,0.563835299397574
17700.0000000229,25.4764784271688,1.00000000121334,0.564841001333709
17800.0000000215,25.4908098971736,1.00000000122771,0.562408343054322
17900.00000002,25.5014548129171,1.00000000123259,0.561491282742302
18000.0000000186,25.5098332857467,1.00000000123774,0.567716426018917
18100.0000000171,25.5157754079201,1.00000000124818,0.57980653658019
18200.0000000156,25.5217092168368,1.00000000119612,0.583470730961537
18300.0000000142,25.5298509958755,1.00000000123783,0.588297041459819
18400.0000000127,25.5369654557943,1.00000000132225,0.589348293127649
18500.0000000113,25.5391277043457,1.00000000120106,0.587260191196576
18600.0000000098,25.5365335770073,1.00000000133077,0.600002207285386
18700.0000000084,25.5297412403669,1.00000000121265,0.603978963219969
18800.0000000069,25.5214776089823,1.00000000116263,0.610113685651244
18900.0000000055,25.5116563849862,1.00000000122208,0.612175747036527
19000.000000004,25.4983817756097,1.00000000122826,0.609932628223588
19100.0000000026,25.4805176005535,1.00000000129082,0.612916270805576
19200.0000000011,25.4578264429136,1.00000000128508,0.611535536435692
19299.9999999996,25.4329989171827,1.00000000126411,0.606238643823785
19399.9999999982,25.4046117999984,1.00000000127095,0.602010834297358
19499.9999999967,25.3695802970585,1.00000000139173,0.603048303566504
19599.9999999953,25.3259308987062,1.00000000138686,0.604606924982727
19699.9999999938,25.2752408720893,1.00000000134609,0.603580912633742
19799.9999999924,25.2205411930029,1.00000000128428,0.599949997780762
19899.9999999909,25.1653173376413,1.0000000012518,0.601162762480955
19999.9999999895,25.111918638291,1.00000000117017,0.592129379075989
20099.999999988,25.0631548481819,1.00000000122097,0.58834704979207
20199.9999999865,25.0210211285838,1.00000000114039,0.58329834618483
20299.9999999851,24.9837913803333,1.00000000120851,0.578609480332896
20399.9999999836,24.9514697365449,1.00000000129692,0.583173010570865
20499.9999999822,24.9236651548296,1.00000000124446,0.58431563022965
20599.9999999807,24.900583496751,1.00000000123582,0.576051790510783
20699.9999999793,24.8815822087879,1.0000000012625,0.564881404989294
20799.9999999778,24.8693513987942,1.00000000127682,0.559682138345518
20899.9999999764,24.8633057369617,1.00000000125063,0.562235206435299
20999.9999999749,24.8636563962025,1.00000000121092,0.570169257188078
21099.9999999734,24.8710457208228,1.00000000121333,0.571797657365236
21199.999999972,24.8842848669892,1.00000000122978,0.5743067767226
21299.9999999705,24.9000281154687,1.00000000125285,0.568003810860822
21399.9999999691,24.9159304549939,1.00000000131649,0.569715180959802
21499.9999999676,24.9352616949909,1.00000000118681,0.566084498672815
21599.9999999662,24.9578521359673,1.0000000013112,0.563901656169656
21699.9999999647,24.9817633015496,1.00000000121804,0.559863887259648
21799.9999999633,25.0081358836052,1.00000000119788,0.558298596313099
21899.9999999618,25.0400523446359,1.00000000118642,0.562590760425937
21999.9999999603,25.0748960175354,1.00000000131354,0.56848644917613
22099.9999999589,25.1072258550391,1.00000000128614,0.575449163040678
22199.9999999574,25.1378414330381,1.00000000126158,0.57594484308796
22299.999999956,25.1668070964053,1.00000000129149,0.576437271596261
22399.9999999545,25.1931058444554,1.00000000129213,0.580261723014239
22499.9999999531,25.2170953248811,1.00000000127951,0.589715876288781
22599.9999999516,25.239754850252,1.00000000126731,0.598874691254775
22699.9999999502,25.2627831446355,1.00000000126354,0.605114460653655
22799.9999999487,25.2859279082504,1.00000000127376,0.615024890804999
22899.9999999473,25.3070587923459,1.00000000134697,0.618733175408815
22999.9999999458,25.3235991241906,1.00000000133418,0.625146489704243
23099.9999999443,25.3350866300164,1.00000000132752,0.623019622188734
23199.9999999429,25.3432089074317,1.00000000132825,0.621701691506218
23299.9999999414,25.3514109979523,1.00000000124126,0.629308443148146
23399.99999994,25.36112961268,1.00000000127027,0.63064510562979
23499.9999999385,25.3717063158113,1.00000000122275,0.625868151856113
23599.9999999371,25.385165113451,1.00000000124937,0.62409965465007
23699.9999999356,25.3976441160127,1.00000000141932,0.626335985478813
23799.9999999342,25.4032032710476,1.00000000137898,0.632197036453667
23899.9999999327,25.4037950636588,1.00000000133194,0.641524967392596
23999.9999999312,25.4015388175585,1.00000000126421,0.648596367154706
24099.9999999298,25.3977918664991,1.0000000012453,0.643934343924456
24199.9999999283,25.3905955006282,1.0000000013394,0.647187403621386
24299.9999999269,25.3807931754462,1.00000000127225,0.643622916775462
24399.9999999254,25.3721619714584,1.00000000121008,0.637967734101621
24499.999999924,25.3657375555137,1.00000000127247,0.63048523608437
24599.9999999225,25.3563478256004,1.00000000137007,0.634140525293211
24699.9999999211,25.3431988180057,1.0000000013308,0.63139040772277
24799.9999999196,25.3273916958633,1.00000000132095,0.64028228340614
24899.9999999181,25.3075002756544,1.00000000135304,0.644286906573396
24999.9999999167,25.2854483388561,1.0000000013272,0.643281457161701
25099.9999999152,25.2624216005142,1.00000000129785,0.64785180734311
25199.9999999138,25.2362527564852,1.00000000131782,0.645750198015144
25299.9999999123,25.2109044158314,1.00000000119362,0.643533012859665
25399.9999999109,25.1860418076191,1.00000000132741,0.64670831744634
25499.9999999094,25.1583756458895,1.00000000126587,0.649345543599394
25599.999999908,25.1282633003919,1.00000000138033,0.643961661699489
25699.9999999065,25.094906439597,1.00000000134638,0.648073934572037
25799.9999999051,25.0579582580504,1.00000000135965,0.656992836205988
25899.9999999036,25.0183473920698,1.00000000129691,0.651966056940396
25999.9999999021,24.9772741928876,1.00000000134272,0.6513839141875
26099.9999999007,24.9337425193968,1.00000000145391,0.657341284898247
26199.9999998992,24.8855699560407,1.00000000144899,0.659779677122538
26299.9999998978,24.8333329011071,1.00000000138022,0.658579625943974
26399.9999998963,24.7792098916571,1.00000000136629,0.658953479290593
26499.9999998949,24.7247714447542,1.00000000130098,0.657544467214331
26599.9999998934,24.6711720445675,1.0000000013224,0.665130250053948
26699.999999892,24.6194082293484,1.00000000123315,0.662376219430775
26799.9999998905,24.5711562759194,1.00000000126279,0.657744220183411
26899.999999889,24.5268020137433,1.00000000128357,0.650330212034149
26999.9999998876,24.4869824024902,1.00000000129461,0.648927620996861
27099.9999998861,24.4513101762937,1.00000000127997,0.646280279688054
27199.9999998847,24.4203260970302,1.00000000137361,0.64430180194604
27299.9999998832,24.3931951720223,1.00000000140042,0.647520352907795
27399.9999998818,24.3696553991613,1.00000000135138,0.63961875584551
27499.9999998803,24.3507232793721,1.0000000014156,0.633818974258453
27599.9999998789,24.33487041304,1.00000000131268,0.631220256275834
27699.9999998774,24.3243044485878,1.00000000124517,0.620316909273248
27799.9999998759,24.3189523192574,1.00000000138401,0.616060463164421
27899.9999998745,24.3182902716368,1.00000000131081,0.616030692561863
27999.999999873,24.3236955118416,1.00000000125497,0.612199786359514
28099.9999998716,24.3350847837336,1.0000000012764,0.609492432166873
28199.9999998701,24.348710979957,1.00000000142339,0.61257684565934
28299.9999998687,24.3676021863568,1.00000000128626,0.605248759948017
28399.9999998672,24.3905766200568,1.00000000137945,0.603886379591204
28499.9999998658,24.4124593805007,1.00000000151824,0.597858498572031
28599.9999998643,24.4357667097128,1.00000000136099,0.594127757674928
28699.9999998629,24.4627517119033,1.00000000134682,0.594016585092445
28799.9999998614,24.492289093844,1.00000000135254,0.595082392960952
28899.9999998599,24.5226974620599,1.00000000135921,0.588517973750347
28999.9999998585,24.5550765940652,1.00000000132039,0.586851257264075
