Time,AGPnorm,Energy,Entropy
0,0,1,-4.59157798880139e-18
99.9999999999986,0.00894137263631511,0.999999999997938,0.0250199642158769
199.999999999993,0.0243989976735607,1.00000000000034,0.0728402228597028
300,0.0478298110845185,1.00000000000054,0.146914655081239
400.000000000022,0.0714710076448708,1.00000000016648,0.260668402207127
500.000000000045,0.125052116235586,1.00000000129536,0.404434296940964
600.000000000068,0.541671256975974,1.0000000027778,0.504552529509775
700.000000000091,1.6738258464755,1.00000000318953,0.558473246074659
800.000000000113,3.58012213677998,1.00000000326719,0.582832150309669
900.000000000136,6.04985170379264,1.00000000356402,0.588138186785628
1000.00000000016,8.64689155167142,1.00000000309953,0.586098362381696
1100.0000000001,11.0974265362543,1.00000000292678,0.578775991543871
1200,13.1337839963684,1.00000000263419,0.566756195492518
1299.99999999991,14.6664554910729,1.00000000237851,0.561025257944678
1399.99999999982,15.6724396692597,1.00000000222107,0.548926323424621
1499.99999999973,16.2020174470359,1.0000000019533,0.537544209454824
1599.99999999964,16.3505623496113,1.00000000213063,0.56889885044702
1699.99999999955,16.1666331571077,1.00000000177241,0.52594530569626
1799.99999999946,15.8814063054664,1.00000000172241,0.516673201844698
1899.99999999937,15.3980380351791,1.00000000223268,0.543280471367252
1999.99999999928,14.9480432194234,1.00000000180815,0.497809818554201
2099.99999999919,14.393764814614,1.00000000194691,0.469634328137361
2199.99999999909,13.8843050848558,1.00000000272723,0.563724282286342
2299.999999999,13.3924861264164,1.00000000121171,0.396100904527081
2399.99999999891,12.8740336799679,1.00000000223567,0.505047632259947
2499.99999999882,12.3998057672191,1.0000000026287,0.556972448046688
2599.99999999873,11.9686604461747,1.00000000125619,0.419178258237399
2699.99999999864,11.5587447069905,1.00000000197012,0.458454055706509
2799.99999999855,11.1569939792649,1.00000000201771,0.525859466012772
2899.99999999846,10.7767425070424,1.00000000261329,0.551682596551644
2999.99999999837,10.4318594155393,1.0000000015946,0.476611272875887
3099.99999999828,10.1585492556182,1.00000000131822,0.403267154808712
3199.99999999819,9.89430260765627,1.00000000219981,0.513206797975516
3299.99999999809,9.63218026422429,1.00000000183662,0.521950422091987
3399.999999998,9.3797733389337,1.00000000218571,0.534336285980212
3499.99999999791,9.11943805663952,1.00000000289384,0.556498760670902
3599.99999999782,8.8886445275935,1.00000000146645,0.487797777594604
3699.99999999773,8.74422797651977,1.00000000144928,0.42379449535409
3799.99999999764,8.64403460873004,1.00000000223637,0.485793463744408
3899.99999999755,8.52172603655331,1.00000000211169,0.528608850963837
3999.99999999746,8.39823767373906,1.00000000209112,0.55161205470834
4099.99999999738,8.26146203487529,1.00000000215486,0.567658490967394
4199.99999999775,8.11810240150136,1.00000000194294,0.55760033251297
4299.99999999811,7.96778241519492,1.00000000260819,0.555254325142733
4399.99999999848,7.80521794004974,1.00000000260299,0.570468843542972
4499.99999999884,7.66796946663204,1.00000000160478,0.507683826185068
4599.9999999992,7.62076253251768,1.00000000126124,0.435830177041744
4699.99999999957,7.64651636490057,1.00000000192188,0.466618430754269
4799.99999999993,7.66321820407895,1.00000000220643,0.511005912599059
4900.00000000029,7.65886242668943,1.0000000021439,0.554865200324608
5000.00000000066,7.63580382963686,1.00000000220594,0.569383957271416
5100.00000000102,7.59893190319074,1.00000000210688,0.584239263685491
5200.00000000139,7.55745177593974,1.00000000216094,0.57663257307591
5300.00000000175,7.50188806589411,1.00000000228193,0.571595435705111
5400.00000000211,7.42831735944777,1.000000002324,0.587843125138916
5500.00000000248,7.34998682484196,1.00000000204275,0.591268521743342
5600.00000000284,7.26870030665863,1.00000000203439,0.590240123279881
5700.00000000321,7.17845848608213,1.00000000234697,0.596825802515072
5800.00000000357,7.07966664668826,1.00000000265672,0.587012429505879
5900.00000000393,6.97503278013637,1.00000000253671,0.573397270927241
6000.0000000043,6.89222466237215,1.00000000171742,0.522725543181875
6100.00000000466,6.88537816322498,1.00000000127405,0.464390036066018
6200.00000000502,6.96977560014581,1.00000000167465,0.469722818441647
6300.00000000539,7.08851042667555,1.0000000024367,0.508019694510708
6400.00000000575,7.19049278475991,1.00000000233575,0.538112794978518
6500.00000000612,7.27416295273272,1.00000000221165,0.559423975230103
6600.00000000648,7.34272233452648,1.00000000229677,0.585899129253991
6700.00000000684,7.38803602976431,1.00000000236943,0.609947031772199
6800.00000000721,7.41203856582169,1.00000000228113,0.617534393580149
6900.00000000757,7.41836372078578,1.00000000223635,0.628823276971754
7000.00000000793,7.40691634013472,1.00000000220146,0.626967891350317
7100.0000000083,7.38275325168197,1.00000000221051,0.620838939149972
7200.00000000866,7.36103223388031,1.00000000213819,0.617461906738981
7300.00000000903,7.34698480348091,1.00000000207555,0.603278972102543
7400.00000000939,7.319180881563,1.0000000025194,0.604191641179483
7500.00000000975,7.28536501327727,1.00000000234324,0.613468852153199
7600.00000001012,7.2565439018208,1.00000000201469,0.620029609564335
7700.00000001048,7.22302432162155,1.00000000223445,0.6321626938254
7800.00000001084,7.18739908111681,1.00000000225953,0.628917231787944
7900.00000001121,7.14761267777323,1.00000000214586,0.612783334515482
8000.00000001157,7.10671773078891,1.00000000240277,0.610057782833011
8100.00000001194,7.05358548013519,1.00000000245347,0.642206479648569
8200.0000000123,6.99343851406095,1.00000000232994,0.640088785164583
8300.00000001266,6.92961376393609,1.00000000200953,0.631568214646947
8400.00000001303,6.86638450219245,1.00000000231708,0.640463774147683
8500.00000001339,6.80223942167281,1.0000000024994,0.646184727193442
8600.00000001376,6.73843803242211,1.00000000270137,0.658375735730632
8700.00000001412,6.67651948570433,1.00000000266051,0.658780469534983
8800.00000001448,6.61206147880724,1.00000000275673,0.63601355965222
8900.00000001485,6.54219435883715,1.0000000023322,0.600983441317872
9000.00000001521,6.48395225265514,1.00000000176837,0.553354412751411
9100.00000001557,6.4726201326461,1.00000000148244,0.509133901528578
9200.00000001594,6.53959848246945,1.00000000145819,0.487669574809001
9300.0000000163,6.68007235344639,1.00000000186507,0.491928697601433
9400.00000001667,6.85834744949958,1.00000000246697,0.512391248580483
9500.00000001703,7.03832252478036,1.00000000240252,0.531771536890718
9600.00000001739,7.20134988826238,1.00000000246388,0.545749404291028
9700.00000001776,7.35385522778594,1.00000000246886,0.564122816132211
9800.00000001812,7.48631457539655,1.00000000242083,0.574707276436032
9900.00000001848,7.60897973966867,1.00000000239218,0.587009459552688
10000.0000000188,7.71163402234398,1.00000000251313,0.610797230849163
10100.0000000192,7.79677855767805,1.00000000245722,0.626276400273881
10200.0000000196,7.86365479575426,1.00000000233232,0.608898508199617
10300.0000000199,7.91491537758228,1.00000000239442,0.633236389150541
10400.0000000203,7.9498721179417,1.00000000257356,0.657283545776841
10500.0000000207,7.97274097087898,1.00000000241234,0.648583046140362
10600.000000021,7.98719152101688,1.0000000024112,0.647458277718994
10700.0000000214,8.00283980288168,1.00000000228689,0.643853613633147
10800.0000000218,8.01031386367731,1.00000000269305,0.652134481598886
10900.0000000221,8.01467021030179,1.00000000231228,0.65161363756969
11000.0000000225,8.01210123128136,1.00000000247152,0.652575478289812
11100.0000000229,8.00043409919831,1.00000000251479,0.652902278606649
11200.0000000232,7.98828708150463,1.00000000253648,0.655603026624347
11300.0000000236,7.96842139773061,1.0000000025659,0.654499014337074
11400.0000000239,7.94430047044789,1.00000000238304,0.662650076630557
11500.0000000243,7.91587117438532,1.00000000262727,0.667675105369224
11600.0000000247,7.88642466611103,1.00000000263681,0.658438113216359
11700.000000025,7.85623246867372,1.00000000253545,0.652849531297855
11800.0000000254,7.82822039623954,1.00000000250873,0.64157964799593
11900.0000000258,7.80580388510923,1.00000000238612,0.619939513303088
12000.0000000261,7.79408207843482,1.00000000238411,0.605540189896696
12100.0000000265,7.79254917623634,1.00000000250127,0.63069447440176
12200.0000000269,7.79654628172583,1.00000000273827,0.64485482850328
12300.0000000272,7.79902188063056,1.00000000266999,0.641224340713395
12400.0000000276,7.79297043500155,1.00000000248952,0.634284348141687
12500.0000000279,7.78955672031175,1.0000000023028,0.623417233861391
12600.0000000283,7.78734710591083,1.00000000272004,0.633828868815857
12700.0000000287,7.78107590313934,1.00000000265967,0.634731596429598
12800.000000029,7.775733112964,1.00000000245678,0.645987594168321
12900.0000000294,7.77387530898442,1.00000000268151,0.649956714995644
13000.0000000298,7.76734907905129,1.00000000266059,0.655402493298585
13100.0000000301,7.75619919421289,1.0000000025606,0.641842435843542
13200.0000000305,7.7504557840632,1.00000000242908,0.641621391621296
13300.0000000309,7.7457573113915,1.00000000282406,0.653841965429566
13400.0000000312,7.74736336475476,1.0000000025049,0.64393299188224
13500.0000000316,7.75008426355872,1.00000000262196,0.647188187625134
13600.0000000319,7.74787815794301,1.00000000261608,0.647468006302652
13700.0000000323,7.74253553229264,1.0000000024562,0.641706903040325
13800.0000000327,7.74130289345908,1.00000000278848,0.662722907840276
13900.000000033,7.7353297548357,1.00000000306935,0.667701114633426
14000.0000000334,7.72990194797081,1.00000000243816,0.662203661434494
14100.0000000338,7.72386819204151,1.00000000306793,0.688985637072115
14200.0000000341,7.71327754714294,1.00000000283301,0.680575619877417
14300.0000000345,7.70547367034289,1.00000000270283,0.658838588070006
14400.0000000349,7.69589751671743,1.00000000280634,0.655361492328366
14500.0000000352,7.68695327223812,1.00000000263577,0.674093937989335
14600.0000000356,7.67803351122772,1.00000000297068,0.668160205995996
14700.0000000359,7.66822863459511,1.00000000292528,0.670138790637181
14800.0000000363,7.65362097842276,1.00000000282537,0.664035898044734
14900.0000000367,7.63774129082463,1.00000000278495,0.655300501209448
15000.000000037,7.62384672992273,1.00000000284707,0.656486903884736
15100.0000000374,7.60773279972612,1.00000000284058,0.671079593345993
15200.0000000378,7.5925699376421,1.00000000268577,0.65523964308933
15300.0000000381,7.57895682873145,1.0000000029746,0.67641695442389
15400.0000000385,7.55753470549609,1.00000000283112,0.678391368349863
15500.0000000389,7.5372265270863,1.00000000270311,0.657895042110786
15600.0000000392,7.51725977579467,1.00000000288579,0.659710122632769
15700.0000000396,7.49554910611303,1.00000000270004,0.6597741196045
15800.0000000399,7.4726225463379,1.00000000283331,0.672506293872453
15900.0000000403,7.44286511195952,1.00000000308694,0.673423494719736
16000.0000000407,7.41147974775665,1.00000000239325,0.653971016781323
16100.000000041,7.37973669603753,1.00000000280344,0.666292621404989
16200.0000000414,7.34449103872418,1.00000000289422,0.659336967182291
16300.0000000418,7.3071574560028,1.00000000293611,0.668747665730473
16400.0000000418,7.26769364678827,1.00000000317056,0.664600832079573
16500.0000000404,7.22758620194115,1.00000000267391,0.668876456046166
16600.0000000389,7.18735194084006,1.00000000284607,0.670281413251099
16700.0000000375,7.14699516623983,1.00000000269316,0.666389842449634
16800.000000036,7.10690048762435,1.00000000296539,0.662394136300414
16900.0000000346,7.06824861338297,1.00000000281159,0.656723183029431
17000.0000000331,7.03145108668397,1.00000000284689,0.660424297900728
17100.0000000317,6.99792435129315,1.00000000323775,0.652283699907541
17200.0000000302,6.96914547783393,1.00000000332583,0.670045775612153
17300.0000000287,6.94287121583678,1.00000000329427,0.666623742902954
17400.0000000273,6.92230353625019,1.000000003625,0.675288185924734
17500.0000000258,6.89916918556438,1.00000000329049,0.675293943238152
17600.0000000244,6.87781444515836,1.00000000300845,0.676993663154136
17700.0000000229,6.848375017831,1.00000000333913,0.664132286375422
17800.0000000215,6.81454937549162,1.00000000274842,0.633789001895647
17900.00000002,6.77867897828805,1.00000000249351,0.61765985609467
18000.0000000186,6.74898646458286,1.00000000264663,0.599501685872191
18100.0000000171,6.7442675755838,1.0000000022036,0.575572225911719
18200.0000000156,6.77892954435678,1.00000000210203,0.557635905341904
18300.0000000142,6.87789063219762,1.00000000203708,0.536885928743007
18400.0000000127,7.04547204158191,1.0000000022066,0.533924985802181
18500.0000000113,7.29424602255286,1.00000000233644,0.535197841464858
18600.0000000098,7.59111572860049,1.00000000260605,0.531607466300658
18700.0000000084,7.94652590762284,1.0000000028471,0.539021176109102
18800.0000000069,8.30316056231874,1.00000000286646,0.542309081726089
18900.0000000055,8.68478131244369,1.00000000293316,0.555103456657856
19000.000000004,9.04134356889503,1.00000000305602,0.559951777114889
19100.0000000026,9.40622000116174,1.00000000282316,0.563730815843397
19200.0000000011,9.74578069866322,1.00000000302134,0.573926121272118
19299.9999999996,10.0782092427224,1.00000000324656,0.574493445200565
19399.9999999982,10.401468089596,1.00000000301319,0.581802889009251
19499.9999999967,10.7118224337932,1.00000000296324,0.581507126678499
19599.9999999953,11.0308953594973,1.00000000279979,0.591955973628704
19699.9999999938,11.3329064107612,1.00000000309123,0.600703569482665
19799.9999999924,11.6329722282794,1.00000000322025,0.61238895038892
19899.9999999909,11.9194154912788,1.00000000302386,0.621511972488351
19999.9999999895,12.1902765861019,1.00000000341852,0.62388545330878
20099.999999988,12.4507921328216,1.0000000030456,0.64633726988424
20199.9999999865,12.690028711411,1.00000000306825,0.644292666662047
20299.9999999851,12.9205394840696,1.00000000321276,0.650180177367872
20399.9999999836,13.1265136930394,1.00000000326705,0.662177661318021
20499.9999999822,13.3217222942556,1.00000000320716,0.65063072991536
20599.9999999807,13.4900577975685,1.00000000323036,0.654327684592511
20699.9999999793,13.6521603277291,1.00000000314226,0.662371869909326
20799.9999999778,13.8115879558915,1.00000000328335,0.684438076108893
20899.9999999764,13.956751864798,1.00000000303641,0.670219869453181
20999.9999999749,14.0888903029211,1.00000000304422,0.664719618807249
21099.9999999734,14.2083426566892,1.00000000312422,0.679829433060618
21199.999999972,14.3210741969679,1.00000000332967,0.681047866920369
21299.9999999705,14.4252917242472,1.00000000287797,0.683455519684408
21399.9999999691,14.5335142567833,1.00000000297354,0.686647628128441
21499.9999999676,14.6370398518846,1.00000000319733,0.700178616514846
21599.9999999662,14.7227196720629,1.00000000323345,0.691217061483848
21699.9999999647,14.8049338938817,1.00000000307193,0.693929175060885
21799.9999999633,14.8809326239472,1.0000000030433,0.695355974361724
21899.9999999618,14.9611434499393,1.00000000292755,0.685403813685189
21999.9999999603,15.0374897604634,1.00000000303109,0.682449336592338
22099.9999999589,15.1096327084339,1.0000000032098,0.670770689821367
22199.9999999574,15.1758290282957,1.00000000326136,0.67407032240055
22299.999999956,15.2408447556904,1.00000000310021,0.677898312694778
22399.9999999545,15.3082961037652,1.00000000285798,0.683946589578649
22499.9999999531,15.377809233,1.00000000293027,0.687233955720879
22599.9999999516,15.4481239544004,1.00000000291321,0.678289158964165
22699.9999999502,15.5022223095386,1.00000000346111,0.661474226964359
22799.9999999487,15.5493060900463,1.0000000033063,0.665954548704235
22899.9999999473,15.5981333755454,1.00000000286886,0.693701187804704
22999.9999999458,15.6475728973756,1.00000000324117,0.682467509491839
23099.9999999443,15.6965249304968,1.00000000317135,0.671723950644712
23199.9999999429,15.7420619257475,1.00000000309721,0.676054924224049
23299.9999999414,15.7820350289187,1.00000000357825,0.68893146092819
23399.99999994,15.8197916469812,1.00000000324726,0.684113114292819
23499.9999999385,15.8634941940455,1.00000000289929,0.670228106764298
23599.9999999371,15.916004279725,1.00000000331318,0.694918035657164
23699.9999999356,15.9626431513681,1.00000000367439,0.693454132020872
23799.9999999342,16.0078836990131,1.00000000308596,0.687288762328355
23899.9999999327,16.057620804753,1.00000000350976,0.675302480589399
23999.9999999312,16.1122384032178,1.00000000321767,0.692281111697948
24099.9999999298,16.1648192363381,1.00000000338827,0.677185460913034
24199.9999999283,16.2169133563008,1.00000000314597,0.673968430071103
24299.9999999269,16.2742661912294,1.0000000030998,0.656892556357638
24399.9999999254,16.3311689717487,1.00000000388764,0.670052181155635
24499.999999924,16.3847250208914,1.00000000354452,0.678816368213353
24599.9999999225,16.4315525491023,1.00000000345705,0.683667577240216
24699.9999999211,16.4743033230502,1.00000000322693,0.665963668553968
24799.9999999196,16.5274000650636,1.00000000294865,0.657556365065896
24899.9999999181,16.589478205258,1.00000000309028,0.684708244038537
24999.9999999167,16.6484687532273,1.00000000343162,0.701070664643283
25099.9999999152,16.7002399906296,1.0000000031701,0.676142303360686
25199.9999999138,16.754215519337,1.00000000342807,0.669752545519203
25299.9999999123,16.8065565323227,1.00000000368204,0.688237187314846
25399.9999999109,16.8535995553019,1.00000000346048,0.684745194753861
25499.9999999094,16.9011629116193,1.00000000326478,0.690611309983769
25599.999999908,16.9522195202648,1.00000000302469,0.67850551313747
25699.9999999065,17.0046753737405,1.00000000321142,0.676393909063987
25799.9999999051,17.0572640259352,1.00000000332336,0.69868916813646
25899.9999999036,17.1045943053833,1.000000003487,0.696649345886243
25999.9999999021,17.1477921466654,1.00000000377556,0.680350974741314
26099.9999999007,17.1865175766392,1.00000000332979,0.693207906846041
26199.9999998992,17.2253938268296,1.00000000347877,0.710863530016901
26299.9999998978,17.2629226502737,1.00000000363245,0.697889487542383
26399.9999998963,17.3032966339255,1.00000000372914,0.698636310335867
26499.9999998949,17.3493114561503,1.00000000328321,0.681162583083569
26599.9999998934,17.40945113432,1.00000000340783,0.681581194410195
26699.999999892,17.480647491234,1.00000000330928,0.677993834327974
26799.9999998905,17.5611989191969,1.00000000317594,0.689286972264699
26899.999999889,17.6480269857493,1.00000000384228,0.683694477128902
26999.9999998876,17.7422851233519,1.00000000328901,0.669305648397571
27099.9999998861,17.8379348229783,1.00000000358308,0.685040717946404
27199.9999998847,17.9333013244796,1.00000000321622,0.67786350716007
27299.9999998832,18.0223938148189,1.00000000352423,0.693844335143551
27399.9999998818,18.1048364361305,1.00000000355085,0.693262549968379
27499.9999998803,18.1825892175704,1.00000000327984,0.68793676714911
27599.9999998789,18.2645796687136,1.0000000030734,0.6835698978956
27699.9999998774,18.3519233198139,1.00000000341229,0.682726591328701
27799.9999998759,18.4379368530251,1.00000000381809,0.688445401176056
27899.9999998745,18.5222251156834,1.00000000332717,0.685580721005788
27999.999999873,18.6146117011375,1.0000000033727,0.690517898948324
28099.9999998716,18.7066850906374,1.00000000350607,0.687403337830508
28199.9999998701,18.798554438508,1.00000000354633,0.692758155664086
28299.9999998687,18.8883136279714,1.00000000369382,0.687737142579522
28399.9999998672,18.9773369998303,1.0000000039894,0.677002591483003
28499.9999998658,19.0710838398569,1.00000000354489,0.653205174736363
28599.9999998643,19.1652153677535,1.00000000318275,0.649981678167917
28699.9999998629,19.2493472264062,1.00000000394132,0.670768183187981
28799.9999998614,19.3221906386773,1.00000000377524,0.67818733828501
28899.9999998599,19.3911189052935,1.00000000372992,0.688217473172031
28999.9999998585,19.4642832483532,1.00000000354168,0.669227639969494
29099.999999857,19.5458523370466,1.00000000343244,0.67523367560514
