Time,AGPnorm,Energy,Entropy
0,0,1,-1.17325495702221e-17
99.9999999999986,4.70321429227685e-05,1.00000000000081,0.00179752464261747
199.999999999993,0.00407172218609947,1.00000000000064,0.00284819374008725
300,0.0100016592910771,1.00000000000021,0.00503919783447715
400.000000000022,0.0137998468309688,1.0000000000011,0.00850820359267046
500.000000000045,0.0170867204064907,1.00000000000005,0.0113974470243526
600.000000000068,0.0243216040838198,1.00000000000074,0.0157870124154184
700.000000000091,0.029715872079734,1.00000000000064,0.0201421996542579
800.000000000113,0.0377484341868765,1.00000000000026,0.0248221025454388
900.000000000136,0.0474026482116329,1.0000000000011,0.0304124366567408
1000.00000000016,0.0552842073856441,1.00000000000001,0.0357357375350508
1100.0000000001,0.065156071030819,1.0000000000007,0.0419078119404436
1200,0.0756451674493426,1.00000000000069,0.0483567843484935
1299.99999999991,0.086926297296505,1.00000000000029,0.0550296132936021
1399.99999999982,0.0992838689255203,1.00000000000112,0.0624860749942163
1499.99999999973,0.110493328825677,0.999999999999924,0.0699512833800641
1599.99999999964,0.122385911659845,1.00000000000068,0.0780864896407502
1699.99999999955,0.135883098213627,1.00000000000083,0.0867852231568754
1799.99999999946,0.149273257806742,1.00000000000025,0.0958537906222301
1899.99999999937,0.162539362497889,1.00000000000111,0.105802950738203
1999.99999999928,0.175389585566643,0.999999999999894,0.116182016238077
2099.99999999919,0.188382537002542,1.00000000000074,0.12749661016681
2199.99999999909,0.202922177291117,1.00000000000123,0.140068410828799
2299.999999999,0.216758803686302,1.00000000000121,0.153737888214002
2399.99999999891,0.229820761637494,1.00000000000496,0.169286032474031
2499.99999999882,0.242060035816274,1.00000000001413,0.186627289056275
2599.99999999873,0.256393051010982,1.00000000003534,0.2058111408349
2699.99999999864,0.270666212258234,1.00000000007041,0.226674058262687
2799.99999999855,0.282735184576279,1.00000000012522,0.247753599426434
2899.99999999846,0.306732630372907,1.00000000019235,0.269002601690549
2999.99999999837,0.325840853504707,1.00000000026703,0.289883701249014
3099.99999999828,0.371071150446005,1.00000000036233,0.310217486773633
3199.99999999819,0.44307504307151,1.00000000046002,0.330206267809951
3299.99999999809,0.536796939750002,1.00000000056397,0.349239340236852
3399.999999998,0.708150831904807,1.00000000064429,0.367521239846633
3499.99999999791,0.931615629977974,1.00000000071541,0.385142620148349
3599.99999999782,1.25323144902755,1.00000000079615,0.401907709958865
3699.99999999773,1.69905177888744,1.00000000089179,0.417714677007425
3799.99999999764,2.25416236970382,1.0000000009713,0.432623506075322
3899.99999999755,2.98160937859277,1.00000000102482,0.446685880911431
3999.99999999746,3.86918927912207,1.00000000110634,0.459749006023379
4099.99999999738,4.93889648579948,1.00000000116087,0.472254257413538
4199.99999999775,6.22058122604591,1.00000000121334,0.483626011822481
4299.99999999811,7.69835275321894,1.00000000123689,0.494286553705563
4399.99999999848,9.39905111000548,1.00000000126968,0.504343287744151
4499.99999999884,11.3210651430548,1.00000000134366,0.513331258338084
4599.9999999992,13.4645516371084,1.0000000013228,0.521954149963606
4699.99999999957,15.8311264386604,1.0000000013291,0.529799697599829
4799.99999999993,18.4161329102028,1.00000000138078,0.536689173969291
4900.00000000029,21.2098451142864,1.00000000136113,0.543756828895476
5000.00000000066,24.2032222893859,1.00000000140595,0.549660096826838
5100.00000000102,27.3981384564285,1.0000000013637,0.55524887043938
5200.00000000139,30.7613551934025,1.00000000138017,0.560529166738675
5300.00000000175,34.2963541553285,1.00000000144139,0.564746880121307
5400.00000000211,37.9836508047015,1.0000000013875,0.569451326397109
5500.00000000248,41.7937736403562,1.00000000138321,0.573274021585841
5600.00000000284,45.7416118164392,1.00000000139767,0.576383294278262
5700.00000000321,49.7768714733831,1.00000000138155,0.580001715001416
5800.00000000357,53.8991388956999,1.00000000136936,0.582684169568449
5900.00000000393,58.100350638624,1.0000000013365,0.585175478111389
6000.0000000043,62.3337201163585,1.00000000135486,0.587591725743427
6100.00000000466,66.6228630193746,1.00000000132947,0.589099131139289
6200.00000000502,70.9212851882181,1.0000000013379,0.591184884780872
6300.00000000539,75.2178300825699,1.00000000126792,0.59289403259353
6400.00000000575,79.5205766105265,1.00000000125342,0.593709456177942
6500.00000000612,83.7785831746119,1.00000000127582,0.595052109642076
6600.00000000648,88.0140913638446,1.00000000123674,0.595785039234307
6700.00000000684,92.1959777226934,1.00000000122476,0.596909452254255
6800.00000000721,96.3040867404701,1.00000000121957,0.597504246426175
6900.00000000757,100.358014651307,1.00000000117204,0.597569183040897
7000.00000000793,104.312622672443,1.00000000118539,0.598286997512994
7100.0000000083,108.184495840078,1.0000000011885,0.598550938725857
7200.00000000866,111.957987852808,1.00000000114275,0.598484880703337
7300.00000000903,115.610620940092,1.00000000113016,0.598821037183546
7400.00000000939,119.165768371481,1.00000000109292,0.59835404833313
7500.00000000975,122.58903996006,1.00000000108092,0.598646320255944
7600.00000001012,125.890306270724,1.00000000106601,0.598592190580396
7700.00000001048,129.068004087127,1.00000000106399,0.597635212956267
7800.00000001084,132.099629723765,1.00000000108124,0.598484543351708
7900.00000001121,135.009863601056,1.00000000101609,0.596558113736042
8000.00000001157,137.773747323139,1.00000000099911,0.598257542056515
8100.00000001194,140.398794062971,1.00000000098588,0.596130141123613
8200.0000000123,142.890164818026,1.00000000100843,0.597112040546986
8300.00000001266,145.228858237884,1.00000000095865,0.595541857460182
8400.00000001303,147.437919981046,1.0000000009782,0.596064617509749
8500.00000001339,149.500501021308,1.00000000093168,0.594200366020012
8600.00000001376,151.42139640059,1.00000000090461,0.595738618359333
8700.00000001412,153.209585836795,1.00000000090466,0.592991314314385
8800.00000001448,154.849963014515,1.00000000092924,0.594795228697829
8900.00000001485,156.363939038384,1.00000000089141,0.59202913050871
9000.00000001521,157.739738671658,1.00000000090676,0.592990111344325
9100.00000001557,158.982825979368,1.00000000084505,0.59209578985392
9200.00000001594,160.102294325487,1.00000000083089,0.592156959505525
9300.0000000163,161.089239866486,1.00000000080368,0.591179297187725
9400.00000001667,161.958228756316,1.00000000082666,0.591670125372693
9500.00000001703,162.70830280384,1.00000000081539,0.590896617478043
9600.00000001739,163.337220157727,1.0000000007814,0.589649702964094
9700.00000001776,163.860761448463,1.00000000080846,0.592098195907915
9800.00000001812,164.271858276258,1.00000000076488,0.588657030758816
9900.00000001848,164.580731289752,1.00000000074363,0.589171764302491
10000.0000000188,164.792685085597,1.00000000076871,0.591881516063403
10100.0000000192,164.909004694176,1.00000000076104,0.58755526028753
10200.0000000196,164.936098440205,1.00000000075912,0.587133978173622
10300.0000000199,164.878037453137,1.00000000079067,0.59035364408895
10400.0000000203,164.746290419214,1.00000000072831,0.584263292238593
10500.0000000207,164.534611880134,1.0000000007249,0.58352835429733
10600.000000021,164.254091268439,1.00000000078781,0.588189523852968
10700.0000000214,163.918092539046,1.00000000074889,0.582785528787015
10800.0000000218,163.51441810185,1.00000000072663,0.576768729594687
10900.0000000221,163.057248686524,1.00000000078424,0.585298220839351
11000.0000000225,162.556922634349,1.00000000076046,0.582703251410336
11100.0000000229,162.006611071113,1.00000000071272,0.57333295242537
11200.0000000232,161.408031332187,1.00000000079359,0.576997228152951
11300.0000000236,160.77329383357,1.00000000081248,0.583203811888615
11400.0000000239,160.110924876836,1.0000000007681,0.57701505179392
11500.0000000243,159.406743989806,1.00000000068245,0.562592539127562
11600.0000000247,158.667915747128,1.00000000081049,0.580315693275037
11700.000000025,157.916877464956,1.00000000083671,0.579137116588556
11800.0000000254,157.142789303903,1.00000000074124,0.566127313222872
11900.0000000258,156.336872308638,1.00000000068468,0.558109350823167
12000.0000000261,155.512497950607,1.00000000085254,0.582485182744249
12100.0000000265,154.682314946087,1.0000000008163,0.572760312489936
12200.0000000269,153.839496315837,1.0000000007232,0.559790200020118
12300.0000000272,152.969811789248,1.00000000069399,0.553548698989482
12400.0000000276,152.091515309472,1.00000000089096,0.579937839946786
12500.0000000279,151.215517001264,1.0000000008566,0.567566391318552
12600.0000000283,150.33231606483,1.00000000071649,0.557439723825645
12700.0000000287,149.434908911767,1.00000000075047,0.548995516101833
12800.000000029,148.527851993627,1.00000000085164,0.568194832711464
12900.0000000294,147.62574572855,1.00000000087244,0.570674755683281
13000.0000000298,146.726977931478,1.00000000078948,0.552735077846847
13100.0000000301,145.820112421191,1.00000000071513,0.550515622561471
13200.0000000305,144.908385471414,1.00000000079794,0.552826267196482
13300.0000000309,143.997333102363,1.00000000086526,0.566660767450457
13400.0000000312,143.093723210659,1.00000000086597,0.56045625848623
13500.0000000316,142.194217771899,1.00000000077954,0.542073178952864
13600.0000000319,141.291140615465,1.00000000079712,0.550041740880566
13700.0000000323,140.390029385196,1.00000000083174,0.554242783955563
13800.0000000327,139.492310493933,1.00000000083144,0.558395047239002
13900.000000033,138.602478334728,1.00000000088302,0.557483762846313
14000.0000000334,137.719220227664,1.00000000078129,0.535904015199629
14100.0000000338,136.836665231997,1.00000000074151,0.545104286216825
14200.0000000341,135.959033517857,1.00000000083958,0.557042233899976
14300.0000000345,135.086337165923,1.00000000082233,0.549563950698913
14400.0000000349,134.22042090081,1.00000000084427,0.553026268509527
14500.0000000352,133.362705128316,1.00000000083388,0.541167975004641
14600.0000000356,132.509855335049,1.0000000007442,0.531359295958231
14700.0000000359,131.662725169903,1.00000000082306,0.550585594764041
14800.0000000363,130.822135579282,1.0000000008319,0.556240039794692
14900.0000000367,129.988595456665,1.00000000081368,0.545363866019697
15000.000000037,129.162346853524,1.00000000082209,0.540943118767843
15100.0000000374,128.342383493575,1.00000000083068,0.539359874399096
15200.0000000378,127.530189999095,1.00000000078394,0.530769983249952
15300.0000000381,126.724812730893,1.00000000080832,0.546923668501982
15400.0000000385,125.927341136212,1.00000000081354,0.55600753894995
15500.0000000389,125.137962197643,1.00000000080785,0.546246887906154
15600.0000000392,124.3550468542,1.00000000079077,0.535711295482275
15700.0000000396,123.57958781208,1.00000000081302,0.53708775381921
15800.0000000399,122.811740066,1.0000000007958,0.53661578138509
15900.0000000403,122.051645334169,1.00000000082336,0.537872470274177
16000.0000000407,121.300506521359,1.00000000080779,0.548048889811016
16100.000000041,120.557069574154,1.00000000082387,0.553250709348531
16200.0000000414,119.821725545989,1.00000000079128,0.54465686098795
16300.0000000418,119.093984261642,1.00000000079276,0.53325394670381
16400.0000000418,118.373866004244,1.00000000076417,0.53380518763364
16500.0000000404,117.662016476867,1.0000000008483,0.544544545193909
16600.0000000389,116.958082312717,1.00000000079543,0.543090543174749
16700.0000000375,116.262960599147,1.00000000078565,0.541307471224401
16800.000000036,115.57628908362,1.00000000079886,0.551967630779085
16900.0000000346,114.897927828936,1.00000000077624,0.54912703084532
17000.0000000331,114.228084648598,1.00000000075576,0.536373966337513
17100.0000000317,113.566440887304,1.00000000075394,0.531048147681276
17200.0000000302,112.913154714932,1.0000000007923,0.539466579713344
17300.0000000287,112.268028559047,1.00000000082145,0.546400158687249
17400.0000000273,111.630855375126,1.00000000077326,0.546328528955801
17500.0000000258,111.001955303794,1.00000000079633,0.542717716846735
17600.0000000244,110.381010145997,1.00000000081306,0.548051162293853
17700.0000000229,109.769069666878,1.00000000076993,0.548667876682582
17800.0000000215,109.166459238017,1.00000000071766,0.534577225130496
17900.00000002,108.572786106687,1.00000000074737,0.531952863718652
18000.0000000186,107.987059147743,1.00000000084089,0.537372573605108
18100.0000000171,107.409242624404,1.00000000077739,0.53661221618213
18200.0000000156,106.839353551023,1.00000000082018,0.547425740808223
18300.0000000142,106.2765010988,1.00000000081378,0.55350703484049
18400.0000000127,105.720441321286,1.00000000081607,0.547088030504622
18500.0000000113,105.171649508134,1.00000000082164,0.547507858727793
18600.0000000098,104.631480855885,1.00000000076598,0.541101113029274
18700.0000000084,104.102218543748,1.00000000070672,0.534162231826102
18800.0000000069,103.582372659094,1.00000000075846,0.530001137243643
18900.0000000055,103.07006280129,1.00000000084546,0.534955963941749
19000.000000004,102.564699780339,1.00000000079186,0.530368049768428
19100.0000000026,102.067271372501,1.00000000076368,0.535305797151307
19200.0000000011,101.575602105294,1.00000000083256,0.550487529652344
19299.9999999996,101.088657061417,1.00000000085582,0.558261501020453
19399.9999999982,100.607246718641,1.00000000081524,0.549166182332567
19499.9999999967,100.131805938288,1.00000000083947,0.545674545887044
19599.9999999953,99.6647965862507,1.0000000007312,0.537201079360411
19699.9999999938,99.2090438639481,1.0000000006983,0.533260647606116
19799.9999999924,98.7628455542218,1.00000000075358,0.533065130216096
19899.9999999909,98.3247195321609,1.00000000083305,0.526119673581246
19999.9999999895,97.8928520755364,1.00000000084627,0.528806819156676
20099.999999988,97.4677758402205,1.0000000007896,0.528411004957724
20199.9999999865,97.0485487555984,1.00000000079935,0.534232090321765
20299.9999999851,96.6326661513494,1.00000000086881,0.546590966294377
20399.9999999836,96.2187784729992,1.00000000087623,0.559195040793649
20499.9999999822,95.808304162573,1.00000000083136,0.552342728658294
20599.9999999807,95.4031421253159,1.00000000080254,0.539355603109405
20699.9999999793,95.0058807218179,1.00000000076096,0.534497372552458
20799.9999999778,94.6178659555891,1.00000000077008,0.53548656769996
20899.9999999764,94.2397345879686,1.00000000077396,0.533983747241844
20999.9999999749,93.8701930644143,1.00000000078033,0.532284334636915
21099.9999999734,93.5082905592935,1.00000000081605,0.524843622792065
21199.999999972,93.1531129683477,1.00000000078698,0.526359752440471
21299.9999999705,92.8026495168717,1.00000000081517,0.52501830999401
21399.9999999691,92.4562259295384,1.00000000083675,0.535316116790846
21499.9999999676,92.1110154549781,1.00000000086854,0.543299672879079
21599.9999999662,91.7661258102732,1.00000000086205,0.551400220916784
21699.9999999647,91.4220897011438,1.00000000087212,0.558306997191116
21799.9999999633,91.0811072560247,1.00000000078543,0.546959436328887
21899.9999999618,90.7461488675455,1.00000000079708,0.538930171707639
21999.9999999603,90.4186433572766,1.00000000079217,0.539396638478174
22099.9999999589,90.0998165314911,1.00000000078729,0.542149547915796
22199.9999999574,89.7899705452096,1.00000000075829,0.538262333736553
22299.999999956,89.4882727001513,1.00000000074518,0.536555431388136
22399.9999999545,89.1944995085253,1.00000000076669,0.530075082396648
22499.9999999531,88.9076300675936,1.00000000079995,0.529090291852215
22599.9999999516,88.6266297878016,1.00000000080996,0.532027959820221
22699.9999999502,88.3487221674177,1.00000000083324,0.538998153147687
22799.9999999487,88.0721950010532,1.00000000083383,0.541297801566872
22899.9999999473,87.7957347820336,1.00000000087536,0.546979975225492
22999.9999999458,87.5172184991191,1.00000000090456,0.551392274675673
23099.9999999443,87.2385247346578,1.00000000084634,0.558092432695337
23199.9999999429,86.962503064583,1.00000000079943,0.554717179530829
23299.9999999414,86.6912233519841,1.00000000076585,0.548097896128636
23399.99999994,86.4262589028203,1.00000000078904,0.544758756913168
23499.9999999385,86.1683486357166,1.00000000076507,0.548354465062782
23599.9999999371,85.9174791434978,1.00000000078943,0.551585991102262
23699.9999999356,85.6755602762487,1.0000000007412,0.542204425682744
23799.9999999342,85.4425388256989,1.0000000007401,0.539705056621437
23899.9999999327,85.2171686201477,1.00000000080159,0.538478824127222
23999.9999999312,84.9977612972555,1.00000000081231,0.536188581890496
24099.9999999298,84.7837808247185,1.00000000078981,0.537803484163889
24199.9999999283,84.5731278424635,1.00000000083883,0.547130478609452
24299.9999999269,84.3631144990507,1.00000000082972,0.551542642476259
24399.9999999254,84.1529557919617,1.00000000084633,0.551086116948619
24499.999999924,83.940878072643,1.0000000009171,0.554489418715955
24599.9999999225,83.7257054763177,1.00000000087181,0.554465572298221
24699.9999999211,83.5107103338512,1.00000000083042,0.555549404659473
24799.9999999196,83.2982353339885,1.00000000076787,0.55658301559043
24899.9999999181,83.0899571093472,1.00000000079834,0.55642364291864
24999.9999999167,82.8849645664739,1.00000000085838,0.559352174050271
25099.9999999152,82.6834235081122,1.00000000081635,0.554535959113138
25199.9999999138,82.4872400939186,1.00000000078868,0.552586188960301
25299.9999999123,82.2980926661016,1.00000000076999,0.551998725592252
25399.9999999109,82.1176275973243,1.00000000075557,0.545037598447916
25499.9999999094,81.946479209161,1.00000000075333,0.541130759372996
25599.999999908,81.7825029442274,1.00000000080702,0.543233132530041
25699.9999999065,81.6242101200785,1.00000000078911,0.542136742371193
25799.9999999051,81.4707960976481,1.00000000079075,0.540436134548886
25899.9999999036,81.3208196221835,1.00000000081586,0.550259409505021
25999.9999999021,81.1699253667825,1.00000000090445,0.558665007499965
26099.9999999007,81.0159857995526,1.00000000087589,0.562970813094682
26199.9999998992,80.860400479808,1.000000000849,0.559140617256928
26299.9999998978,80.7034919547522,1.00000000086924,0.555251541086881
26399.9999998963,80.5456099432108,1.00000000088004,0.554720048437515
26499.9999998949,80.3878882295502,1.00000000082823,0.553865519068319
26599.9999998934,80.2314821074137,1.00000000078199,0.559641406321131
26699.999999892,80.0761920709947,1.0000000008642,0.56821065904852
26799.9999998905,79.921257969209,1.00000000088247,0.57149614950344
26899.999999889,79.7673274553925,1.00000000086219,0.567951894313939
26999.9999998876,79.6149573250463,1.00000000085629,0.559493159847485
27099.9999998861,79.4664671926381,1.00000000079864,0.550150755377478
27199.9999998847,79.3244119313826,1.00000000079062,0.54834928801835
27299.9999998832,79.1896386791976,1.00000000077243,0.546648902724929
27399.9999998818,79.0633477387526,1.00000000075569,0.542636356947765
27499.9999998803,78.9453106857282,1.00000000076968,0.540475577824582
27599.9999998789,78.8334957141043,1.00000000079271,0.545990060979399
27699.9999998774,78.7270893651939,1.00000000082274,0.548922351858178
27799.9999998759,78.6223686271287,1.0000000008549,0.555694472146435
27899.9999998745,78.5176610254986,1.00000000086695,0.559776798955771
27999.999999873,78.4108808297233,1.00000000086965,0.568157084975196
28099.9999998716,78.3009514854045,1.00000000088621,0.565684480697168
28199.9999998701,78.1889055652651,1.00000000084961,0.568042432135128
28299.9999998687,78.0752250940025,1.00000000085602,0.565324824096911
28399.9999998672,77.9623647787134,1.00000000079899,0.558098085051684
28499.9999998658,77.8510231754611,1.00000000079658,0.557937218248766
28599.9999998643,77.739601967741,1.00000000085039,0.562332896930915
28699.9999998629,77.6282853580373,1.00000000083308,0.559667243422935
28799.9999998614,77.5162103243331,1.00000000087167,0.568218056009658
28899.9999998599,77.4023878289857,1.00000000084028,0.57719689155354
28999.9999998585,77.2882908610061,1.00000000082305,0.578048876675184
