Time,AGPnorm,Energy,Entropy
0,0,1,-2.05553200661459e-18
99.9999999999986,0.0123804704754102,0.999999999999133,0.0324637971585603
199.999999999993,0.031969842105119,0.99999999999995,0.0937509026419007
300,0.0598086306511902,1.0000000000248,0.196866716616023
400.000000000022,0.102189148320875,1.00000000101021,0.356869937767164
500.000000000045,0.337126126871597,1.00000000302807,0.492628874509206
600.000000000068,1.27510365891377,1.00000000424924,0.561777288734601
700.000000000091,2.97917947834587,1.00000000448243,0.591199612209345
800.000000000113,5.13937651476494,1.00000000435347,0.599399900007167
900.000000000136,7.36725650045716,1.00000000418179,0.594594161955288
1000.00000000016,9.29384770899386,1.00000000365343,0.584963009949849
1100.0000000001,10.7743489333304,1.00000000317282,0.572380049911965
1200,11.7252220196543,1.00000000282083,0.560467576385893
1299.99999999991,12.1928390842614,1.00000000250191,0.547785169151541
1399.99999999982,12.2916549473264,1.00000000242073,0.54210660991815
1499.99999999973,12.1269852994999,1.00000000331473,0.573917224101826
1599.99999999964,11.7766329766209,1.00000000276654,0.538270061208865
1699.99999999955,11.3934844914288,1.00000000197886,0.472713277896912
1799.99999999946,10.937167389435,1.00000000348874,0.572896891704737
1899.99999999937,10.5061357844434,1.00000000181111,0.43518596343903
1999.99999999928,10.0448786866327,1.00000000331387,0.543687405463947
2099.99999999919,9.63402755427183,1.00000000223651,0.473302148874302
2199.99999999909,9.23279321602598,1.0000000025737,0.483833378508436
2299.999999999,8.84341771489897,1.00000000327419,0.550301267537124
2399.99999999891,8.49461956493888,1.00000000231123,0.48045039730446
2499.99999999882,8.19321935161923,1.00000000273186,0.472987700319038
2599.99999999873,7.89626840969053,1.00000000268861,0.518178350808639
2699.99999999864,7.61408436541935,1.00000000361811,0.554378796929463
2799.99999999855,7.35997757732792,1.00000000227847,0.488260276772385
2899.99999999846,7.18116927022614,1.00000000228626,0.461656603636447
2999.99999999837,6.99238705317891,1.00000000310533,0.541497249391681
3099.99999999828,6.81605456116356,1.0000000025244,0.539547470314589
3199.99999999819,6.63585323257716,1.00000000304069,0.56124026640608
3299.99999999809,6.45632828103485,1.00000000313304,0.558464046195435
3399.999999998,6.33310553608649,1.00000000195481,0.469835002913804
3499.99999999791,6.27379822812186,1.00000000280413,0.510375742840616
3599.99999999782,6.2015573274641,1.00000000305771,0.553378191017933
3699.99999999773,6.13125175113657,1.00000000285666,0.570379031603944
3799.99999999764,6.05205119354871,1.00000000299767,0.579794335579712
3899.99999999755,5.95303987451334,1.00000000292783,0.597445415485708
3999.99999999746,5.85321720702459,1.00000000320242,0.594555646692609
4099.99999999738,5.74683125256493,1.00000000344545,0.588732774066118
4199.99999999775,5.66319362783954,1.00000000234309,0.532085437851923
4299.99999999811,5.66528884467162,1.00000000223903,0.492297718758639
4399.99999999848,5.70245919876921,1.00000000314597,0.539258098069448
4499.99999999884,5.71895889099273,1.00000000303867,0.553906685751044
4599.9999999992,5.72910825506555,1.00000000316383,0.594596579964813
4699.99999999957,5.71755310658263,1.00000000349704,0.608136782184275
4799.99999999993,5.70365834805194,1.00000000279707,0.602337612580941
4900.00000000029,5.68733046820566,1.00000000314632,0.621137602678933
5000.00000000066,5.65602266012595,1.00000000323419,0.604798894004381
5100.00000000102,5.6075269202781,1.00000000328195,0.62058368751403
5200.00000000139,5.55070495180696,1.00000000287796,0.61888942102159
5300.00000000175,5.49046407739847,1.00000000301632,0.624223429998887
5400.00000000211,5.42758387945729,1.00000000358009,0.630557970539807
5500.00000000248,5.36210508556995,1.0000000032084,0.600791220267753
5600.00000000284,5.31756338720934,1.00000000249914,0.555740315139611
5700.00000000321,5.34876721457946,1.00000000224247,0.518593935984424
5800.00000000357,5.44265178592169,1.00000000322133,0.543941523509235
5900.00000000393,5.53575775759486,1.00000000334765,0.570362665088642
6000.0000000043,5.61363780556735,1.00000000310453,0.582632242155206
6100.00000000466,5.68267242456087,1.00000000337493,0.599179262970942
6200.00000000502,5.73726915318238,1.00000000317464,0.621458206100828
6300.00000000539,5.7740331988798,1.00000000353471,0.63888984826417
6400.00000000575,5.79443456678332,1.00000000335973,0.639708756779725
6500.00000000612,5.81024562547326,1.0000000033251,0.638607123791952
6600.00000000648,5.81161430707454,1.00000000342073,0.645557246931977
6700.00000000684,5.81224387951218,1.00000000299723,0.634301721865358
6800.00000000721,5.82164079675593,1.00000000320563,0.645514720509493
6900.00000000757,5.82652123111595,1.00000000359015,0.633586711399976
7000.00000000793,5.81498448627604,1.00000000351062,0.633905356992986
7100.0000000083,5.80822866631147,1.00000000320875,0.643937075703813
7200.00000000866,5.8000788941073,1.00000000347363,0.657316921334719
7300.00000000903,5.78078006670797,1.0000000033914,0.664398438212046
7400.00000000939,5.76040584512646,1.00000000337489,0.633924821543429
7500.00000000975,5.74143965065151,1.00000000349588,0.647337033348127
7600.00000001012,5.71065299815715,1.00000000354732,0.6532143673332
7700.00000001048,5.67005602281334,1.00000000359866,0.670358185684448
7800.00000001084,5.62183086844723,1.00000000361759,0.661513466714681
7900.00000001121,5.5733633406262,1.00000000332564,0.669929103644273
8000.00000001157,5.52422675821597,1.00000000363702,0.670724637315817
8100.00000001194,5.47574489250752,1.00000000382084,0.683798705431859
8200.0000000123,5.42817010373238,1.0000000037545,0.671416644945952
8300.00000001266,5.38025523000249,1.00000000352134,0.632220494298658
8400.00000001303,5.35049762443278,1.00000000321054,0.585989574475139
8500.00000001339,5.37548896487751,1.00000000259634,0.556302042594126
8600.00000001376,5.47285162451696,1.00000000307415,0.555617216479269
8700.00000001412,5.61914632314742,1.00000000350058,0.560280839575853
8800.00000001448,5.77311840341479,1.00000000368566,0.576115769153331
8900.00000001485,5.91370674447774,1.00000000371352,0.589256231521125
9000.00000001521,6.04733045138353,1.00000000377082,0.593923759038458
9100.00000001557,6.17380381792093,1.00000000352474,0.596861463253456
9200.00000001594,6.28373434049005,1.00000000363338,0.624518940424633
9300.0000000163,6.38406308152232,1.00000000384811,0.628697792087565
9400.00000001667,6.4687109367774,1.00000000412352,0.65510026216954
9500.00000001703,6.53826645827711,1.00000000371567,0.65131678716114
9600.00000001739,6.60330504807144,1.00000000376129,0.63756541282528
9700.00000001776,6.65465995284587,1.0000000039615,0.648967498370667
9800.00000001812,6.6900284232734,1.00000000393423,0.674631181798067
9900.00000001848,6.72208337523681,1.0000000035278,0.667989333574932
10000.0000000188,6.75938475693886,1.00000000388613,0.654417637760841
10100.0000000192,6.79378017374653,1.00000000371843,0.668007675088178
10200.0000000196,6.81443246146265,1.00000000388873,0.682114089952793
10300.0000000199,6.83705902616124,1.0000000037567,0.688118845426244
10400.0000000203,6.85340077437907,1.00000000409363,0.686489977801659
10500.0000000207,6.86350935476348,1.00000000364209,0.684486296563693
10600.000000021,6.86744522023214,1.00000000441615,0.693116701983829
10700.0000000214,6.86877540701431,1.00000000397842,0.682177590666059
10800.0000000218,6.86741539119813,1.00000000458906,0.683747065181488
10900.0000000221,6.86698757984338,1.0000000039405,0.672928492692043
11000.0000000225,6.86661014259489,1.000000003848,0.668905996171474
11100.0000000229,6.87030010202965,1.00000000406642,0.669268683890168
11200.0000000232,6.88657756158206,1.00000000387543,0.660798321827414
11300.0000000236,6.91667867193036,1.00000000391202,0.659489022512701
11400.0000000239,6.95667353617713,1.00000000401809,0.663073946707722
11500.0000000243,6.99155256299863,1.00000000437993,0.669212081209768
11600.0000000247,7.02450222397638,1.00000000416851,0.666002585519487
11700.000000025,7.05216057701229,1.00000000447959,0.667854698680126
11800.0000000254,7.08266949568857,1.00000000415061,0.672804965044245
11900.0000000258,7.10753786817404,1.00000000470355,0.663796522073175
12000.0000000261,7.13337438151476,1.00000000424111,0.676616232597707
12100.0000000265,7.16186190053136,1.00000000420846,0.700485635925392
12200.0000000269,7.18498240149785,1.00000000447431,0.69948006408
12300.0000000272,7.19794633279781,1.00000000437741,0.696815393350725
12400.0000000276,7.21694516846691,1.00000000349975,0.661872858868123
12500.0000000279,7.24996871028082,1.00000000419345,0.663310429317775
12600.0000000283,7.28751048037012,1.00000000439918,0.67732963259132
12700.0000000287,7.3186625205582,1.00000000423701,0.686610194639129
12800.000000029,7.34356234265926,1.0000000047675,0.696544186922718
12900.0000000294,7.3663008586969,1.00000000395555,0.690319557510969
13000.0000000298,7.397757642539,1.00000000389437,0.688893194506641
13100.0000000301,7.4304343239882,1.00000000423857,0.669959664598527
13200.0000000305,7.45902885179481,1.0000000043624,0.657673094757423
13300.0000000309,7.49224947443654,1.00000000457768,0.686061335837763
13400.0000000312,7.52484975481037,1.00000000421643,0.688459401931927
13500.0000000316,7.5606946603954,1.00000000415914,0.697327787657036
13600.0000000319,7.5837011339069,1.0000000046411,0.684048017225171
13700.0000000323,7.60981703545547,1.00000000444739,0.69339832450981
13800.0000000327,7.63338328648257,1.00000000430363,0.689595277769113
13900.000000033,7.64618450688257,1.00000000482993,0.697504469988711
14000.0000000334,7.654980734511,1.00000000470341,0.690447000341313
14100.0000000338,7.67042176267695,1.00000000427686,0.663464765576771
14200.0000000341,7.69110809012794,1.00000000460774,0.684902203387904
14300.0000000345,7.70917295389539,1.00000000455755,0.686164617043992
14400.0000000349,7.72530433934841,1.00000000448749,0.681242067279593
14500.0000000352,7.7315706136472,1.00000000434587,0.693679239702391
14600.0000000356,7.73929470185287,1.00000000430711,0.688018779136261
14700.0000000359,7.75149860150681,1.00000000433374,0.698529639985177
14800.0000000363,7.75921882766963,1.00000000457572,0.689948549634074
14900.0000000367,7.76185270126673,1.00000000471061,0.691682007087738
15000.000000037,7.75701890381511,1.00000000464774,0.688736598165318
15100.0000000374,7.74649659038837,1.00000000435963,0.702409422659098
15200.0000000378,7.73647909023768,1.00000000427557,0.695624651451835
15300.0000000381,7.72144742808785,1.0000000046651,0.699274671543754
15400.0000000385,7.70033090300357,1.00000000462234,0.712596609295444
15500.0000000389,7.67531918314346,1.00000000518619,0.705337842790615
15600.0000000392,7.64646566406572,1.00000000485468,0.689703273615355
15700.0000000396,7.61471282102991,1.00000000449162,0.680147936539571
15800.0000000399,7.58279081647016,1.00000000463201,0.695713503585669
15900.0000000403,7.55110146448181,1.00000000466512,0.681684724547163
16000.0000000407,7.51940247152549,1.00000000503342,0.689482195787471
16100.000000041,7.48939885534493,1.00000000535482,0.687155168217133
16200.0000000414,7.45915138585496,1.00000000493468,0.690576280478599
16300.0000000418,7.43392204139347,1.00000000523543,0.696178463926467
16400.0000000418,7.40936751889123,1.0000000050909,0.685595803145583
16500.0000000404,7.3885181372597,1.000000004979,0.688656821210958
16600.0000000389,7.36651593645296,1.00000000479853,0.68179000270891
16700.0000000375,7.35208233370616,1.00000000533043,0.671277051093662
16800.000000036,7.35012558000282,1.00000000433382,0.645222314485261
16900.0000000346,7.38721225866117,1.000000004091,0.626818294678565
17000.0000000331,7.47586383205011,1.00000000412433,0.610149914426527
17100.0000000317,7.63950517594158,1.00000000400496,0.604366236392761
17200.0000000302,7.86965461896015,1.00000000392878,0.603558490915172
17300.0000000287,8.1763110626928,1.00000000440948,0.608893230607979
17400.0000000273,8.51777298279505,1.00000000460766,0.611320160849333
17500.0000000258,8.90839817511924,1.00000000490034,0.617752230057367
17600.0000000244,9.28711583182984,1.00000000509058,0.623443136686584
17700.0000000229,9.6881106962023,1.00000000502801,0.624116742042707
17800.0000000215,10.0605117102045,1.00000000473408,0.627726619991088
17900.00000002,10.4455403170273,1.00000000464643,0.633086390872794
18000.0000000186,10.8195849411844,1.00000000491533,0.63623828097728
18100.0000000171,11.1891810628895,1.00000000481421,0.630098070406799
18200.0000000156,11.5655234483509,1.00000000531138,0.638467095173617
18300.0000000142,11.9243421841258,1.00000000496652,0.658171800156928
18400.0000000127,12.2966309720117,1.00000000522111,0.65686321167459
18500.0000000113,12.6536416982035,1.00000000536959,0.674696327019863
18600.0000000098,13.0072881486292,1.00000000545771,0.666701435303406
18700.0000000084,13.340146020418,1.00000000488369,0.681114817853682
18800.0000000069,13.6531871920313,1.00000000530168,0.697052379477393
18900.0000000055,13.9665905540161,1.00000000539716,0.685902022602636
19000.000000004,14.2542008242638,1.00000000509781,0.680717403033477
19100.0000000026,14.531188043424,1.00000000607837,0.713719538737087
19200.0000000011,14.8042722916357,1.0000000052965,0.678001204060447
19299.9999999996,15.0786880075953,1.00000000559533,0.704003881642944
19399.9999999982,15.338465186226,1.0000000052919,0.718426331758013
19499.9999999967,15.5998855231672,1.00000000511372,0.68833197352039
19599.9999999953,15.8683111581137,1.00000000538096,0.676601072268216
19699.9999999938,16.1154715281314,1.00000000494345,0.7160887424008
19799.9999999924,16.3702348620892,1.00000000504804,0.70827903753656
19899.9999999909,16.6323659421982,1.00000000550061,0.707066641936076
19999.9999999895,16.9052388850788,1.00000000503981,0.707355589662885
20099.999999988,17.1599013301075,1.0000000057017,0.711324839051785
20199.9999999865,17.40067441801,1.00000000576455,0.715643382724508
20299.9999999851,17.6351538242914,1.00000000578194,0.713216574746441
20399.9999999836,17.8602802933086,1.00000000510281,0.713371774168351
20499.9999999822,18.1031829998644,1.00000000520927,0.731043746709609
20599.9999999807,18.3570326126195,1.00000000520728,0.724266876275152
20699.9999999793,18.6238707237082,1.00000000533826,0.715495696105174
20799.9999999778,18.8861056079233,1.00000000549958,0.711875092704589
20899.9999999764,19.127135081673,1.00000000564756,0.724768790173061
20999.9999999749,19.3574700185804,1.00000000553091,0.735432521912934
21099.9999999734,19.5774670389187,1.00000000609817,0.724173481163921
21199.999999972,19.816772768728,1.00000000465931,0.708936854311497
21299.9999999705,20.0797128902594,1.00000000562275,0.713818876876694
21399.9999999691,20.3531184189466,1.00000000567336,0.712031625242776
21499.9999999676,20.6058113276638,1.0000000059325,0.735850623197143
21599.9999999662,20.8411594458436,1.00000000521725,0.728928234235833
21699.9999999647,21.0873612407455,1.00000000499639,0.717487577872997
21799.9999999633,21.3534526583369,1.00000000501278,0.709642416100105
21899.9999999618,21.6344622066802,1.00000000525303,0.724276220954065
21999.9999999603,21.8952150777314,1.00000000569175,0.725159064763428
22099.9999999589,22.1321135429615,1.0000000057205,0.720283254435563
22199.9999999574,22.3875057433861,1.00000000495108,0.709818331109972
22299.999999956,22.6614833268648,1.00000000600519,0.715387831733529
22399.9999999545,22.9431680775987,1.00000000513129,0.709900142498307
22499.9999999531,23.2266099583073,1.00000000571447,0.722787329781288
22599.9999999516,23.5008187549703,1.00000000589626,0.7152523421984
22699.9999999502,23.763369316248,1.00000000606539,0.724544291702249
22799.9999999487,24.0260073676617,1.00000000530994,0.708244086904069
22899.9999999473,24.292721337859,1.00000000555309,0.724369832259
22999.9999999458,24.5533716877911,1.0000000055456,0.721666640307612
23099.9999999443,24.8273227965405,1.00000000565542,0.721778216857428
23199.9999999429,25.0963691088223,1.00000000561637,0.715897560104352
23299.9999999414,25.3694095441413,1.00000000615391,0.724022556042153
23399.99999994,25.6520140749517,1.00000000514586,0.700366349786478
23499.9999999385,25.9287242161615,1.00000000681539,0.727759423119556
23599.9999999371,26.1828247358257,1.00000000573334,0.733891164583451
23699.9999999356,26.445505600822,1.00000000563544,0.71829325346402
23799.9999999342,26.7134822123554,1.00000000574525,0.723728499992135
23899.9999999327,26.985454381124,1.00000000563959,0.702869881644366
23999.9999999312,27.2573043104603,1.00000000658448,0.726618348359407
24099.9999999298,27.5268095936019,1.00000000581318,0.72310946045009
24199.9999999283,27.7959276293145,1.00000000611346,0.712223605721126
24299.9999999269,28.071859921566,1.00000000543179,0.71540595128067
24399.9999999254,28.3547363062666,1.00000000605099,0.72606958262472
24499.999999924,28.628746643079,1.00000000650169,0.737902273994233
24599.9999999225,28.8862351687576,1.00000000565518,0.737109089499057
24699.9999999211,29.1320607326014,1.00000000579766,0.731606609841661
24799.9999999196,29.3812742289369,1.00000000577929,0.719423416597488
24899.9999999181,29.6409714313769,1.00000000644518,0.706080904912708
24999.9999999167,29.933984039792,1.00000000533963,0.710530997500761
25099.9999999152,30.2495583822663,1.00000000603168,0.717233634010424
25199.9999999138,30.5846325586537,1.00000000599528,0.703378076481514
25299.9999999123,30.9408915275448,1.00000000608287,0.716740327495542
25399.9999999109,31.30401085186,1.00000000656626,0.728334733481627
25499.9999999094,31.6546365858919,1.00000000660416,0.738443805247917
25599.999999908,31.986649855728,1.00000000745714,0.736576275043825
25699.9999999065,32.3035040167273,1.00000000603655,0.730069383788049
25799.9999999051,32.6223884723068,1.00000000639309,0.714990828074406
25899.9999999036,32.953824869836,1.00000000636298,0.73359681788302
25999.9999999021,33.2831694213022,1.00000000584919,0.730932582522747
26099.9999999007,33.6066537939655,1.00000000636428,0.725634024095558
26199.9999998992,33.938065917786,1.00000000650675,0.723484850198397
26299.9999998978,34.2891362695406,1.00000000603696,0.718059827452424
26399.9999998963,34.6514914678303,1.00000000614092,0.724918347011993
26499.9999998949,35.0131594821908,1.00000000637438,0.720485034452915
26599.9999998934,35.3835494827458,1.00000000645157,0.715510726711969
26699.999999892,35.7698891532573,1.00000000549389,0.729196513693913
26799.9999998905,36.1473956507504,1.00000000678342,0.727360874215402
26899.999999889,36.5012318430737,1.00000000667289,0.740846098524171
26999.9999998876,36.8510387633523,1.00000000666034,0.72895765960432
27099.9999998861,37.2132355912449,1.00000000607317,0.711392448121767
27199.9999998847,37.578237816015,1.00000000600241,0.712810700749213
27299.9999998832,37.9323054495668,1.00000000604936,0.720254036920903
27399.9999998818,38.280855372824,1.00000000619522,0.729498796868859
27499.9999998803,38.6182917433151,1.00000000661416,0.720831445709018
27599.9999998789,38.9547533888312,1.00000000637875,0.725343252659984
27699.9999998774,39.3081677879965,1.00000000617461,0.711016163982466
27799.9999998759,39.6772220895671,1.00000000583295,0.710005725561606
27899.9999998745,40.0456811517392,1.00000000730601,0.726975959105861
27999.999999873,40.3898985169351,1.00000000705286,0.72842243233118
28099.9999998716,40.7325123072402,1.00000000686607,0.72793668968187
28199.9999998701,41.0710660901018,1.00000000698799,0.732716496863578
28299.9999998687,41.4041158147678,1.00000000669037,0.722503274277558
28399.9999998672,41.7455456683774,1.00000000674953,0.693862288184627
28499.9999998658,42.1013567185685,1.00000000648306,0.698298186320491
28599.9999998643,42.4717378800728,1.00000000620664,0.700544490646715
28699.9999998629,42.8530110336821,1.00000000616214,0.727380377155408
28799.9999998614,43.231862374923,1.00000000696962,0.733435403398751
28899.9999998599,43.6138078043633,1.00000000642534,0.726510392986769
28999.9999998585,43.9997046644946,1.0000000068477,0.742872517796474
29099.999999857,44.3804443252687,1.00000000695756,0.739679580029624
