Time,AGPnorm,Energy,Entropy
0,0,1,1.73518935623306e-18
99.9999999999986,0.00960885962063539,0.999999999998947,0.0266790835275114
199.999999999993,0.0254737012696812,1.00000000000036,0.0775270575432593
300,0.0496931472612638,1.0000000000029,0.157577734695597
400.000000000022,0.0754505156846913,1.0000000002818,0.282915070479907
500.000000000045,0.155350705402991,1.00000000162906,0.428835607147359
600.000000000068,0.688447750923337,1.00000000283529,0.521662289552215
700.000000000091,1.98632260539696,1.00000000349609,0.568570637943826
800.000000000113,4.00671918844126,1.00000000360798,0.588079848018523
900.000000000136,6.47460692543726,1.0000000037831,0.590156294918749
1000.00000000016,8.94200524715942,1.00000000316587,0.586003864722711
1100.0000000001,11.1676162454914,1.00000000302353,0.577854231143684
1200,12.9223208178288,1.00000000266664,0.566170737886164
1299.99999999991,14.1583732260615,1.00000000245682,0.563669582565721
1399.99999999982,14.879856391838,1.00000000234537,0.559047597221986
1499.99999999973,15.1618555117237,1.00000000179814,0.52831122931096
1599.99999999964,15.1551214364551,1.00000000213141,0.540334650015304
1699.99999999955,14.8711975271015,1.0000000025941,0.574343996721379
1799.99999999946,14.4984142368589,1.00000000136959,0.456085758908813
1899.99999999937,14.0215947950169,1.00000000323113,0.585734799835662
1999.99999999928,13.5487577133553,1.0000000012376,0.420938018206766
2099.99999999919,13.0142803155023,1.00000000275688,0.547010348574027
2199.99999999909,12.5475473883612,1.00000000218447,0.497176456757717
2299.999999999,12.0680285693348,1.00000000160818,0.425067785979948
2399.99999999891,11.5890177820557,1.00000000278471,0.545491389372435
2499.99999999882,11.1638182635193,1.00000000230071,0.521436320650443
2599.99999999873,10.7751562086532,1.00000000141861,0.403667521962515
2699.99999999864,10.3964663085704,1.00000000231469,0.509631799277082
2799.99999999855,10.0339582950195,1.00000000232941,0.532579814178829
2899.99999999846,9.69167406160509,1.00000000271783,0.552131210361291
2999.99999999837,9.40805205695175,1.00000000125136,0.410738756928584
3099.99999999828,9.1756213404723,1.00000000226919,0.471641184268871
3199.99999999819,8.92943614138477,1.00000000232233,0.533317476418474
3299.99999999809,8.69777481629916,1.00000000201779,0.538216416322776
3399.999999998,8.4605765106378,1.00000000290694,0.548896744259952
3499.99999999791,8.23087556983739,1.00000000213392,0.53633864915942
3599.99999999782,8.07482743348737,1.00000000137801,0.42478308393022
3699.99999999773,7.98605858618567,1.00000000211629,0.46819044525445
3799.99999999764,7.88001366073028,1.00000000245075,0.539157735109611
3899.99999999755,7.77377503492353,1.00000000211957,0.551121856367915
3999.99999999746,7.65657869427289,1.00000000240118,0.564117246865294
4099.99999999738,7.5252746060813,1.000000002129,0.576064739845405
4199.99999999775,7.39174227950083,1.00000000261467,0.566690781153622
4299.99999999811,7.24541021203589,1.0000000027926,0.578460652381661
4399.99999999848,7.11085702606801,1.00000000200219,0.536132642535057
4499.99999999884,7.05591874142629,1.00000000141941,0.450198212630807
4599.9999999992,7.0847366342749,1.00000000194758,0.475519472462545
4699.99999999957,7.10419410398669,1.00000000230162,0.523644987660538
4799.99999999993,7.10631545030964,1.00000000224892,0.562907424677151
4900.00000000029,7.08749295069027,1.00000000237391,0.575464903698026
5000.00000000066,7.0554628971365,1.00000000234831,0.594367950129642
5100.00000000102,7.02472242665,1.00000000221853,0.587297288774547
5200.00000000139,6.977878404476,1.00000000226313,0.587520487574506
5300.00000000175,6.91301469362365,1.00000000236882,0.593298181480443
5400.00000000211,6.84081324099601,1.00000000222109,0.598609562809883
5500.00000000248,6.76651311231005,1.00000000222649,0.602726823450974
5600.00000000284,6.68320769971018,1.00000000254091,0.608170071883047
5700.00000000321,6.59206385081703,1.00000000286431,0.604437935204218
5800.00000000357,6.49734012264751,1.00000000260754,0.588028179325254
5900.00000000393,6.4263812382715,1.00000000173813,0.531072797254524
6000.0000000043,6.4345538734525,1.00000000146058,0.473976050656202
6100.00000000466,6.52963332936787,1.00000000198582,0.486333356952641
6200.00000000502,6.64391911280322,1.00000000235642,0.528269516677306
6300.00000000539,6.73544066155726,1.00000000232019,0.552178057844546
6400.00000000575,6.81004454518619,1.00000000259106,0.571212941315739
6500.00000000612,6.87014331922369,1.00000000237385,0.599160107262631
6600.00000000648,6.90627730312,1.00000000261294,0.620140844893919
6700.00000000684,6.92764447718314,1.00000000244189,0.624079819788786
6800.00000000721,6.93598391128008,1.00000000244333,0.625450219956521
6900.00000000757,6.92442131760475,1.00000000249043,0.634591855365456
7000.00000000793,6.90352653788989,1.0000000021676,0.624577930101344
7100.0000000083,6.8899156583527,1.00000000233553,0.618109077813848
7200.00000000866,6.88346655272182,1.00000000262327,0.608698459607036
7300.00000000903,6.859373067262,1.00000000255263,0.612846507116022
7400.00000000939,6.83231593322051,1.00000000238665,0.615829621941889
7500.00000000975,6.81002699565332,1.00000000235158,0.624879739536353
7600.00000001012,6.78122004048197,1.00000000252788,0.638633042801088
7700.00000001048,6.75000835297471,1.00000000242881,0.631488583441981
7800.00000001084,6.71519427496849,1.00000000241959,0.609167562875516
7900.00000001121,6.67796802436598,1.00000000258649,0.620942442478188
8000.00000001157,6.6274753157907,1.00000000253737,0.641204733127316
8100.00000001194,6.57023619953859,1.00000000246025,0.640245215579489
8200.0000000123,6.51090848048832,1.00000000221176,0.6385342658966
8300.00000001266,6.45085298287743,1.00000000235724,0.644498518586734
8400.00000001303,6.39008869602214,1.00000000265555,0.654971230082691
8500.00000001339,6.33100428906224,1.00000000287658,0.670553316429839
8600.00000001376,6.27256230947857,1.00000000276335,0.658363590255007
8700.00000001412,6.20893293908767,1.00000000276899,0.630151112681418
8800.00000001448,6.14818846780235,1.00000000225596,0.585488200416576
8900.00000001485,6.12111057040055,1.00000000168974,0.533604884540671
9000.00000001521,6.16223516891605,1.0000000015988,0.500991704163493
9100.00000001557,6.28368935421022,1.0000000019122,0.499850698927541
9200.00000001594,6.45492961645006,1.0000000021755,0.513269419028664
9300.0000000163,6.63024152470571,1.00000000269194,0.539819362624304
9400.00000001667,6.7965304495239,1.00000000275461,0.550438862703737
9500.00000001703,6.94375356917152,1.00000000260315,0.563930422708422
9600.00000001739,7.07823549456123,1.00000000283112,0.580727470854727
9700.00000001776,7.19462016544563,1.00000000257392,0.585467002672782
9800.00000001812,7.30052046954855,1.00000000280257,0.613130206036859
9900.00000001848,7.389890056883,1.00000000261682,0.628850932631143
10000.0000000188,7.46577089353203,1.0000000028999,0.62503804243963
10100.0000000192,7.52949356109611,1.00000000260415,0.621773394988247
10200.0000000196,7.57649895577938,1.00000000283984,0.641769739867083
10300.0000000199,7.60705706463857,1.00000000265815,0.657232149681656
10400.0000000203,7.63292827115633,1.00000000273489,0.655823509849748
10500.0000000207,7.65743410104523,1.00000000264186,0.641197256686613
10600.000000021,7.67953200382815,1.00000000294093,0.652283753058126
10700.0000000214,7.69167111625489,1.00000000276054,0.658505281755321
10800.0000000218,7.7017450323649,1.00000000278571,0.65863908973959
10900.0000000221,7.70175378920352,1.00000000300806,0.660505812675675
11000.0000000225,7.69987790204888,1.00000000263268,0.658585287931651
11100.0000000229,7.69355758088485,1.00000000289662,0.653508229741924
11200.0000000232,7.68382042747395,1.00000000273096,0.656347625945893
11300.0000000236,7.66930277254568,1.00000000298029,0.663902943546713
11400.0000000239,7.65058969850576,1.00000000305651,0.663544426970927
11500.0000000243,7.63132494055793,1.00000000280655,0.65595809041204
11600.0000000247,7.61584028727054,1.00000000262769,0.640893191872241
11700.000000025,7.60649566712944,1.00000000260285,0.628306211311114
11800.0000000254,7.61173739243655,1.00000000258227,0.613033823427594
11900.0000000258,7.62977009506533,1.00000000276679,0.624133655789106
12000.0000000261,7.65021698243496,1.00000000317527,0.634452557036459
12100.0000000265,7.66786129762581,1.00000000291031,0.624819697333427
12200.0000000269,7.67575744610645,1.00000000364311,0.633249455568471
12300.0000000272,7.68360249483424,1.00000000277694,0.62597834613718
12400.0000000276,7.69726514381252,1.0000000029798,0.63548404988443
12500.0000000279,7.70627309643101,1.00000000313421,0.630261613396195
12600.0000000283,7.71591161689629,1.00000000295739,0.648216177701776
12700.0000000287,7.72983716654739,1.00000000305535,0.661078214133983
12800.000000029,7.73986818740814,1.00000000313802,0.661967304633783
12900.0000000294,7.74257850967319,1.00000000315262,0.65697349102036
13000.0000000298,7.74965819589692,1.00000000294695,0.648985918729033
13100.0000000301,7.75833339224141,1.00000000293436,0.660972765968801
13200.0000000305,7.77463128536816,1.00000000278715,0.650015895438534
13300.0000000309,7.7916283021776,1.00000000309866,0.646875420659774
13400.0000000312,7.79949129401222,1.00000000296733,0.65986227540568
13500.0000000316,7.80724564529603,1.00000000290432,0.66003747687957
13600.0000000319,7.8160957443791,1.00000000294299,0.669214261243996
13700.0000000323,7.82406644689253,1.00000000288843,0.663482166408856
13800.0000000327,7.83525339238221,1.00000000292105,0.643889043164423
13900.000000033,7.84696744081791,1.00000000358317,0.672999117847264
14000.0000000334,7.85024857069399,1.00000000309184,0.67402380409562
14100.0000000338,7.85842634507638,1.0000000027621,0.666477621448183
14200.0000000341,7.86419053160666,1.0000000030347,0.666487666485905
14300.0000000345,7.86791351214363,1.00000000313003,0.686527486426959
14400.0000000349,7.86728828558152,1.00000000280307,0.673127077540603
14500.0000000352,7.86884008608868,1.00000000327279,0.680177071784637
14600.0000000356,7.86270893457418,1.00000000337382,0.662786641862968
14700.0000000359,7.85739541455022,1.00000000277071,0.648377715646419
14800.0000000363,7.85491477113621,1.00000000339465,0.672262443338115
14900.0000000367,7.84935900701657,1.00000000314472,0.668139877070256
15000.000000037,7.84810092547978,1.00000000322584,0.666424926226555
15100.0000000374,7.84156443603003,1.00000000336062,0.687104710769779
15200.0000000378,7.82980119974613,1.00000000304969,0.667037943678557
15300.0000000381,7.81694880913833,1.00000000320035,0.677420004116502
15400.0000000385,7.80313925706796,1.00000000305982,0.679640610605527
15500.0000000389,7.79098636134152,1.00000000297152,0.660422037877958
15600.0000000392,7.77320807146109,1.00000000326744,0.668638833047678
15700.0000000396,7.74780509622112,1.00000000344047,0.686909850264025
15800.0000000399,7.7234933810909,1.00000000297502,0.66559719423095
15900.0000000403,7.69724510956757,1.00000000315986,0.684879750395209
16000.0000000407,7.66515575181393,1.00000000331088,0.676293803392182
16100.000000041,7.62905816642192,1.0000000030705,0.668021102041968
16200.0000000414,7.59156991044864,1.00000000323065,0.672884910634832
16300.0000000418,7.55290334326694,1.00000000344854,0.68150053354788
16400.0000000418,7.51359968682487,1.00000000288051,0.678421900633241
16500.0000000404,7.4745192633547,1.00000000312752,0.67723001088224
16600.0000000389,7.43562554957601,1.00000000287315,0.665699248786459
16700.0000000375,7.39873716574003,1.0000000033549,0.66284042378036
16800.000000036,7.36305917838282,1.00000000351976,0.654047992672369
16900.0000000346,7.33082472974047,1.0000000036498,0.66644617058401
17000.0000000331,7.30203431688168,1.00000000350709,0.673704389189637
17100.0000000317,7.27673160035603,1.00000000365048,0.683596051133446
17200.0000000302,7.254546237482,1.0000000038402,0.68549491572603
17300.0000000287,7.22952642290563,1.00000000344461,0.679266295400727
17400.0000000273,7.20138804057106,1.0000000036217,0.667855184134245
17500.0000000258,7.16569780649782,1.00000000379887,0.62868161508076
17600.0000000244,7.12873838886085,1.00000000323337,0.610733791958105
17700.0000000229,7.1041494103359,1.00000000268924,0.600272424374987
17800.0000000215,7.10589752200318,1.00000000268944,0.57509362759317
17900.00000002,7.15840028905964,1.0000000023682,0.553684847482341
18000.0000000186,7.27481440427268,1.00000000249861,0.536368212756181
18100.0000000171,7.4721833527042,1.00000000270864,0.536198582170526
18200.0000000156,7.73343071162178,1.00000000274213,0.537884630135461
18300.0000000142,8.07290166465781,1.00000000291424,0.547554415503967
18400.0000000127,8.43232281908462,1.00000000367096,0.544986825978589
18500.0000000113,8.83518749088742,1.00000000312399,0.552979710081154
18600.0000000098,9.21882091963497,1.00000000339663,0.566462460759031
18700.0000000084,9.6202990296986,1.00000000366179,0.571854970711206
18800.0000000069,10.0021223331427,1.00000000358932,0.573574456309799
18900.0000000055,10.3773825757998,1.00000000380199,0.580094108164986
19000.000000004,10.7449756095735,1.00000000352521,0.584298644830683
19100.0000000026,11.0990290340881,1.00000000332015,0.591221938927984
19200.0000000011,11.4538830412602,1.00000000315485,0.595873181169076
19299.9999999996,11.7911883184161,1.00000000330976,0.600606874157559
19399.9999999982,12.1318499580264,1.00000000386893,0.620238493853429
19499.9999999967,12.4495832594786,1.00000000378696,0.633600733259586
19599.9999999953,12.7647869800783,1.00000000336297,0.635527758780244
19699.9999999938,13.0624792827121,1.00000000368206,0.654055440007387
19799.9999999924,13.3440571473266,1.00000000336195,0.651899244414372
19899.9999999909,13.6287028803431,1.00000000411004,0.664282646887597
19999.9999999895,13.8790523866062,1.0000000034385,0.662216570911465
20099.999999988,14.1295835965462,1.00000000395271,0.676078673764309
20199.9999999865,14.3603614118569,1.00000000354437,0.668182032534762
20299.9999999851,14.5868174861806,1.00000000371193,0.660494334040096
20399.9999999836,14.8026393643139,1.00000000346546,0.684661335950008
20499.9999999822,14.9973143987528,1.00000000384474,0.688356522406789
20599.9999999807,15.1909673984919,1.00000000388918,0.692993022948409
20699.9999999793,15.3718271554803,1.00000000368975,0.67625012627299
20799.9999999778,15.5540361963176,1.00000000382726,0.679648164489805
20899.9999999764,15.7107207838803,1.0000000038764,0.690536098477852
20999.9999999749,15.8613319647399,1.00000000329027,0.685193602270446
21099.9999999734,16.0055510223574,1.00000000379485,0.696837341103809
21199.999999972,16.1435552770987,1.00000000358803,0.693245405483238
21299.9999999705,16.2833088081,1.00000000348067,0.692148579543053
21399.9999999691,16.4190550986088,1.00000000357533,0.695999937407877
21499.9999999676,16.553814976199,1.00000000389988,0.698823709211448
21599.9999999662,16.6836046849664,1.00000000357811,0.683338305377912
21699.9999999647,16.8162374692937,1.0000000033511,0.650009190313268
21799.9999999633,16.9449787057205,1.00000000367806,0.682016424562854
21899.9999999618,17.0685920191925,1.00000000334814,0.68069791733909
21999.9999999603,17.1949140267698,1.0000000034073,0.685623559047403
22099.9999999589,17.323358209981,1.00000000346447,0.66801120708462
22199.9999999574,17.4593049948284,1.00000000397602,0.6884976521033
22299.999999956,17.582599197288,1.00000000384704,0.698431341028046
22399.9999999545,17.6907160052486,1.00000000383968,0.696037571890636
22499.9999999531,17.7912436976225,1.00000000348975,0.680751565891613
22599.9999999516,17.8914229495244,1.00000000398334,0.690597708871001
22699.9999999502,17.9952918981312,1.00000000372876,0.68148946148167
22799.9999999487,18.0923990454705,1.00000000350395,0.692587334983361
22899.9999999473,18.186484511481,1.00000000388165,0.681606711886693
22999.9999999458,18.2739910281517,1.00000000397615,0.702463211501057
23099.9999999443,18.373274253539,1.00000000357869,0.674605760961519
23199.9999999429,18.485886379464,1.00000000376348,0.672314106615025
23299.9999999414,18.6053351731012,1.00000000391956,0.697152961160877
23399.99999994,18.7110514788683,1.00000000400348,0.6791645015061
23499.9999999385,18.8105890101439,1.00000000358943,0.679468788022404
23599.9999999371,18.9089456441932,1.00000000403719,0.696801975499826
23699.9999999356,19.0096147318121,1.00000000356187,0.691450175316549
23799.9999999342,19.1119141496801,1.00000000374975,0.689127047536376
23899.9999999327,19.214028144391,1.00000000356728,0.675322506990892
23999.9999999312,19.3230604632498,1.00000000370808,0.684810700835268
24099.9999999298,19.4277863497222,1.00000000401867,0.693853473363249
24199.9999999283,19.5211020792165,1.00000000410898,0.707337422167534
24299.9999999269,19.6205800032386,1.00000000349242,0.68904280849667
24399.9999999254,19.7267062719238,1.00000000391169,0.679156812120764
24499.999999924,19.8337625336488,1.00000000400458,0.691264680124753
24599.9999999225,19.9333177475983,1.00000000403502,0.690891382366554
24699.9999999211,20.0312397873369,1.00000000376818,0.704095548295949
24799.9999999196,20.1431615259066,1.00000000353984,0.673222185348372
24899.9999999181,20.2751079914114,1.00000000371844,0.676100606352234
24999.9999999167,20.4016120257227,1.00000000437567,0.696861550657183
25099.9999999152,20.5128049337508,1.00000000381015,0.69004457189097
25199.9999999138,20.6179527932996,1.00000000393984,0.690393406562374
25299.9999999123,20.7168259776239,1.00000000430859,0.697364590123504
25399.9999999109,20.8139067776537,1.00000000408222,0.688479524703507
25499.9999999094,20.9190856765375,1.00000000421528,0.692869346113058
25599.999999908,21.0202751538026,1.00000000387828,0.701027432994389
25699.9999999065,21.1227616218031,1.00000000407498,0.682899780236382
25799.9999999051,21.2289659755629,1.00000000416858,0.687342113724885
25899.9999999036,21.334929588448,1.00000000391705,0.69004609819712
25999.9999999021,21.4421498675388,1.00000000394393,0.692425210602788
26099.9999999007,21.5611314686675,1.00000000373965,0.68339469805374
26199.9999998992,21.686921590017,1.00000000401172,0.677940993635008
26299.9999998978,21.8172494322721,1.00000000417244,0.680609424960804
26399.9999998963,21.9699771552904,1.00000000361249,0.669671093895991
26499.9999998949,22.1449245658634,1.00000000397271,0.698209933427488
26599.9999998934,22.3159037997625,1.00000000461119,0.707524630373448
26699.999999892,22.4803022920936,1.00000000448966,0.705181479004264
26799.9999998905,22.6291326488385,1.00000000472154,0.688649688509648
26899.999999889,22.7711331842669,1.00000000407859,0.687052261098893
26999.9999998876,22.9114559521783,1.00000000439102,0.710100402154762
27099.9999998861,23.0543645661247,1.00000000423387,0.702522350553186
27199.9999998847,23.2022903395743,1.0000000039753,0.701050138428879
27299.9999998832,23.341404008611,1.00000000443208,0.691790927168395
27399.9999998818,23.4825934124397,1.0000000035755,0.6928394978026
27499.9999998803,23.6392078094795,1.00000000404861,0.694257356026646
27599.9999998789,23.8035106417299,1.00000000407655,0.691375585965564
27699.9999998774,23.9789264176206,1.00000000381886,0.692710397949116
27799.9999998759,24.1568617272922,1.00000000499088,0.688959305980893
27899.9999998745,24.3356629314941,1.0000000043366,0.690544646806064
27999.999999873,24.5120531317914,1.00000000447988,0.702022659298981
28099.9999998716,24.6805729312771,1.00000000431753,0.710206588016172
28199.9999998701,24.8529366026957,1.00000000413152,0.688375726827469
28299.9999998687,25.0350138417236,1.00000000436765,0.683615512930359
28399.9999998672,25.2195675446056,1.00000000412447,0.691895566518667
28499.9999998658,25.405808173696,1.00000000431993,0.695350826320738
28599.9999998643,25.5878532239858,1.00000000413372,0.698934027655534
28699.9999998629,25.7718429678994,1.00000000416347,0.695435178509221
28799.9999998614,25.9529513264478,1.00000000414447,0.69656330859045
28899.9999998599,26.1218607292101,1.00000000443259,0.694073721591023
28999.9999998585,26.2924891231229,1.00000000408844,0.701380459196434
29099.999999857,26.4689715622557,1.00000000464342,0.691916392523508
