Time,AGPnorm,Energy,Entropy
0,0,1,-5.76616770686685e-18
99.9999999999986,0.00335155111246021,1.00000000000069,0.0108255170633065
199.999999999993,0.00968505292500527,1.00000000000068,0.0318219660426068
300,0.0203401865286226,1.00000000000028,0.0619672954777788
400.000000000022,0.0320665583689531,1.00000000000175,0.0999215622347419
500.000000000045,0.0453908316598583,1.00000000000181,0.147856471034956
600.000000000068,0.0598212118347894,1.0000000000245,0.210293634054154
700.000000000091,0.0754067072439126,1.00000000012103,0.290055721627809
800.000000000113,0.157687866809142,1.00000000042494,0.374831097930498
900.000000000136,0.443838175285094,1.00000000080096,0.445529236954508
1000.00000000016,1.22885080026059,1.00000000099359,0.495713802509402
1100.0000000001,2.74062830077874,1.00000000118664,0.527951020747955
1200,5.08383653930044,1.00000000127497,0.545970489283266
1299.99999999991,8.23409273194639,1.00000000138146,0.555813806246583
1399.99999999982,11.9989032037407,1.00000000138906,0.557859474711533
1499.99999999973,16.1624564453304,1.00000000127333,0.556426557838977
1599.99999999964,20.4758592797797,1.00000000123636,0.552848843671174
1699.99999999955,24.7099073934087,1.00000000127389,0.547100605535357
1799.99999999946,28.7041353695545,1.00000000114273,0.537604107102993
1899.99999999937,32.2887726882425,1.00000000110783,0.53367693939418
1999.99999999928,35.4137298677605,1.00000000103086,0.52119882938503
2099.99999999919,37.9771298303164,1.00000000099683,0.518315117477492
2199.99999999909,40.0260483163594,1.00000000097478,0.517771035946068
2299.999999999,41.5039913439906,1.00000000078267,0.486969368764244
2399.99999999891,42.4864354380188,1.00000000089204,0.523301123527541
2499.99999999882,43.0987444805938,1.00000000083501,0.50595918122363
2599.99999999873,43.2235084713444,1.00000000058729,0.446819563086769
2699.99999999864,43.0154675943893,1.00000000088266,0.532452058959524
2799.99999999855,42.7304945092618,1.00000000094738,0.538117202510407
2899.99999999846,42.2130663125878,1.00000000046884,0.404340525194431
2999.99999999837,41.3838811581127,1.00000000060729,0.44270656757499
3099.99999999828,40.5418112898926,1.00000000111819,0.557687224722046
3199.99999999819,39.8222190917112,1.00000000102762,0.54873457736114
3299.99999999809,39.0480432332465,1.00000000050402,0.38942020761637
3399.999999998,38.0983741630322,1.00000000035548,0.329085198019645
3499.99999999791,37.104468043089,1.00000000095582,0.480628187318643
3599.99999999782,36.1907996169755,1.00000000126201,0.549426132885247
3699.99999999773,35.405604064688,1.0000000010813,0.558326499243268
3799.99999999764,34.6638408357604,1.00000000074908,0.455074807949115
3899.99999999755,33.8684798456305,1.00000000034498,0.302846181257582
3999.99999999746,33.0664010540243,1.00000000044763,0.328721065680157
4099.99999999738,32.2907220108338,1.00000000086786,0.471135051240308
4199.99999999775,31.531526200664,1.00000000101232,0.520156838980884
4299.99999999811,30.8070232246293,1.00000000101377,0.507625572033398
4399.99999999848,30.1364249778365,1.00000000105058,0.559945203614917
4499.99999999884,29.5151853680098,1.00000000086903,0.532573975237295
4599.9999999992,28.9063726755207,1.00000000046869,0.395013001768763
4699.99999999957,28.3435450938855,1.000000000318,0.288262422556466
4799.99999999993,27.8845861656023,1.00000000051325,0.325224442628889
4900.00000000029,27.4905361768312,1.00000000075463,0.433653029242893
5000.00000000066,27.0700440146672,1.00000000108526,0.519393722719318
5100.00000000102,26.6122242100591,1.00000000088486,0.541260545394701
5200.00000000139,26.1639056202732,1.00000000068112,0.475354744181633
5300.00000000175,25.7265853522045,1.00000000082872,0.462324861282855
5400.00000000211,25.2710737675155,1.00000000116266,0.520415721314527
5500.00000000248,24.8139022881605,1.00000000114623,0.568048996885704
5600.00000000284,24.3780172427838,1.00000000095659,0.55284864096792
5700.00000000321,23.9632932174851,1.00000000053877,0.459186113949341
5800.00000000357,23.6072781086407,1.00000000034905,0.344973191227701
5900.00000000393,23.3865402585071,1.00000000031981,0.287263583544212
6000.0000000043,23.3248470878483,1.00000000054108,0.320640298074284
6100.00000000466,23.3414021878939,1.00000000076199,0.412908565055198
6200.00000000502,23.3402876791902,1.00000000091571,0.493799858737378
6300.00000000539,23.2783575990518,1.00000000093459,0.51940816222217
6400.00000000575,23.1511555708553,1.00000000092751,0.516058399740593
6500.00000000612,22.9638165372288,1.00000000097644,0.535924550306535
6600.00000000648,22.7387409519099,1.00000000086546,0.540025714342168
6700.00000000684,22.5174406355259,1.00000000066492,0.508139049159085
6800.00000000721,22.3187478475618,1.00000000065625,0.490978705063598
6900.00000000757,22.1228175252546,1.00000000073294,0.510054776372004
7000.00000000793,21.9079103804794,1.00000000082502,0.512430121084216
7100.0000000083,21.6690425265087,1.00000000093211,0.514325604104337
7200.00000000866,21.4034808282373,1.00000000112366,0.527558456956669
7300.00000000903,21.1202390548481,1.00000000120161,0.559034236876532
7400.00000000939,20.8397389878049,1.00000000111677,0.573951374820295
7500.00000000975,20.5668598655144,1.00000000083701,0.543780219355109
7600.00000001012,20.3085684500092,1.00000000054428,0.469682636422373
7700.00000001048,20.106775061867,1.00000000035775,0.380150547846135
7800.00000001084,20.030751192346,1.00000000029754,0.320284187451872
7900.00000001121,20.1364006503071,1.00000000036137,0.298838643462416
8000.00000001157,20.4163663589625,1.00000000058014,0.332059804707851
8100.00000001194,20.7941079638213,1.00000000072328,0.396345113466896
8200.0000000123,21.1760983209118,1.00000000087111,0.454429933227321
8300.00000001266,21.4902098475706,1.00000000101307,0.505399229039875
8400.00000001303,21.720419926233,1.00000000085278,0.527017384280828
8500.00000001339,21.8846232153235,1.00000000084671,0.535650045602039
8600.00000001376,21.9837661370371,1.00000000083129,0.556143474069862
8700.00000001412,22.0194003757574,1.00000000090572,0.568222348295223
8800.00000001448,22.0149573336398,1.00000000075599,0.545954820825754
8900.00000001485,21.9819160453608,1.0000000008618,0.534525179088622
9000.00000001521,21.9189709393199,1.00000000086005,0.531558517142473
9100.00000001557,21.8220154374464,1.00000000094772,0.540073641048809
9200.00000001594,21.7009212308074,1.00000000080787,0.539758496010199
9300.0000000163,21.5852832536777,1.00000000063246,0.52511481373711
9400.00000001667,21.4921344894489,1.00000000067595,0.510489107692366
9500.00000001703,21.4069917762416,1.00000000078285,0.510625722390172
9600.00000001739,21.3159009098399,1.00000000080267,0.518121752998498
9700.00000001776,21.2213873239795,1.00000000080334,0.522317705383437
9800.00000001812,21.1254792072412,1.00000000079197,0.527312899259776
9900.00000001848,21.0260821526946,1.00000000076271,0.53373203598521
10000.0000000188,20.9136869718803,1.00000000089529,0.546578155649043
10100.0000000192,20.7872957439604,1.00000000073739,0.558715519282909
10200.0000000196,20.6557265781093,1.00000000075266,0.563796028600954
10300.0000000199,20.5246799625779,1.00000000066352,0.557240498422289
10400.0000000203,20.3931465491703,1.00000000070732,0.554618672638054
10500.0000000207,20.2508190250308,1.00000000083847,0.563540539704132
10600.000000021,20.0940602943708,1.00000000091951,0.560685155244796
10700.0000000214,19.9255262588295,1.00000000096179,0.568151659408437
10800.0000000218,19.7513394120361,1.00000000113755,0.571306183055972
10900.0000000221,19.5822503195742,1.00000000117139,0.575676317766841
11000.0000000225,19.4263180470114,1.00000000118828,0.580945916837897
11100.0000000229,19.2841374624609,1.0000000011,0.582122429114492
11200.0000000232,19.1443346635385,1.00000000095237,0.569016932295363
11300.0000000236,18.9935530280698,1.00000000070405,0.533470010365204
11400.0000000239,18.8325437501522,1.00000000051513,0.479917489755386
11500.0000000243,18.686087350918,1.00000000037114,0.419263405614981
11600.0000000247,18.5989194616535,1.00000000033505,0.369266258549792
11700.000000025,18.6242767436739,1.00000000028037,0.326826248272979
11800.0000000254,18.8109510323699,1.00000000033572,0.316433687353756
11900.0000000258,19.1721005024096,1.00000000037366,0.323726813178455
12000.0000000261,19.7011096930172,1.00000000052092,0.342346569256152
12100.0000000265,20.338109287686,1.0000000007157,0.380572070506632
12200.0000000269,21.0111379529503,1.00000000083111,0.422152415409478
12300.0000000272,21.6712293754909,1.00000000087948,0.458508975812332
12400.0000000276,22.2720780829957,1.00000000097611,0.491876266322765
12500.0000000279,22.7960575819197,1.00000000097492,0.520138474102836
12600.0000000283,23.2495955716106,1.00000000091085,0.529870449656323
12700.0000000287,23.6375033708886,1.00000000095916,0.541335848610327
12800.000000029,23.9609266019692,1.00000000091328,0.565876454321194
12900.0000000294,24.2255285708774,1.00000000087404,0.575363820559322
13000.0000000298,24.4380657372521,1.00000000085597,0.571833275792005
13100.0000000301,24.6014815812604,1.00000000082133,0.571102552238524
13200.0000000305,24.7270928972815,1.0000000008843,0.57840143798192
13300.0000000309,24.8129936245088,1.00000000090028,0.594200802260985
13400.0000000312,24.8567182971201,1.00000000088928,0.594195689851963
13500.0000000316,24.8711351066399,1.00000000080619,0.577398203281411
13600.0000000319,24.8647427570434,1.00000000085747,0.565879014211147
13700.0000000323,24.8353724170451,1.00000000084878,0.557399003372249
13800.0000000327,24.7955402134689,1.00000000075385,0.548926890762115
13900.000000033,24.7509686734596,1.0000000008044,0.555863514362928
14000.0000000334,24.6917638929761,1.00000000084856,0.562380899371672
14100.0000000338,24.6189523994648,1.00000000082787,0.565018099321787
14200.0000000341,24.5360403957953,1.00000000076882,0.579257136127925
14300.0000000345,24.4432607735966,1.00000000084303,0.57367955080577
14400.0000000349,24.3420338112379,1.00000000083358,0.571790916207312
14500.0000000352,24.2355189677324,1.00000000085382,0.574361864730958
14600.0000000356,24.1261509442621,1.00000000076961,0.570466143794126
14700.0000000359,24.0197106484982,1.00000000073673,0.55690921445756
14800.0000000363,23.9204705406932,1.00000000066701,0.546982281333872
14900.0000000367,23.8246769945337,1.0000000008245,0.547888751074851
15000.000000037,23.7250917113116,1.00000000085581,0.554126429096877
15100.0000000374,23.6228305092434,1.0000000008663,0.561621716760475
15200.0000000378,23.5159011006332,1.00000000090512,0.566144128680513
15300.0000000381,23.4023964066365,1.00000000086247,0.570653788375406
15400.0000000385,23.2891610500634,1.0000000007644,0.566777885466869
15500.0000000389,23.1845805672618,1.00000000069471,0.558543571939194
15600.0000000392,23.0919592498745,1.00000000076546,0.553977914166409
15700.0000000396,23.0109700479927,1.00000000074489,0.544416323577348
15800.0000000399,22.9397718470769,1.00000000077813,0.543893337516836
15900.0000000403,22.8812449199939,1.0000000007156,0.52701514497068
16000.0000000407,22.8278158903992,1.00000000087951,0.516588415225824
16100.000000041,22.7711127285102,1.00000000085085,0.519414474336978
16200.0000000414,22.715634264889,1.00000000073851,0.523433467850399
16300.0000000418,22.668380884365,1.00000000068325,0.530526251620155
16400.0000000418,22.6260894362038,1.00000000072409,0.553153439895757
16500.0000000404,22.582335444121,1.00000000075802,0.571709447223705
16600.0000000389,22.5364196219081,1.00000000085527,0.578723768305602
16700.0000000375,22.4816880983061,1.00000000093625,0.571005737921286
16800.000000036,22.4176019752257,1.00000000092763,0.558659822112578
16900.0000000346,22.3525224635845,1.00000000072138,0.554837722706358
17000.0000000331,22.2932825977536,1.00000000075957,0.564942383265211
17100.0000000317,22.2330254211665,1.00000000089183,0.576707689010422
17200.0000000302,22.1665973793503,1.00000000085199,0.588659173439381
17300.0000000287,22.1003383247466,1.0000000007423,0.590073459083432
17400.0000000273,22.0336541175346,1.00000000084332,0.596655857020724
17500.0000000258,21.9596869023245,1.00000000086353,0.600765677386009
17600.0000000244,21.8798155207809,1.00000000082389,0.595296333165542
17700.0000000229,21.7958679827947,1.00000000082961,0.594648004928198
17800.0000000215,21.7070106645059,1.0000000008991,0.599352922951921
17900.00000002,21.6159530296257,1.00000000077953,0.600065109781703
18000.0000000186,21.5294418999791,1.00000000068548,0.587593258424311
18100.0000000171,21.4473164476015,1.00000000076051,0.58397159872816
18200.0000000156,21.3634614963688,1.00000000087564,0.584482189057305
18300.0000000142,21.2775773801088,1.00000000079389,0.573483810834964
18400.0000000127,21.1922913115164,1.00000000080554,0.57989773857231
18500.0000000113,21.1088352845019,1.00000000079129,0.590423081855223
18600.0000000098,21.024306723449,1.00000000082111,0.593974974549566
18700.0000000084,20.9393886790568,1.0000000007488,0.589179575099533
18800.0000000069,20.8558734327066,1.00000000080827,0.588333040448752
18900.0000000055,20.7742449749608,1.0000000008094,0.586928731746498
19000.000000004,20.6910914696093,1.00000000082303,0.578506352466482
19100.0000000026,20.604055512571,1.00000000080918,0.590366132895352
19200.0000000011,20.5146618385762,1.0000000008181,0.584783109443875
19299.9999999996,20.4235139647699,1.00000000085361,0.583617518172227
19399.9999999982,20.3305773466685,1.00000000083687,0.588241477966187
19499.9999999967,20.2353417111036,1.00000000085601,0.601915925095804
19599.9999999953,20.1379146515144,1.00000000093547,0.614082723203802
19699.9999999938,20.0395549804321,1.00000000083181,0.613722912100381
19799.9999999924,19.9420381542791,1.00000000074551,0.596638260150094
19899.9999999909,19.8463933562406,1.00000000073221,0.596172559711612
19999.9999999895,19.7499361863606,1.0000000009569,0.609599618234613
20099.999999988,19.6526106868531,1.000000000936,0.618470104706515
20199.9999999865,19.5563324835014,1.00000000081818,0.607965428242736
20299.9999999851,19.4607848107555,1.00000000067889,0.58625646168303
20399.9999999836,19.3659029057794,1.00000000076214,0.598160242591127
20499.9999999822,19.2719821259705,1.00000000073533,0.605811532634186
20599.9999999807,19.1791052991899,1.00000000070701,0.604005876995365
20699.9999999793,19.087262825891,1.0000000007007,0.60095863767902
20799.9999999778,18.9969012784024,1.00000000072829,0.599769125275295
20899.9999999764,18.9090592237934,1.00000000078979,0.608810366466415
20999.9999999749,18.8249439505979,1.00000000088216,0.607515520219229
21099.9999999734,18.7471048296122,1.00000000087916,0.599379179192522
21199.999999972,18.6783531402706,1.00000000093683,0.611814694922129
21299.9999999705,18.6217519673424,1.00000000100464,0.615721091708306
21399.9999999691,18.5848046161881,1.00000000102036,0.614138370630249
21499.9999999676,18.5671181164186,1.00000000105211,0.62189356876709
21599.9999999662,18.581716650041,1.0000000011363,0.625255071885508
21699.9999999647,18.6235058468839,1.00000000110702,0.629101037262234
21799.9999999633,18.7103060715995,1.00000000123964,0.63553546263753
21899.9999999618,18.8272659206402,1.00000000113727,0.631118897603832
21999.9999999603,18.9890466291465,1.00000000120224,0.626831000337173
22099.9999999589,19.1772774869003,1.00000000116578,0.61752497651759
22199.9999999574,19.3966941675728,1.00000000120191,0.608024783088003
22299.999999956,19.6212549595685,1.00000000108647,0.597560281079006
22399.9999999545,19.83595215684,1.00000000097899,0.590008615797577
22499.9999999531,20.0210781342645,1.00000000083292,0.572213900733852
22599.9999999516,20.156507354384,1.00000000075374,0.550014153999382
22699.9999999502,20.2377848367763,1.00000000064248,0.521173751019089
22799.9999999487,20.2601511640779,1.00000000053859,0.489713530516582
22899.9999999473,20.2313072193112,1.0000000004796,0.459900596468683
22999.9999999458,20.1722442750194,1.00000000042374,0.428071520941153
23099.9999999443,20.0965261967951,1.00000000038352,0.399107949844082
23199.9999999429,20.0422226864018,1.00000000034638,0.374415908129546
23299.9999999414,20.0304954243779,1.00000000031309,0.351076956883872
23399.99999994,20.098188823968,1.00000000030343,0.33329834813746
23499.9999999385,20.2763716172828,1.00000000029036,0.322511028887345
23599.9999999371,20.580503525891,1.00000000030179,0.319965957062312
23699.9999999356,21.0403548832863,1.00000000038511,0.322105540256864
23799.9999999342,21.6484496442077,1.00000000041858,0.332187706192727
23899.9999999327,22.4078519318382,1.00000000049046,0.342798034336035
23999.9999999312,23.3061218511063,1.00000000055121,0.357617279350371
24099.9999999298,24.3012281061481,1.00000000067431,0.370046513811599
24199.9999999283,25.3906936401739,1.00000000075766,0.391079160995531
24299.9999999269,26.5019464643164,1.00000000078795,0.406550467791072
24399.9999999254,27.6583897881835,1.00000000089498,0.425311429581374
24499.999999924,28.7779500275107,1.00000000082868,0.445674283889032
24599.9999999225,29.8985867315072,1.00000000092965,0.454932768949163
24699.9999999211,30.9572271295528,1.00000000095396,0.467477876389313
24799.9999999196,31.9717971430226,1.00000000102186,0.486897980440582
24899.9999999181,32.9339459325265,1.00000000095019,0.499536611320942
24999.9999999167,33.8260709691614,1.00000000100397,0.504899059372856
25099.9999999152,34.6654389590596,1.00000000096391,0.518205740792046
25199.9999999138,35.4325146429335,1.00000000097515,0.532683314488131
25299.9999999123,36.1592439716596,1.00000000089554,0.537269519242793
25399.9999999109,36.8222927625279,1.00000000091138,0.549185155735283
25499.9999999094,37.4377327623225,1.00000000085327,0.553304192254457
25599.999999908,38.0008416343161,1.00000000089898,0.562601749489282
25699.9999999065,38.5147025414384,1.00000000088548,0.573340043668642
25799.9999999051,38.9926047522642,1.00000000092685,0.586385626425385
25899.9999999036,39.4219339585049,1.00000000085345,0.580086508419093
25999.9999999021,39.8251483064072,1.00000000085761,0.583354871424852
26099.9999999007,40.1753701418997,1.00000000093534,0.600249438922311
26199.9999998992,40.4867188241893,1.000000000908,0.614321334006315
26299.9999998978,40.7545902718291,1.00000000085846,0.614290777276439
26399.9999998963,40.9978507798462,1.00000000084528,0.60223550526591
26499.9999998949,41.215576923255,1.00000000086229,0.601491631004009
26599.9999998934,41.3959629803434,1.00000000093526,0.609483921318687
26699.999999892,41.5419315484868,1.00000000094057,0.624706296381351
26799.9999998905,41.6456055042173,1.00000000097838,0.631125147650046
26899.999999889,41.7306179546068,1.00000000082281,0.625691598243389
26999.9999998876,41.7990692717085,1.00000000078139,0.60219775714818
27099.9999998861,41.8613857418737,1.00000000091141,0.598316138697187
27199.9999998847,41.9017759005978,1.00000000093491,0.607268390572324
27299.9999998832,41.9162872968225,1.00000000091252,0.616517968505456
27399.9999998818,41.9089808993536,1.00000000093517,0.61621735073251
27499.9999998803,41.8874157502676,1.00000000084116,0.613925076153003
27599.9999998789,41.8622304966934,1.00000000077837,0.604441926687125
27699.9999998774,41.8299267136375,1.00000000083705,0.599973989235658
27799.9999998759,41.7927653735009,1.00000000085956,0.601650494453403
27899.9999998745,41.74136395383,1.00000000090224,0.584964576447678
27999.999999873,41.6827883008482,1.00000000087036,0.581464069453439
28099.9999998716,41.6164593607873,1.00000000088133,0.593429902756087
28199.9999998701,41.543502529832,1.0000000008272,0.608809757327465
28299.9999998687,41.4650786966668,1.00000000093934,0.615412893216453
28399.9999998672,41.383552213784,1.00000000082772,0.59101697398487
28499.9999998658,41.3069831525016,1.0000000007416,0.576726913521425
28599.9999998643,41.2307045626178,1.00000000084416,0.589252756866322
28699.9999998629,41.1467964456584,1.00000000099212,0.590522205436882
28799.9999998614,41.0508242268643,1.0000000009002,0.586286180412484
28899.9999998599,40.9517797171117,1.00000000081959,0.574077427501829
28999.9999998585,40.8541373077242,1.00000000074902,0.563641519764679
