Time,AGPnorm,Energy,Entropy
0,0,1,1.94875112315405e-18
99.9999999999986,0.0153071668271426,0.999999999995531,0.0395043052545149
199.999999999993,0.037641943691658,1.00000000000022,0.116526751370742
300,0.0671512828850319,1.0000000002104,0.257694681645382
400.000000000022,0.162036778620282,1.00000000299425,0.440494327558234
500.000000000045,0.748376106517218,1.00000000498184,0.548380769984077
600.000000000068,2.09531787060606,1.00000000560039,0.594562173637964
700.000000000091,4.01010082952065,1.00000000559624,0.605570522876859
800.000000000113,5.94520687982273,1.00000000542371,0.604587492531864
900.000000000136,7.60891400898149,1.00000000434299,0.592182716580908
1000.00000000016,8.77247119038779,1.00000000410255,0.585045903110393
1100.0000000001,9.43691138912745,1.00000000369445,0.582961478648795
1200,9.67024395279356,1.000000003418,0.574581069866555
1299.99999999991,9.58904835416818,1.000000003547,0.574134480253137
1399.99999999982,9.31517644196225,1.00000000402052,0.582286595032225
1499.99999999973,8.94702689154784,1.00000000316447,0.5126789430158
1599.99999999964,8.57517536492959,1.00000000318599,0.498778519748778
1699.99999999955,8.17114978229742,1.00000000491716,0.568970516892434
1799.99999999946,7.79553225480301,1.00000000262519,0.470247387918334
1899.99999999937,7.41740138873192,1.00000000445796,0.551115808436974
1999.99999999928,7.08088198526866,1.00000000231885,0.463261644286338
2099.99999999919,6.76176863154784,1.00000000335595,0.520576211190815
2199.99999999909,6.46134132446461,1.00000000421762,0.551543634587346
2299.999999999,6.21253387423425,1.00000000261994,0.474000376875069
2399.99999999891,5.97775072234211,1.00000000377512,0.541900700515981
2499.99999999882,5.76489337229547,1.0000000036653,0.551509472883638
2599.99999999873,5.55648131587321,1.00000000388532,0.533181729122153
2699.99999999864,5.41216615494549,1.00000000291398,0.492182983727421
2799.99999999855,5.27812693374636,1.00000000411104,0.54397789369542
2899.99999999846,5.15136687371096,1.00000000363262,0.552446478752091
2999.99999999837,5.02073805795442,1.00000000364578,0.581361343229176
3099.99999999828,4.89086403608907,1.00000000416457,0.548127612889874
3199.99999999819,4.80813668697178,1.00000000295184,0.508653992899917
3299.99999999809,4.7696953462092,1.00000000407216,0.554175463755976
3399.999999998,4.7247587702277,1.00000000382072,0.552577335647203
3499.99999999791,4.68006058516083,1.00000000390291,0.5761961284899
3599.99999999782,4.63052223483276,1.00000000436562,0.590234261269773
3699.99999999773,4.56138130606857,1.00000000390462,0.610532251577041
3799.99999999764,4.49161930929751,1.00000000448386,0.593826381020274
3899.99999999755,4.4243633756053,1.00000000460439,0.55767752296965
3999.99999999746,4.40739538896474,1.00000000317804,0.527534996187274
4099.99999999738,4.44370244973152,1.00000000429135,0.556331300143884
4199.99999999775,4.47101329813461,1.00000000437638,0.570952493260069
4299.99999999811,4.49446219935739,1.00000000424883,0.5826382017049
4399.99999999848,4.51167224043969,1.00000000474652,0.617298056528488
4499.99999999884,4.52319299810081,1.00000000428251,0.612909963532021
4599.9999999992,4.52805035384175,1.00000000440803,0.648267787478088
4699.99999999957,4.52098275761347,1.00000000442219,0.64290345316894
4799.99999999993,4.49924106852642,1.00000000469665,0.640541116467414
4900.00000000029,4.46541416473167,1.00000000444192,0.655780100571666
5000.00000000066,4.42889544326247,1.00000000477675,0.663647387642814
5100.00000000102,4.39062391384401,1.00000000457452,0.643169503888338
5200.00000000139,4.35813669086009,1.00000000445052,0.607657546572966
5300.00000000175,4.35923179789586,1.00000000375734,0.574691988291467
5400.00000000211,4.42897758940424,1.00000000398097,0.578572036418255
5500.00000000248,4.51616269586763,1.00000000479384,0.596494540494398
5600.00000000284,4.59734828034494,1.00000000441817,0.611341713739872
5700.00000000321,4.67148183484449,1.00000000465733,0.624548030935684
5800.00000000357,4.73926176193665,1.00000000480295,0.633193427435514
5900.00000000393,4.79906813353671,1.00000000460551,0.64726542198837
6000.0000000043,4.84203832175729,1.00000000489513,0.676677484310476
6100.00000000466,4.87035821150737,1.00000000457861,0.678061539087364
6200.00000000502,4.89548075004613,1.00000000504236,0.67702493427905
6300.00000000539,4.9173826853992,1.00000000493979,0.66781174848983
6400.00000000575,4.94189235760399,1.00000000471444,0.674749602513414
6500.00000000612,4.96011137633022,1.00000000476664,0.67765031216257
6600.00000000648,4.96703582026693,1.00000000459779,0.665004533817573
6700.00000000684,4.98235888913434,1.00000000456385,0.665213763521463
6800.00000000721,4.99280099612154,1.00000000501153,0.685663601923426
6900.00000000757,4.99084867174169,1.00000000542027,0.697826421231213
7000.00000000793,4.98741233364745,1.00000000434614,0.66671245650226
7100.0000000083,4.98365590726893,1.00000000458896,0.679000823985382
7200.00000000866,4.97207327339478,1.00000000519523,0.680317557775064
7300.00000000903,4.95185075155469,1.00000000500287,0.68821000435284
7400.00000000939,4.91929989623923,1.00000000510801,0.674200623843392
7500.00000000975,4.88866095662084,1.00000000492951,0.66882709248114
7600.00000001012,4.86018841319159,1.00000000563588,0.689892267234082
7700.00000001048,4.83328769338648,1.00000000563713,0.700954178440453
7800.00000001084,4.81097548334354,1.00000000523028,0.668647973050279
7900.00000001121,4.80744945331957,1.00000000482234,0.630510220822195
8000.00000001157,4.85016491676035,1.0000000042286,0.604557819737677
8100.00000001194,4.95416106814211,1.0000000045292,0.608248497010009
8200.0000000123,5.08750803073381,1.00000000545696,0.615990250653674
8300.00000001266,5.2198758664277,1.00000000546628,0.623214883713442
8400.00000001303,5.35228154059373,1.00000000545111,0.628523587478091
8500.00000001339,5.47945413665615,1.00000000514482,0.616755375382293
8600.00000001376,5.59653173031307,1.00000000509709,0.623209838645582
8700.00000001412,5.71967071479661,1.00000000520218,0.6472234554562
8800.00000001448,5.8251866436024,1.00000000510443,0.669959224331498
8900.00000001485,5.92404114660047,1.0000000058503,0.685141221879954
9000.00000001521,6.02041594690459,1.00000000497037,0.685461582798179
9100.00000001557,6.10674305615658,1.00000000586655,0.688824550956416
9200.00000001594,6.16511205816347,1.00000000568983,0.694249612576294
9300.0000000163,6.22192388860495,1.00000000575065,0.705196696715829
9400.00000001667,6.28686928822504,1.00000000533013,0.709996683450926
9500.00000001703,6.34764193054269,1.00000000602232,0.709624467512243
9600.00000001739,6.39994545218559,1.00000000556905,0.709810746576817
9700.00000001776,6.44068081006185,1.00000000517775,0.70780285711695
9800.00000001812,6.49360537530724,1.0000000053253,0.715545644604076
9900.00000001848,6.52965208675061,1.00000000613324,0.710248218219448
10000.0000000188,6.56101090552085,1.00000000553226,0.699169384516342
10100.0000000192,6.58947718871276,1.00000000550128,0.715820073254958
10200.0000000196,6.61680761606659,1.00000000586188,0.722223339870939
10300.0000000199,6.65230837170803,1.00000000544392,0.705521796300807
10400.0000000203,6.69361676694368,1.00000000570517,0.701119461153953
10500.0000000207,6.74733776859686,1.00000000574629,0.7033927248128
10600.000000021,6.81045171774956,1.00000000541308,0.709053461758089
10700.0000000214,6.87094653965672,1.00000000577364,0.716212631801151
10800.0000000218,6.93304097846543,1.00000000608288,0.710435693288089
10900.0000000221,6.9812607521192,1.00000000617796,0.709957522827778
11000.0000000225,7.03910820068378,1.00000000535994,0.699384613443403
11100.0000000229,7.09189411029671,1.00000000701305,0.70443938110205
11200.0000000232,7.15212650068275,1.00000000542569,0.69218111103084
11300.0000000236,7.22442288547996,1.00000000621064,0.7182191218546
11400.0000000239,7.27969588103709,1.00000000679808,0.718233291393613
11500.0000000243,7.33811631176174,1.000000005773,0.710544193983908
11600.0000000247,7.40539320559363,1.00000000665361,0.712692294702397
11700.000000025,7.47988734638819,1.00000000600251,0.70896151648568
11800.0000000254,7.55791108385762,1.00000000615767,0.700192445227871
11900.0000000258,7.63429070686467,1.0000000061338,0.714706523703175
12000.0000000261,7.71136169411683,1.00000000594686,0.717725160860329
12100.0000000265,7.77493866191425,1.00000000618007,0.709634063378602
12200.0000000269,7.83621410405716,1.00000000615536,0.71623141622643
12300.0000000272,7.89486886970254,1.00000000642924,0.726617047156864
12400.0000000276,7.95559709050171,1.00000000581575,0.710430853640914
12500.0000000279,8.02004534935076,1.00000000609363,0.719673405916421
12600.0000000283,8.09833899112202,1.00000000576876,0.70319427857374
12700.0000000287,8.17258560599606,1.00000000684719,0.731863929215405
12800.000000029,8.23183670670927,1.00000000644218,0.700441226564023
12900.0000000294,8.30011810356422,1.0000000064547,0.713797485233988
13000.0000000298,8.36203482584708,1.00000000604003,0.706331343897982
13100.0000000301,8.43639517855153,1.00000000637339,0.714709199044786
13200.0000000305,8.50453313120067,1.00000000664286,0.719257826856447
13300.0000000309,8.56529171837155,1.00000000614397,0.739564295258553
13400.0000000312,8.62782924124678,1.00000000633542,0.712949530730591
13500.0000000316,8.70258478917548,1.00000000672998,0.709145916195862
13600.0000000319,8.7723997283528,1.00000000673961,0.710794356954457
13700.0000000323,8.83599079219593,1.00000000657193,0.713621012847926
13800.0000000327,8.89563869865484,1.00000000622384,0.727033051976351
13900.000000033,8.95407465379208,1.00000000697392,0.723394848513375
14000.0000000334,9.00585152105795,1.00000000676233,0.713447998420399
14100.0000000338,9.05987839678919,1.00000000711348,0.709336912627952
14200.0000000341,9.1037947927182,1.00000000660184,0.709037523141625
14300.0000000345,9.1430825252218,1.00000000684518,0.700505093323451
14400.0000000349,9.17697839806345,1.00000000690041,0.70691798822842
14500.0000000352,9.20427952709773,1.00000000672367,0.714528141053599
14600.0000000356,9.22438982740627,1.00000000742957,0.715207727939195
14700.0000000359,9.24395224780393,1.00000000713971,0.720502140817022
14800.0000000363,9.2558661630804,1.00000000740261,0.706326310986158
14900.0000000367,9.26481703318643,1.00000000668894,0.717520538128291
15000.000000037,9.28262096532422,1.00000000668889,0.721838513260748
15100.0000000374,9.30940798632407,1.00000000720211,0.727018844884562
15200.0000000378,9.34384820988387,1.00000000697497,0.728134172334376
15300.0000000381,9.39346410915014,1.00000000667616,0.724237823085853
15400.0000000385,9.44393914456361,1.00000000719392,0.733415772763618
15500.0000000389,9.51042996599702,1.00000000716316,0.721595868426979
15600.0000000392,9.57668939769732,1.00000000666971,0.715931852242966
15700.0000000396,9.65875649017374,1.00000000708638,0.701688256196323
15800.0000000399,9.76049807815512,1.00000000709824,0.688849241901859
15900.0000000403,9.8998610418715,1.0000000072704,0.681363838171593
16000.0000000407,10.0755061978439,1.00000000641135,0.670837614708252
16100.000000041,10.3207768002301,1.00000000618682,0.666910046622521
16200.0000000414,10.6157403457852,1.00000000674462,0.673775485303703
16300.0000000418,10.9703070349409,1.00000000686845,0.685289820713705
16400.0000000418,11.3310599618899,1.00000000662641,0.684963228449959
16500.0000000404,11.717137585539,1.00000000707251,0.687932512913514
16600.0000000389,12.0840291600112,1.00000000710873,0.689212692581744
16700.0000000375,12.4551913237077,1.00000000751911,0.686395771035072
16800.000000036,12.8100156513569,1.0000000067401,0.68919501805723
16900.0000000346,13.1709583335005,1.0000000073544,0.678659459001344
17000.0000000331,13.5206391252533,1.00000000718536,0.69352957231377
17100.0000000317,13.8728608922759,1.00000000768171,0.687101446591019
17200.0000000302,14.241117253774,1.00000000737108,0.688106512822628
17300.0000000287,14.6123735795983,1.00000000757093,0.687140486936091
17400.0000000273,15.0182798740036,1.0000000068426,0.689639298583344
17500.0000000258,15.4311681145016,1.00000000753038,0.702292051356096
17600.0000000244,15.8432030353261,1.00000000816023,0.705207770009675
17700.0000000229,16.2560382809366,1.00000000723223,0.720170345374238
17800.0000000215,16.655789402057,1.00000000736136,0.718463131265989
17900.00000002,17.0720219412845,1.00000000734033,0.729343968340729
18000.0000000186,17.4648374701631,1.00000000853237,0.73895979513192
18100.0000000171,17.8698472790719,1.00000000798521,0.738963661706561
18200.0000000156,18.2571078099149,1.00000000785537,0.748473326710271
18300.0000000142,18.6288220850151,1.00000000762386,0.731771697132325
18400.0000000127,18.9905441740818,1.00000000771727,0.744603395906124
18500.0000000113,19.3316068385123,1.00000000857814,0.744657695013566
18600.0000000098,19.6698432923538,1.00000000825822,0.743152147398347
18700.0000000084,20.0039293009031,1.00000000834392,0.747610815678436
18800.0000000069,20.355998097552,1.00000000804527,0.748384926553072
18900.0000000055,20.7040710756129,1.00000000789755,0.751995243307168
19000.000000004,21.0448698891974,1.00000000848297,0.7456030472579
19100.0000000026,21.385621092195,1.00000000780495,0.75326870526398
19200.0000000011,21.7290860135317,1.00000000886147,0.74902934713672
19299.9999999996,22.0923540349678,1.00000000816046,0.753254638792261
19399.9999999982,22.4597426695736,1.0000000083461,0.752172830584813
19499.9999999967,22.8320457292038,1.0000000084672,0.7451834907946
19599.9999999953,23.209213791297,1.00000000864788,0.742554969087575
19699.9999999938,23.6072449989634,1.00000000817993,0.74368521412203
19799.9999999924,24.0027364971273,1.0000000084887,0.759016651500769
19899.9999999909,24.3836941110043,1.00000000810426,0.755752444344049
19999.9999999895,24.7662020946286,1.0000000085265,0.761864540798942
20099.999999988,25.1402448662192,1.00000000807241,0.745134281167248
20199.9999999865,25.5243653917888,1.00000000927595,0.751642389077632
20299.9999999851,25.920009595064,1.00000000913334,0.754559063417479
20399.9999999836,26.3321163114546,1.00000000825211,0.749684337876548
20499.9999999822,26.7459959380785,1.00000000897479,0.755633300324926
20599.9999999807,27.1489649837854,1.00000000760407,0.753707052940712
20699.9999999793,27.559858735867,1.00000000911005,0.747170511123572
20799.9999999778,27.9728488604197,1.00000000893564,0.749219896512983
20899.9999999764,28.4020681392981,1.00000000796465,0.753154701227242
20999.9999999749,28.8539905247659,1.0000000087179,0.759586130898164
21099.9999999734,29.3135365668737,1.00000000881705,0.75818018129357
21199.999999972,29.7703041858639,1.00000000943765,0.755224443807904
21299.9999999705,30.2194245222853,1.00000000877717,0.763500604996821
21399.9999999691,30.6809352808836,1.0000000087781,0.752627519093263
21499.9999999676,31.1486523011353,1.00000000938283,0.75131452963887
21599.9999999662,31.6223186798888,1.00000000817663,0.742943446346564
21699.9999999647,32.1124775057437,1.000000008715,0.747031542396077
21799.9999999633,32.6019781554991,1.00000000817082,0.760871966158544
21899.9999999618,33.0864449144379,1.00000000930562,0.751887864390582
21999.9999999603,33.5651846007511,1.00000000901754,0.750560349337403
22099.9999999589,34.0316217262413,1.00000000988287,0.745674631333107
22199.9999999574,34.4952659153984,1.00000000843113,0.755621832937469
22299.999999956,34.9706875125862,1.00000000898326,0.756069619984458
22399.9999999545,35.4560208218335,1.00000000875423,0.756202600831021
22499.9999999531,35.9550049146149,1.00000000873529,0.758220767956758
22599.9999999516,36.4701417054985,1.00000000830418,0.751975727086493
22699.9999999502,36.994275709844,1.00000000917325,0.756367668703487
22799.9999999487,37.5310407271591,1.00000000807961,0.759915843515943
22899.9999999473,38.0780144020951,1.00000000979708,0.759521709699185
22999.9999999458,38.6159810196541,1.00000000953571,0.763968286380162
23099.9999999443,39.1339315800692,1.00000001010789,0.757494636510721
23199.9999999429,39.6417413214402,1.00000000845191,0.753686875670411
23299.9999999414,40.1650471617222,1.00000000949201,0.755553982960135
23399.99999994,40.7149669857175,1.00000000971034,0.753046490962591
23499.9999999385,41.2936789684352,1.00000000866499,0.751370498422523
23599.9999999371,41.8968727121417,1.00000000967091,0.754412431132634
23699.9999999356,42.512709533731,1.00000000902856,0.758049051592754
23799.9999999342,43.1367504122009,1.0000000094493,0.755043672153976
23899.9999999327,43.7692320527595,1.00000000997914,0.751277987738507
23999.9999999312,44.4065729889262,1.00000000949742,0.753235481985598
24099.9999999298,45.0345275237659,1.00000000947409,0.759858500158397
24199.9999999283,45.6592706564108,1.00000000910273,0.755948111600061
24299.9999999269,46.2817738159883,1.00000000961771,0.757694244300331
24399.9999999254,46.914825811245,1.00000000974557,0.746223714625406
24499.999999924,47.5656572023347,1.00000000998452,0.741079518615629
24599.9999999225,48.2164006303556,1.00000001016275,0.740358785342341
24699.9999999211,48.8925778615939,1.00000000972116,0.746364558115077
24799.9999999196,49.5608343759171,1.00000000923538,0.759571320177918
24899.9999999181,50.2134803856069,1.00000000988342,0.764483426722413
24999.9999999167,50.8521443385639,1.00000001030238,0.75610094385645
25099.9999999152,51.4918353693523,1.00000000885072,0.756378409117866
25199.9999999138,52.1507637504349,1.00000000951308,0.754130523535754
25299.9999999123,52.8230748413308,1.00000000855485,0.755196324545242
25399.9999999109,53.5049494492478,1.00000000939028,0.752247117083342
25499.9999999094,54.2082021501002,1.00000001013686,0.750330722917248
25599.999999908,54.9265217042343,1.00000000968037,0.760705099649616
25699.9999999065,55.6369347570078,1.00000001062717,0.761941301402699
25799.9999999051,56.3345015248952,1.00000000924552,0.755600387318043
25899.9999999036,57.0238314434066,1.00000001051235,0.752277656667017
25999.9999999021,57.723251365494,1.00000000917264,0.755725954419268
26099.9999999007,58.4337416183221,1.00000000873783,0.764180912752706
26199.9999998992,59.1405037354344,1.00000001108449,0.758307288961444
26299.9999998978,59.8560121150714,1.00000000981641,0.759299968790249
26399.9999998963,60.5790025072152,1.00000001057279,0.762729491437887
26499.9999998949,61.3028492680004,1.00000001107827,0.758794082714967
26599.9999998934,62.0402058198576,1.00000001014157,0.761443406049894
26699.999999892,62.7722444403679,1.0000000101361,0.761263283598363
26799.9999998905,63.5024889207459,1.00000001022828,0.762692233530623
26899.999999889,64.2475428477656,1.00000001042482,0.749130263971922
26999.9999998876,65.0095252217146,1.00000001047927,0.76201197131438
27099.9999998861,65.7709559362903,1.00000001060311,0.768833696836432
27199.9999998847,66.5365665638503,1.00000000983871,0.765488312373434
27299.9999998832,67.3169491340957,1.00000001010357,0.761965945172482
27399.9999998818,68.1154424592453,1.00000001030979,0.760634532360656
27499.9999998803,68.9296193543718,1.00000001002344,0.764149613039178
27599.9999998789,69.7517566401709,1.00000001001836,0.767572788150556
27699.9999998774,70.5625664389049,1.00000001032296,0.771498945969035
27799.9999998759,71.3650182504971,1.00000001010403,0.770432468158372
27899.9999998745,72.1581247279735,1.00000001105825,0.773625888024547
27999.999999873,72.9529902927083,1.00000001116174,0.765783885996176
28099.9999998716,73.7691899200754,1.00000001030818,0.760231586961313
28199.9999998701,74.6114164106435,1.00000001105572,0.767613397608622
28299.9999998687,75.451873500846,1.0000000107822,0.760840249578954
28399.9999998672,76.2934763532922,1.00000000986755,0.762120066048679
28499.9999998658,77.1351434677254,1.00000001099068,0.762786243269563
28599.9999998643,77.9890569083526,1.00000001086517,0.771734397432328
28699.9999998629,78.8469243265439,1.00000001078677,0.771856406167656
28799.9999998614,79.7090420185407,1.00000001001068,0.766129668628598
28899.9999998599,80.5689944977558,1.00000001072964,0.769510023883428
28999.9999998585,81.4399870450806,1.00000001107854,0.768931597452568
29099.999999857,82.3031958679524,1.00000001048757,0.773868585208469
