Time,AGPnorm,Energy,Entropy
0,0,1,-1.26735561057177e-17
99.9999999999986,3.14110001870063e-05,1.00000000000051,0.00125562638304181
199.999999999993,0.00273635030642359,0.999999999999181,0.00201222513259704
300,0.00672408241021993,1.00000000000078,0.00357000566853997
400.000000000022,0.00916698283922019,0.999999999999704,0.00605745192072741
500.000000000045,0.0113357075693457,0.999999999999688,0.00819134438537012
600.000000000068,0.0163490822525847,1.00000000000078,0.0113207063671022
700.000000000091,0.0201626764442962,0.999999999999059,0.0145204977577261
800.000000000113,0.0255931628213365,1.00000000000067,0.0179292322998937
900.000000000136,0.0322883252706068,1.00000000000002,0.0219397080533846
1000.00000000016,0.0379009107745753,0.999999999999341,0.0258648045108834
1100.0000000001,0.0448051379581938,1.00000000000097,0.030279085786955
1200,0.0519905550292594,0.999999999999092,0.0349553457400683
1299.99999999991,0.0598680852168819,1.00000000000044,0.0397663067075178
1399.99999999982,0.0691288408446985,1.0000000000004,0.0449963511471624
1499.99999999973,0.0776794199393697,0.999999999998998,0.0503466997218011
1599.99999999964,0.086355432287513,1.00000000000101,0.0560100073708799
1699.99999999955,0.0958589974584951,0.999999999999329,0.0620034662209092
1799.99999999946,0.105698013034314,1.00000000000015,0.0682424318409875
1899.99999999937,0.116214479392354,1.00000000000077,0.0748172581312059
1999.99999999928,0.126525727059874,0.999999999998706,0.0816931482271011
2099.99999999919,0.136543235108643,1.00000000000088,0.0888835557553524
2199.99999999909,0.147735419489034,0.999999999999706,0.0965021642271103
2299.999999999,0.158848426560978,0.999999999999854,0.104579094432219
2399.99999999891,0.169608095129359,1.00000000000104,0.113078942254836
2499.99999999882,0.180398100866548,0.99999999999868,0.122117481994839
2599.99999999873,0.191167529761007,1.00000000000076,0.131781747667613
2699.99999999864,0.203064493532911,1.00000000000035,0.14227024479537
2799.99999999855,0.214518964750385,1.00000000000024,0.153741093372124
2899.99999999846,0.22516379607485,1.0000000000034,0.166202262734076
2999.99999999837,0.235415565595808,1.00000000000526,0.179959295376703
3099.99999999828,0.246767823391199,1.00000000001537,0.195067178963962
3199.99999999819,0.259009876355828,1.00000000002944,0.211366916949613
3299.99999999809,0.268662482795642,1.00000000004984,0.228496395989204
3399.999999998,0.284301183411745,1.00000000008594,0.245779275687741
3499.99999999791,0.297897614428786,1.00000000011293,0.263139441472291
3599.99999999782,0.321098043437802,1.00000000017085,0.280265570309909
3699.99999999773,0.360966809641234,1.00000000021488,0.297139036680809
3799.99999999764,0.406611161907193,1.00000000025513,0.313670742295401
3899.99999999755,0.492745387660916,1.00000000032034,0.329537965340297
3999.99999999746,0.611064436552966,1.00000000036444,0.344991021746846
4099.99999999738,0.778197318703277,1.00000000042479,0.360136008397187
4199.99999999775,1.02449551356737,1.0000000004511,0.37445156585968
4299.99999999811,1.33777387512288,1.00000000053242,0.388143292389795
4399.99999999848,1.75925692023194,1.00000000058355,0.401355616176408
4499.99999999884,2.2994818897978,1.00000000061531,0.413928404014393
4599.9999999992,2.96412211540256,1.00000000065351,0.426281769660775
4699.99999999957,3.78947224758441,1.00000000067824,0.437642069491013
4799.99999999993,4.77546803734565,1.00000000074662,0.448300208785264
4900.00000000029,5.9380004569508,1.00000000075297,0.458875025625585
5000.00000000066,7.30130097555537,1.00000000077738,0.468383353075383
5100.00000000102,8.86466670323682,1.0000000008131,0.477627306811022
5200.00000000139,10.6375665676005,1.00000000084972,0.486259701856068
5300.00000000175,12.6384912687546,1.00000000086145,0.49421753625788
5400.00000000211,14.8539702721242,1.00000000088249,0.502189202035692
5500.00000000248,17.2987012102781,1.00000000088798,0.509120225641741
5600.00000000284,19.9825295725022,1.00000000088515,0.515702090165392
5700.00000000321,22.8748500563319,1.00000000093912,0.521923311840617
5800.00000000357,26.003679831729,1.00000000090911,0.527537666064607
5900.00000000393,29.3473143179285,1.0000000009329,0.533205000297112
6000.0000000043,32.8906141789584,1.00000000095583,0.538164479814695
6100.00000000466,36.6623400700195,1.00000000095965,0.542579251916591
6200.00000000502,40.6047455709752,1.00000000094682,0.547333274915476
6300.00000000539,44.7383630918448,1.0000000009616,0.550921930430803
6400.00000000575,49.0547594743193,1.00000000093954,0.554713261904171
6500.00000000612,53.5066879045887,1.00000000093836,0.558309248376121
6600.00000000648,58.1343267127785,1.0000000009574,0.561020311821222
6700.00000000684,62.8777095581802,1.00000000096295,0.564360993306054
6800.00000000721,67.736003397206,1.00000000094629,0.566952695012765
6900.00000000757,72.7235234492255,1.00000000093139,0.569123417581858
7000.00000000793,77.7725744376079,1.00000000091153,0.571745720392159
7100.0000000083,82.9220283920129,1.00000000095324,0.573164286642326
7200.00000000866,88.1289890243957,1.00000000090738,0.575435348236879
7300.00000000903,93.3688209947378,1.00000000092867,0.577072222739044
7400.00000000939,98.6736969881645,1.00000000090133,0.57802464862145
7500.00000000975,103.973006395131,1.00000000089445,0.579908994574806
7600.00000001012,109.294201652148,1.00000000090185,0.580824010906532
7700.00000001048,114.616921736529,1.0000000008882,0.581853822131791
7800.00000001084,119.901047374,1.0000000008689,0.582879115001778
7900.00000001121,125.187167825895,1.00000000085782,0.583277499437979
8000.00000001157,130.414124809435,1.00000000084463,0.584336104169608
8100.00000001194,135.594047375405,1.00000000083836,0.584941874398478
8200.0000000123,140.728283664912,1.00000000080391,0.58505710156039
8300.00000001266,145.770468780562,1.00000000083442,0.58567194796984
8400.00000001303,150.75930717056,1.00000000082332,0.585549854736391
8500.00000001339,155.652097425362,1.00000000080897,0.58600196558595
8600.00000001376,160.445383473753,1.00000000080514,0.585990136252414
8700.00000001412,165.156498761164,1.00000000079689,0.585985196842624
8800.00000001448,169.738606527834,1.00000000078009,0.585923481178626
8900.00000001485,174.227070122623,1.00000000077892,0.586250739917615
9000.00000001521,178.592219003032,1.00000000075685,0.585268450587995
9100.00000001557,182.825175288685,1.00000000075328,0.586274960642441
9200.00000001594,186.949218037703,1.00000000073107,0.584626131635426
9300.0000000163,190.924052498377,1.00000000073803,0.585606366666764
9400.00000001667,194.778483511396,1.00000000072302,0.584812085074968
9500.00000001703,198.494047185882,1.00000000071484,0.584293622520261
9600.00000001739,202.06024744554,1.00000000071395,0.584945970169438
9700.00000001776,205.500155447611,1.00000000071211,0.583081384302709
9800.00000001812,208.784803935244,1.00000000068042,0.584072278961925
9900.00000001848,211.931949716244,1.0000000007031,0.582736291752637
10000.0000000188,214.937506824166,1.00000000067843,0.582780889207958
10100.0000000192,217.787369806897,1.00000000066241,0.582129700283198
10200.0000000196,220.504957214686,1.00000000065133,0.581589510779454
10300.0000000199,223.071052142354,1.00000000065237,0.581129381048152
10400.0000000203,225.494299312393,1.00000000063595,0.580391170248191
10500.0000000207,227.780437895329,1.00000000061349,0.580904714587929
10600.000000021,229.915842037309,1.00000000061375,0.579841935996015
10700.0000000214,231.919528572088,1.0000000006262,0.579491912690758
10800.0000000218,233.780713626554,1.0000000006248,0.580455396358125
10900.0000000221,235.503941460856,1.00000000059103,0.578264433938467
11000.0000000225,237.096456719827,1.00000000060267,0.578705641257877
11100.0000000229,238.549277671846,1.00000000059195,0.578856486591294
11200.0000000232,239.878985819705,1.00000000056524,0.577640413169145
11300.0000000236,241.076968571411,1.00000000058328,0.577852458179772
11400.0000000239,242.148522044883,1.00000000055544,0.576918371021292
11500.0000000243,243.1014289605,1.00000000054799,0.577270646269391
11600.0000000247,243.929210894194,1.00000000054847,0.57898307695193
11700.000000025,244.64889086324,1.00000000053256,0.574776128902148
11800.0000000254,245.248885016778,1.0000000005258,0.574689451646891
11900.0000000258,245.737150626969,1.00000000055155,0.579440574243733
12000.0000000261,246.130862909054,1.00000000052546,0.576745085852282
12100.0000000265,246.415070125085,1.00000000050501,0.571159910192164
12200.0000000269,246.5993992872,1.0000000005065,0.573675091678336
12300.0000000272,246.691391800572,1.00000000051842,0.579008908841389
12400.0000000276,246.698147373467,1.00000000053945,0.576428648230398
12500.0000000279,246.623513309236,1.00000000049678,0.567981128071904
12600.0000000283,246.452858953752,1.00000000048951,0.567743831216125
12700.0000000287,246.20846873989,1.00000000054009,0.578834424463638
12800.000000029,245.905098727029,1.00000000054307,0.577098724666515
12900.0000000294,245.533402688405,1.00000000048407,0.564919108742246
13000.0000000298,245.085341526983,1.00000000045647,0.558723681283295
13100.0000000301,244.566581773847,1.00000000052863,0.575053566590532
13200.0000000305,244.00831990723,1.00000000058019,0.580236472543918
13300.0000000309,243.410858938958,1.00000000052378,0.566820807566321
13400.0000000312,242.750968773667,1.00000000043087,0.552767753271392
13500.0000000316,242.029618563761,1.00000000048731,0.558337279309992
13600.0000000319,241.266412827323,1.00000000057643,0.579873596850064
13700.0000000323,240.48657941618,1.00000000060302,0.576950865168176
13800.0000000327,239.679469767263,1.0000000004834,0.558111007454349
13900.000000033,238.820052498931,1.0000000004244,0.542718300739599
14000.0000000334,237.91305778629,1.00000000049202,0.553969277849787
14100.0000000338,236.982338585144,1.00000000063297,0.583049728126313
14200.0000000341,236.052623757077,1.00000000060143,0.574933649116723
14300.0000000345,235.107748770302,1.00000000052362,0.553673424672695
14400.0000000349,234.123160928675,1.0000000004143,0.533461240176187
14500.0000000352,233.098561399809,1.00000000045945,0.540366995335598
14600.0000000356,232.055260999111,1.00000000064762,0.579263885903598
14700.0000000359,231.024136127551,1.00000000067042,0.580427150708081
14800.0000000363,229.993950217406,1.00000000055633,0.554285778131243
14900.0000000367,228.942494403623,1.000000000436,0.531947979299993
15000.000000037,227.857741826912,1.00000000040718,0.523296589521071
15100.0000000374,226.748541412574,1.0000000005504,0.553185514010883
15200.0000000378,225.646110003953,1.00000000071611,0.586013355435845
15300.0000000381,224.562509816717,1.00000000065047,0.569577173748656
15400.0000000385,223.478139420836,1.00000000051831,0.539314335870021
15500.0000000389,222.378305347373,1.00000000043164,0.521787569217533
15600.0000000392,221.252270336326,1.00000000042554,0.519610358787268
15700.0000000396,220.114106805796,1.00000000055371,0.550822071410616
15800.0000000399,218.988170527474,1.00000000068607,0.581533287322411
15900.0000000403,217.879508683448,1.00000000066365,0.570473130219891
16000.0000000407,216.780635465644,1.00000000055418,0.536159969022285
16100.000000041,215.672324045494,1.00000000045026,0.51858841287928
16200.0000000414,214.548779088177,1.00000000045052,0.517236990775296
16300.0000000418,213.415851066774,1.00000000050348,0.530384843959701
16400.0000000418,212.286372807793,1.00000000064697,0.564394116077009
16500.0000000404,211.174588666278,1.00000000070007,0.576622787039256
16600.0000000389,210.078933714165,1.00000000062999,0.550710650936692
16700.0000000375,208.987001214059,1.00000000051727,0.521802550966016
16800.000000036,207.891920008273,1.00000000044633,0.514892693561314
16900.0000000346,206.788473359441,1.00000000046276,0.51955784576541
17000.0000000331,205.683884348823,1.00000000050667,0.530451265122937
17100.0000000317,204.585598444048,1.00000000061348,0.551662595345423
17200.0000000302,203.500525036217,1.0000000006671,0.567107587108427
17300.0000000287,202.430954705803,1.00000000068271,0.550507219868911
17400.0000000273,201.368903891577,1.00000000056267,0.522998301615985
17500.0000000258,200.309567074479,1.00000000048792,0.513602908807827
17600.0000000244,199.250061534516,1.00000000049221,0.520356314713093
17700.0000000229,198.191213011121,1.00000000050086,0.526379148916778
17800.0000000215,197.137496536851,1.00000000055149,0.53035032675934
17900.00000002,196.091556891451,1.00000000059376,0.543732833276954
18000.0000000186,195.057296221792,1.0000000006444,0.554007353476327
18100.0000000171,194.034901610086,1.0000000006045,0.541191520597861
18200.0000000156,193.020108799149,1.00000000053289,0.5229471365222
18300.0000000142,192.011839016612,1.00000000050237,0.515947442764823
18400.0000000127,191.007774647128,1.00000000050482,0.523036737070988
18500.0000000113,190.009079830687,1.0000000005268,0.528560309958816
18600.0000000098,189.016143494939,1.00000000053358,0.525770996668845
18700.0000000084,188.029850531949,1.00000000055454,0.527481735196811
18800.0000000069,187.052611499551,1.0000000005813,0.533519612373315
18900.0000000055,186.085142102032,1.00000000062554,0.542410737171936
19000.000000004,185.126575632751,1.00000000059098,0.534987157943721
19100.0000000026,184.176973105973,1.00000000057496,0.525648805271764
19200.0000000011,183.234705399296,1.00000000051786,0.522407039414709
19299.9999999996,182.300781339975,1.00000000052438,0.5296731292125
19399.9999999982,181.373696194379,1.00000000050508,0.530298807292065
19499.9999999967,180.453876827618,1.00000000051057,0.524676454765398
19599.9999999953,179.541567482369,1.00000000052574,0.519723398414526
19699.9999999938,178.637112508669,1.00000000054352,0.522824035806862
19799.9999999924,177.741346544062,1.00000000055575,0.529487330564775
19899.9999999909,176.854365219326,1.00000000057269,0.538654309980526
19999.9999999895,175.975610106881,1.00000000056252,0.538232297993654
20099.999999988,175.105554285587,1.00000000055516,0.531658205612526
20199.9999999865,174.243826150881,1.00000000052549,0.531313453628791
20299.9999999851,173.391144940393,1.00000000053549,0.534973085027654
20399.9999999836,172.546970246902,1.00000000050717,0.532622442666916
20499.9999999822,171.711410078645,1.00000000049234,0.522737190824217
20599.9999999807,170.884469275453,1.00000000049109,0.515401179094888
20699.9999999793,170.066084019527,1.00000000053887,0.51621256957007
20799.9999999778,169.256416036452,1.00000000055296,0.520868573534911
20899.9999999764,168.455212787387,1.00000000059725,0.531025746259678
20999.9999999749,167.661581861964,1.00000000057607,0.541942890555149
21099.9999999734,166.87589042603,1.00000000057529,0.542503664405092
21199.999999972,166.097992965233,1.00000000055473,0.535311387088243
21299.9999999705,165.328124109501,1.00000000058184,0.538915083477977
21399.9999999691,164.566267778509,1.00000000058143,0.542050664975476
21499.9999999676,163.813416194768,1.0000000005207,0.535098952951154
21599.9999999662,163.070564544852,1.00000000047591,0.522613573117758
21699.9999999647,162.338263266993,1.00000000044312,0.507081067212324
21799.9999999633,161.616452096001,1.00000000049651,0.506289956179064
21899.9999999618,160.903847236155,1.0000000005537,0.514828681453455
21999.9999999603,160.1990272221,1.00000000057973,0.523996926363182
22099.9999999589,159.50105277666,1.00000000060313,0.528361024756663
22199.9999999574,158.809636177019,1.00000000055918,0.537020281429114
22299.999999956,158.124975239477,1.00000000055713,0.54237127380263
22399.9999999545,157.447172802275,1.00000000054374,0.538540543896993
22499.9999999531,156.77540375329,1.00000000060285,0.544554955900372
22599.9999999516,156.109107272209,1.00000000060879,0.548779565445324
22699.9999999502,155.449967530274,1.00000000054986,0.537757123528545
22799.9999999487,154.801048599566,1.00000000048326,0.523633370332142
22899.9999999473,154.164592010873,1.00000000042402,0.508337322023243
22999.9999999458,153.541557362919,1.00000000044028,0.49741159882857
23099.9999999443,152.929576080971,1.00000000052227,0.501441815948719
23199.9999999429,152.326080806166,1.00000000057929,0.513315607507984
23299.9999999414,151.728287654703,1.00000000059228,0.521689828477219
23399.99999994,151.136003053214,1.00000000058284,0.517169538308787
23499.9999999385,150.549046227475,1.00000000053898,0.525923653854919
23599.9999999371,149.966951632678,1.00000000054527,0.539750871072244
23699.9999999356,149.389288628971,1.00000000057064,0.544891683467292
23799.9999999342,148.815382446025,1.0000000005646,0.545340978638794
23899.9999999327,148.2446798177,1.00000000060984,0.547787750623482
23999.9999999312,147.677774256405,1.00000000060641,0.545828165502225
24099.9999999298,147.117332187569,1.000000000555,0.532097758098903
24199.9999999283,146.566989407286,1.00000000047716,0.516307024321194
24299.9999999269,146.030558682753,1.00000000043617,0.506913686563298
24399.9999999254,145.508030143311,1.00000000044449,0.501628307139279
24499.999999924,144.997875796735,1.00000000050304,0.497029017635652
24599.9999999225,144.496741787961,1.00000000054494,0.502527045581639
24699.9999999211,144.00200487706,1.00000000059286,0.511012332656221
24799.9999999196,143.511512881282,1.00000000056763,0.517026077290484
24899.9999999181,143.024597521063,1.00000000058331,0.513296436074389
24999.9999999167,142.540881575195,1.00000000057844,0.52147191544967
25099.9999999152,142.059170674185,1.00000000056952,0.534975381705534
25199.9999999138,141.57891162521,1.00000000059963,0.545853757847871
25299.9999999123,141.099856923474,1.00000000059794,0.546588554987371
25399.9999999109,140.622700194683,1.00000000058897,0.543100322802025
25499.9999999094,140.148278237568,1.00000000060404,0.541035489252789
25599.999999908,139.677996968949,1.00000000055354,0.536156806960961
25699.9999999065,139.214696630658,1.00000000054363,0.525877214604993
25799.9999999051,138.761496898592,1.00000000051012,0.514590195209413
25899.9999999036,138.320198275074,1.00000000045576,0.510274765097667
25999.9999999021,137.892119767654,1.00000000046028,0.506948964304097
26099.9999999007,137.47598846532,1.00000000049756,0.503040922853512
26199.9999998992,137.07031219703,1.00000000051822,0.497462039748462
26299.9999998978,136.673443543778,1.00000000054956,0.502974942359733
26399.9999998963,136.281862452153,1.00000000056484,0.510506253300698
26499.9999998949,135.893399164399,1.00000000058064,0.516996744893974
26599.9999998934,135.506261966817,1.00000000057325,0.520944566826034
26699.999999892,135.118932092059,1.00000000061816,0.524135463778169
26799.9999998905,134.731215533401,1.00000000058335,0.53201859281786
26899.999999889,134.342658018501,1.0000000006025,0.540188573352904
26999.9999998876,133.95364706668,1.00000000060517,0.544763898297099
27099.9999998861,133.565745737569,1.00000000056466,0.54107018600715
27199.9999998847,133.180951992148,1.00000000054371,0.536736008447872
27299.9999998832,132.799936036111,1.00000000054834,0.535733795397866
27399.9999998818,132.423073219334,1.00000000057087,0.532987057547853
27499.9999998803,132.051698744592,1.00000000055838,0.528342883655824
27599.9999998789,131.68717107808,1.00000000054783,0.524585261461653
27699.9999998774,131.33084503144,1.00000000051448,0.517917032896561
27799.9999998759,130.986255152066,1.00000000046066,0.511413593518285
27899.9999998745,130.653755078654,1.00000000046369,0.5100206481856
27999.999999873,130.33307598617,1.0000000004894,0.504482968837096
28099.9999998716,130.022700812474,1.00000000050178,0.502716891826329
28199.9999998701,129.720775958397,1.00000000050818,0.507776861264667
28299.9999998687,129.424914143015,1.00000000055417,0.516415835844218
28399.9999998672,129.13071536331,1.00000000058307,0.523025317625774
28499.9999998658,128.837116610825,1.00000000057354,0.530386265101793
28599.9999998643,128.541780252632,1.00000000062632,0.535385967528077
28699.9999998629,128.244197711445,1.00000000058383,0.531385504886913
28799.9999998614,127.944727774344,1.00000000059536,0.535896387982174
28899.9999998599,127.64343170199,1.00000000057164,0.538904224370821
