Time,AGPnorm,Energy,Entropy
0,0,1,-7.30610059048656e-17
99.9999999999986,0.000617015504722712,1.00000000000344,0.00214180740921793
199.999999999993,0.00388515542267118,1.00000000000187,0.00645470756352277
300,0.00811603647677521,0.999999999998094,0.0118751453605776
400.000000000022,0.0126340251227583,0.999999999998484,0.0184538094928434
500.000000000045,0.0177246117185309,1.00000000000209,0.0266342542203819
600.000000000068,0.0245234030211425,1.00000000000304,0.0362267326732739
700.000000000091,0.0318828509576017,0.999999999999622,0.0465980810307991
800.000000000113,0.0405556285354954,0.999999999998009,0.0576056741174624
900.000000000136,0.04894896729525,1.00000000000042,0.0698725475442211
1000.00000000016,0.0581111618519344,1.00000000000298,0.0836433695832254
1100.0000000001,0.0681349195585751,1.00000000000122,0.0987644580705019
1200,0.0782703206290924,0.999999999998608,0.11486630255359
1299.99999999991,0.08849261173458,0.999999999999592,0.132736385272212
1399.99999999982,0.0985196282712782,1.0000000000027,0.15310367415727
1499.99999999973,0.108956344341706,1.00000000000561,0.17668569259696
1599.99999999964,0.120069422472157,1.00000000001157,0.203333528872503
1699.99999999955,0.13379001228296,1.00000000003291,0.233255335337804
1799.99999999946,0.146000964420927,1.00000000007481,0.266063520417544
1899.99999999937,0.163776198325663,1.00000000014031,0.299813171557678
1999.99999999928,0.219960821809293,1.00000000020966,0.332300996597277
2099.99999999919,0.348422769029512,1.00000000030335,0.361978276930901
2199.99999999909,0.564009863956716,1.00000000038297,0.388861944731049
2299.999999999,0.910426943280982,1.00000000046525,0.413271615781051
2399.99999999891,1.48632171602192,1.00000000054116,0.435070705584006
2499.99999999882,2.37500149250143,1.0000000006296,0.453802207277686
2599.99999999873,3.59320831370317,1.00000000069539,0.470185592200519
2699.99999999864,5.1585455910539,1.000000000704,0.485101170379862
2799.99999999855,7.13805177857121,1.00000000075585,0.497966916704919
2899.99999999846,9.5965666018027,1.00000000079534,0.5087720528673
2999.99999999837,12.5187856761384,1.00000000082748,0.51759953124352
3099.99999999828,15.8552614349296,1.00000000078226,0.525810266273796
3199.99999999819,19.5961383053153,1.00000000082738,0.533009777902812
3299.99999999809,23.7535027472123,1.00000000080301,0.538533903631674
3399.999999998,28.2928357644299,1.00000000085247,0.542491125371564
3499.99999999791,33.1393180397965,1.00000000084898,0.546297445501503
3599.99999999782,38.2283076853489,1.00000000085992,0.549913076985401
3699.99999999773,43.5298776862448,1.00000000085431,0.552274798031723
3799.99999999764,49.0142967363077,1.00000000081843,0.55270921805668
3899.99999999755,54.6159584806195,1.00000000081015,0.554354189144739
3999.99999999746,60.2588606489457,1.00000000078049,0.555998064423673
4099.99999999738,65.8999340354443,1.0000000007995,0.555351036731016
4199.99999999775,71.5151973635209,1.0000000007595,0.554441520079342
4299.99999999811,77.0618980389849,1.00000000075107,0.555220519929653
4399.99999999848,82.4897138001769,1.00000000074872,0.553527643494387
4499.99999999884,87.7598895169217,1.00000000074218,0.552649906974453
4599.9999999992,92.8457206335019,1.00000000071097,0.551672654031886
4699.99999999957,97.7338727851699,1.00000000068386,0.549844136823233
4799.99999999993,102.396656211986,1.00000000069526,0.548791376482546
4900.00000000029,106.812199746149,1.00000000068349,0.547262550945058
5000.00000000066,110.961015942948,1.00000000066361,0.54562382929632
5100.00000000102,114.840950184285,1.00000000064012,0.54430023026736
5200.00000000139,118.447488820402,1.00000000061638,0.543799259905347
5300.00000000175,121.775410297203,1.00000000062282,0.540703791051652
5400.00000000211,124.814011773447,1.00000000058542,0.540054820232987
5500.00000000248,127.566968962474,1.00000000057315,0.539941763189294
5600.00000000284,130.03879045622,1.00000000058341,0.535903651099183
5700.00000000321,132.230698802656,1.0000000005476,0.532218565777489
5800.00000000357,134.14805712109,1.00000000051787,0.536570926826108
5900.00000000393,135.804230213278,1.00000000050725,0.537695461709165
6000.0000000043,137.20133474017,1.00000000049812,0.526614867470437
6100.00000000466,138.333612944758,1.00000000048365,0.523390805286354
6200.00000000502,139.226590995242,1.00000000051798,0.537400730099071
6300.00000000539,139.92160894205,1.00000000051576,0.541951680074352
6400.00000000575,140.412119194431,1.00000000045714,0.520059055457596
6500.00000000612,140.663289525882,1.00000000039634,0.507140410863241
6600.00000000648,140.704462554042,1.00000000044978,0.531710109873546
6700.00000000684,140.621485335667,1.00000000052796,0.552721181626603
6800.00000000721,140.437168929606,1.00000000050608,0.534721241866301
6900.00000000757,140.08835090649,1.00000000035498,0.492169247521189
7000.00000000793,139.537899353104,1.00000000034023,0.493578141079284
7100.0000000083,138.86392968142,1.00000000050427,0.540248475712641
7200.00000000866,138.167965031536,1.00000000061534,0.563496005849215
7300.00000000903,137.458219640376,1.00000000052851,0.537693981973583
7400.00000000939,136.650329681994,1.00000000033577,0.475281760863434
7500.00000000975,135.682246632115,1.00000000027822,0.457784090901592
7600.00000001012,134.610459436577,1.00000000045709,0.51463378433628
7700.00000001048,133.542061048163,1.00000000061603,0.561665515405365
7800.00000001084,132.526995203855,1.00000000064861,0.564041563828605
7900.00000001121,131.527491090323,1.00000000049051,0.514880652418812
8000.00000001157,130.45428354599,1.00000000028566,0.437649095470984
8100.00000001194,129.266611161754,1.00000000024229,0.422424097828193
8200.0000000123,128.01785246814,1.00000000042914,0.491845555891001
8300.00000001266,126.787936666693,1.00000000067129,0.550857797812847
8400.00000001303,125.624649928945,1.00000000070877,0.56579001009512
8500.00000001339,124.521293287297,1.00000000063963,0.543227347882042
8600.00000001376,123.42235511201,1.00000000043734,0.47246993173839
8700.00000001412,122.269493051106,1.00000000024423,0.393864145740237
8800.00000001448,121.052252716349,1.00000000025356,0.393141286734365
8900.00000001485,119.808867891588,1.00000000045724,0.466928342058849
9000.00000001521,118.58689078282,1.00000000063757,0.530667320704745
9100.00000001557,117.417004119706,1.00000000069539,0.552385002403646
9200.00000001594,116.30528378452,1.00000000067199,0.549322242795254
9300.0000000163,115.232100687178,1.00000000056858,0.517390121436052
9400.00000001667,114.160642127986,1.00000000041025,0.449280420162495
9500.00000001703,113.064917348359,1.00000000026609,0.383655284859021
9600.00000001739,111.946810932,1.00000000026142,0.376551985661118
9700.00000001776,110.824637344295,1.00000000038058,0.425989247710845
9800.00000001812,109.715453916971,1.00000000055491,0.49189536753807
9900.00000001848,108.631819749809,1.00000000065884,0.527874516493824
10000.0000000188,107.582466040864,1.00000000065416,0.537711593366989
10100.0000000192,106.568577494978,1.00000000063321,0.53878833665115
10200.0000000196,105.581436643088,1.00000000054905,0.517196144708942
10300.0000000199,104.606515465834,1.00000000043864,0.470282942546071
10400.0000000203,103.634452864389,1.00000000036255,0.419363654745967
10500.0000000207,102.668065528,1.00000000030936,0.389481948645201
10600.000000021,101.715771437525,1.00000000032235,0.398958617156756
10700.0000000214,100.781358797764,1.00000000040871,0.432602694267953
10800.0000000218,99.8635094996761,1.00000000048375,0.476551806778919
10900.0000000221,98.9605002072706,1.00000000055175,0.507004889449875
11000.0000000225,98.0712686736338,1.00000000057005,0.513956195153272
11100.0000000229,97.1958035297879,1.00000000063613,0.521332945693585
11200.0000000232,96.335355849441,1.00000000063331,0.535109774721705
11300.0000000236,95.4910264611273,1.00000000057148,0.530072565333148
11400.0000000239,94.6619681467125,1.00000000045133,0.49257090603685
11500.0000000243,93.8491757083793,1.00000000032559,0.445277598031864
11600.0000000247,93.0581236107028,1.00000000032094,0.412568070875507
11700.000000025,92.2935100745068,1.00000000038027,0.406564817887739
11800.0000000254,91.5560986531917,1.00000000042231,0.420893526136345
11900.0000000258,90.8422327016075,1.00000000045676,0.450492953343752
12000.0000000261,90.1452995745765,1.00000000048418,0.471290409766112
12100.0000000265,89.46032466578,1.00000000051032,0.48959077573449
12200.0000000269,88.7865989662273,1.00000000044034,0.497845182114945
12300.0000000272,88.1248287470099,1.00000000042155,0.493908440257853
12400.0000000276,87.470596897955,1.00000000051545,0.497972492703456
12500.0000000279,86.8155735946037,1.00000000067599,0.516794322359986
12600.0000000283,86.1574261202899,1.00000000069395,0.536028612255714
12700.0000000287,85.5014478800271,1.00000000063849,0.537282169466652
12800.000000029,84.8552445276904,1.00000000048412,0.510335562567826
12900.0000000294,84.2287458211848,1.00000000036546,0.464631710887017
13000.0000000298,83.6337744398059,1.0000000002895,0.426666018103315
13100.0000000301,83.0765176733618,1.00000000032796,0.408867400051065
13200.0000000305,82.5526430067288,1.00000000041847,0.415223950666308
13300.0000000309,82.0524216437585,1.00000000047956,0.432478839677932
13400.0000000312,81.5670484344867,1.00000000052002,0.45730276749226
13500.0000000316,81.0904328451302,1.00000000052305,0.479681554695351
13600.0000000319,80.6185398952255,1.00000000051088,0.490458380879737
13700.0000000323,80.1517053304909,1.00000000050778,0.496534081241618
13800.0000000327,79.6932814462482,1.00000000047458,0.498725658979884
13900.000000033,79.2465845679877,1.00000000041544,0.498304028715686
14000.0000000334,78.8105947029995,1.00000000044614,0.496249473867318
14100.0000000338,78.3777337465002,1.00000000050705,0.49736833704048
14200.0000000341,77.937603902338,1.00000000062137,0.506714953677591
14300.0000000345,77.4839752851171,1.00000000067172,0.519666576249898
14400.0000000349,77.017893575988,1.00000000062062,0.532452377592201
14500.0000000352,76.5468260810421,1.00000000057223,0.535566850156192
14600.0000000356,76.0811246035935,1.00000000049451,0.519617955970592
14700.0000000359,75.6321365776089,1.00000000042876,0.490546053203291
14800.0000000363,75.2107033770559,1.00000000036787,0.455833155262505
14900.0000000367,74.8257513620654,1.00000000031727,0.435332051329208
15000.000000037,74.4806453639263,1.00000000034992,0.427277813010261
15100.0000000374,74.1708777886092,1.00000000037892,0.425468925764522
15200.0000000378,73.8850829038916,1.00000000046268,0.438129214681088
15300.0000000381,73.6114902043626,1.00000000051163,0.463019655762239
15400.0000000385,73.3428835503473,1.00000000047651,0.475415087609559
15500.0000000389,73.0793524241557,1.00000000047954,0.481631949386389
15600.0000000392,72.823085856512,1.00000000046478,0.48622071246405
15700.0000000396,72.5714645489559,1.00000000048556,0.494601072543842
15800.0000000399,72.3193173501365,1.00000000053417,0.508789383569481
15900.0000000403,72.0600789328529,1.0000000005313,0.523151449645775
16000.0000000407,71.792971625621,1.00000000050044,0.529814010024503
16100.000000041,71.5219251553824,1.00000000046602,0.53440539453979
16200.0000000414,71.2523999368815,1.00000000043043,0.531199429234702
16300.0000000418,70.9857803257631,1.00000000042481,0.521833090886171
16400.0000000418,70.7215191361337,1.00000000046859,0.510236428539855
16500.0000000404,70.4558380224639,1.00000000049903,0.499883097840712
16600.0000000389,70.1843055631945,1.00000000055897,0.504408120790256
16700.0000000375,69.9012002511502,1.00000000061939,0.520449743396641
16800.000000036,69.6037468222626,1.00000000062865,0.538979009051027
16900.0000000346,69.2955845835543,1.00000000058957,0.546845053541704
17000.0000000331,68.9854048272014,1.00000000051791,0.540315508574838
17100.0000000317,68.6855726884437,1.0000000004442,0.517956458467825
17200.0000000302,68.4093915688686,1.0000000003747,0.491221122959519
17300.0000000287,68.16723250787,1.00000000033526,0.464224568323704
17400.0000000273,67.9627595817901,1.00000000034777,0.449302521330603
17500.0000000258,67.793520321719,1.00000000037196,0.4436947082612
17600.0000000244,67.6531329220616,1.00000000041184,0.447680372651641
17700.0000000229,67.5334579635954,1.00000000046746,0.453249070549539
17800.0000000215,67.4255952258518,1.00000000046531,0.457819993285851
17900.00000002,67.3220111999137,1.00000000053091,0.467894698399485
18000.0000000186,67.2177998032482,1.0000000005207,0.482764264172189
18100.0000000171,67.1119131770057,1.00000000053623,0.49605772731811
18200.0000000156,67.0084917677886,1.00000000046061,0.501614105300497
18300.0000000142,66.9148709749568,1.00000000042269,0.501992215922341
18400.0000000127,66.8363973151363,1.00000000039257,0.501359801777615
18500.0000000113,66.7701741028799,1.00000000043452,0.506301008637917
18600.0000000098,66.7063462210233,1.00000000049,0.517605975793466
18700.0000000084,66.632258792597,1.00000000053809,0.527938422083704
18800.0000000069,66.5377070249441,1.00000000056724,0.533578352550205
18900.0000000055,66.4175942442964,1.00000000058131,0.538915455457625
19000.000000004,66.2736173798759,1.00000000059231,0.541178160065281
19100.0000000026,66.1122827468963,1.00000000054698,0.546246935169524
19200.0000000011,65.9426427683763,1.0000000004975,0.550565096148635
19299.9999999996,65.7723560771726,1.00000000044817,0.546323526960772
19399.9999999982,65.6065099310902,1.00000000040752,0.536502695773477
19499.9999999967,65.4484845263682,1.00000000040648,0.52968876195262
19599.9999999953,65.2968481425891,1.00000000041458,0.528854829297741
19699.9999999938,65.1471729698764,1.00000000046714,0.527540834062105
19799.9999999924,64.9940804827518,1.00000000052474,0.523714082379402
19899.9999999909,64.8333391863549,1.0000000005792,0.52549618367636
19999.9999999895,64.6629115960309,1.00000000060754,0.531506195136704
20099.999999988,64.4804950982572,1.00000000060323,0.540110751472492
20199.9999999865,64.2860407392603,1.00000000060017,0.549521747824499
20299.9999999851,64.0829531152957,1.00000000057991,0.555211303081844
20399.9999999836,63.8791298772577,1.00000000054497,0.551020986420692
20499.9999999822,63.6842972385115,1.00000000044218,0.53772023033074
20599.9999999807,63.5083547322149,1.00000000037846,0.515758785303942
20699.9999999793,63.359153669509,1.00000000036038,0.49403114154494
20799.9999999778,63.2412630730202,1.0000000003484,0.480234708350425
20899.9999999764,63.1558446662633,1.00000000035991,0.467065900483872
20999.9999999749,63.1012296488586,1.00000000040448,0.465781829034741
21099.9999999734,63.07309160986,1.00000000040942,0.467191639076985
21199.999999972,63.0641727546471,1.00000000044934,0.465791020083982
21299.9999999705,63.0674191356635,1.000000000483,0.465825435986131
21399.9999999691,63.0754420138087,1.00000000050329,0.468882383135682
21499.9999999676,63.0842012878885,1.00000000052046,0.473667759095019
21599.9999999662,63.0954101106242,1.00000000047955,0.473656013692562
21699.9999999647,63.1132736135779,1.00000000043782,0.472304545176474
21799.9999999633,63.1408521748121,1.00000000043419,0.480251795834507
21899.9999999618,63.1749291932563,1.00000000045791,0.496377821119479
21999.9999999603,63.2095620440331,1.00000000048638,0.511673988297022
22099.9999999589,63.2380109963363,1.00000000053804,0.521553091467978
22199.9999999574,63.2558518810004,1.00000000054932,0.532685884513198
22299.999999956,63.2626875356839,1.00000000051456,0.541784715433036
22399.9999999545,63.2618926344307,1.00000000048936,0.546890068118819
22499.9999999531,63.2586163113552,1.00000000048103,0.54673121776119
22599.9999999516,63.254901697853,1.00000000047086,0.544167510442827
22699.9999999502,63.2501184455546,1.00000000046544,0.546951592026832
22799.9999999487,63.2431685736589,1.00000000045567,0.554413675077428
22899.9999999473,63.2326058796302,1.0000000004635,0.557619956490081
22999.9999999458,63.2152472141662,1.0000000004736,0.555302741067167
23099.9999999443,63.187882190369,1.00000000049816,0.553224610151749
23199.9999999429,63.1481261972712,1.00000000050751,0.551306908538009
23299.9999999414,63.0945434221296,1.00000000054131,0.551414615227023
23399.99999994,63.0263406673337,1.00000000054645,0.545932874208735
23499.9999999385,62.9443825519337,1.00000000053769,0.535711043026095
23599.9999999371,62.8510165962562,1.00000000052777,0.534765883212048
23699.9999999356,62.7491940878494,1.00000000052124,0.544139309495233
23799.9999999342,62.6410579185839,1.00000000052603,0.552717381001838
23899.9999999327,62.5275994132259,1.00000000051723,0.558854214265682
23999.9999999312,62.4109239772506,1.00000000049944,0.560831152383727
24099.9999999298,62.2938702455143,1.00000000045535,0.556651574427238
24199.9999999283,62.1798272419968,1.00000000042454,0.552321677946179
24299.9999999269,62.0710150611853,1.00000000042328,0.552934661017437
24399.9999999254,61.9667139825198,1.00000000045435,0.555589309928945
24499.999999924,61.8643362801651,1.00000000046422,0.554446695699048
24599.9999999225,61.7616738156391,1.00000000046834,0.552758506196283
24699.9999999211,61.6568941902593,1.00000000048297,0.554680842323854
24799.9999999196,61.5486737824223,1.00000000052908,0.55355136689455
24899.9999999181,61.4357080052247,1.00000000054662,0.549603262069873
24999.9999999167,61.3161053521682,1.00000000053672,0.544038066956128
25099.9999999152,61.1889929027027,1.00000000057993,0.541983230581526
25199.9999999138,61.0539694139808,1.00000000061796,0.546294836123969
25299.9999999123,60.9112266505895,1.00000000062134,0.549859774029252
25399.9999999109,60.7633842351504,1.00000000056927,0.552147952527451
25499.9999999094,60.6154910816884,1.00000000050065,0.551612280186605
25599.999999908,60.4741248378715,1.00000000046783,0.546650702092015
25699.9999999065,60.3459886780736,1.00000000041651,0.534856938959094
25799.9999999051,60.2370486640312,1.00000000038993,0.519951441415682
25899.9999999036,60.1516407025281,1.00000000036041,0.509400848056889
25999.9999999021,60.0928260668863,1.00000000036282,0.500960586883036
26099.9999999007,60.0612836151656,1.00000000037101,0.491815035727715
26199.9999998992,60.0560715467627,1.00000000042712,0.485918376027971
26299.9999998978,60.0739556303073,1.00000000040353,0.480410050496304
26399.9999998963,60.1118186841485,1.00000000043231,0.477671978957521
26499.9999998949,60.1657090413092,1.00000000045475,0.478709199756642
26599.9999998934,60.2287296595663,1.00000000047655,0.480515996876959
26699.999999892,60.2959846121593,1.00000000052478,0.486712944982711
26799.9999998905,60.3661904093701,1.00000000051406,0.489835722437857
26899.999999889,60.4407005013528,1.00000000047908,0.486872089347631
26999.9999998876,60.5217728420839,1.00000000044157,0.481472532116861
27099.9999998861,60.6088139804439,1.00000000046054,0.484176454268806
27199.9999998847,60.6989951567343,1.00000000047745,0.492160357256989
27299.9999998832,60.7904517254044,1.00000000046304,0.502600802521971
27399.9999998818,60.8825486910075,1.00000000044189,0.510598216294825
27499.9999998803,60.9745176626662,1.00000000047169,0.520360247568204
27599.9999998789,61.0647791998821,1.0000000005043,0.529239922948617
27699.9999998774,61.1513972887661,1.00000000051387,0.536948670373833
27799.9999998759,61.2328370673562,1.00000000050738,0.54438601483852
27899.9999998745,61.3083769593408,1.00000000050667,0.552864710024828
27999.999999873,61.3785428140146,1.00000000051229,0.559795506782267
28099.9999998716,61.4428199559604,1.00000000052152,0.565348730965911
28199.9999998701,61.5004162145485,1.00000000050758,0.568353113273042
28299.9999998687,61.5493693068306,1.00000000049405,0.566693356252819
28399.9999998672,61.5889744015041,1.00000000051084,0.565004407487064
28499.9999998658,61.6191153507248,1.00000000052937,0.567541305991957
28599.9999998643,61.639652246145,1.00000000053778,0.571729558738737
28699.9999998629,61.6515109708386,1.00000000051708,0.572106624856417
28799.9999998614,61.656577741544,1.00000000049075,0.576259038489548
28899.9999998599,61.6579452396982,1.00000000047528,0.579000747296695
28999.9999998585,61.6587000597851,1.00000000047138,0.572308524428251
