Time,AGPnorm,Energy,Entropy
0,0,1,-1.39549267072437e-17
99.9999999999986,2.08236189417086e-05,1.00000000000134,0.000900436581106933
199.999999999993,0.00181661867415875,0.999999999999403,0.00143406127699167
300,0.00454694768769137,1.00000000000108,0.00255886234228254
400.000000000022,0.006291972062722,1.00000000000047,0.00433980682115489
500.000000000045,0.00770525909664711,0.999999999999673,0.00588316303345409
600.000000000068,0.0110260860958016,1.0000000000015,0.0081817807958089
700.000000000091,0.0137013421931109,0.999999999999479,0.0104736938052894
800.000000000113,0.0175526224093211,1.00000000000082,0.0129666834067523
900.000000000136,0.0219578394698274,1.00000000000081,0.0158873102074739
1000.00000000016,0.0256606357029462,0.999999999999388,0.0187331000854265
1100.0000000001,0.030676865946919,1.00000000000156,0.0219753551000447
1200,0.0359774183954054,0.999999999999697,0.0253338820734315
1299.99999999991,0.0415114778164397,1.00000000000046,0.0288362077987338
1399.99999999982,0.0476123601168846,1.00000000000114,0.0326203171349458
1499.99999999973,0.0535314987158129,0.999999999999212,0.0364460911886078
1599.99999999964,0.0601845473365135,1.0000000000015,0.0405431023306644
1699.99999999955,0.0672877933448137,1.00000000000001,0.044794954378751
1799.99999999946,0.0742462125490933,1.00000000000005,0.0492133604574112
1899.99999999937,0.0816575789328489,1.00000000000142,0.053832306520638
1999.99999999928,0.089348571925327,0.999999999999185,0.0585824593519434
2099.99999999919,0.0972645043147527,1.00000000000129,0.0635931119893565
2199.99999999909,0.105554806087615,1.00000000000037,0.0687644992310413
2299.999999999,0.113649896909973,0.999999999999668,0.0741579530958006
2399.99999999891,0.121981732067029,1.00000000000162,0.0797595064759251
2499.99999999882,0.130803406590345,0.999999999999311,0.0855669282355803
2599.99999999873,0.1395011901874,1.00000000000093,0.0916957597907695
2699.99999999864,0.148438635934277,1.00000000000076,0.0980203635524995
2799.99999999855,0.157343298037554,0.999999999999395,0.104668606879997
2899.99999999846,0.166201202628023,1.0000000000017,0.111633704889858
2999.99999999837,0.1754788379145,0.999999999999601,0.118925414934492
3099.99999999828,0.184493753784855,1.00000000000057,0.126700475636878
3199.99999999819,0.193623085445794,1.00000000000123,0.134858732362077
3299.99999999809,0.202849361969447,0.999999999999491,0.143595262008574
3399.999999998,0.211938166531567,1.00000000000216,0.152986242654857
3499.99999999791,0.221056466283517,1.00000000000125,0.163060940558366
3599.99999999782,0.230084262278677,1.00000000000334,0.174032778854811
3699.99999999773,0.239424326029336,1.00000000000777,0.185827690134566
3799.99999999764,0.247870069625398,1.00000000001161,0.198483468233424
3899.99999999755,0.258275569192097,1.00000000002296,0.211891973326257
3999.99999999746,0.267466699391559,1.0000000000343,0.225725284988445
4099.99999999738,0.278062438373872,1.00000000004817,0.23992426103545
4199.99999999775,0.294841837167144,1.00000000007124,0.254132178357072
4299.99999999811,0.309804149984101,1.00000000009495,0.26823565068538
4399.99999999848,0.33957868449775,1.00000000011759,0.282254092200446
4499.99999999884,0.378821083270358,1.00000000014703,0.295832256301553
4599.9999999992,0.433071083720981,1.00000000017211,0.309269816365025
4699.99999999957,0.522166606581327,1.00000000019941,0.322313145871702
4799.99999999993,0.634042560191663,1.00000000023343,0.334942944716964
4900.00000000029,0.797827770524783,1.00000000027314,0.347311588518869
5000.00000000066,1.01802947029211,1.00000000029507,0.359156741972712
5100.00000000102,1.29911074498917,1.00000000030916,0.37085836708413
5200.00000000139,1.67230245305114,1.00000000035918,0.381948551412909
5300.00000000175,2.1326921114869,1.00000000037929,0.392597502881136
5400.00000000211,2.70620930429952,1.00000000040457,0.40309605084011
5500.00000000248,3.40760129395312,1.00000000045196,0.412825293997558
5600.00000000284,4.24180049590544,1.00000000044832,0.422533274477451
5700.00000000321,5.23322709488036,1.00000000047042,0.431769887421837
5800.00000000357,6.38871652051914,1.00000000050114,0.440279483582654
5900.00000000393,7.72222869083217,1.00000000050226,0.448917937691252
6000.0000000043,9.24493838112878,1.00000000055211,0.456738489323225
6100.00000000466,10.9696557505464,1.00000000055262,0.464372959721708
6200.00000000502,12.8991664579408,1.00000000055595,0.47176683984738
6300.00000000539,15.0458791168107,1.00000000058971,0.478410911077443
6400.00000000575,17.4184276331309,1.00000000059563,0.485108144436712
6500.00000000612,20.0077981918294,1.00000000061193,0.491318259627464
6600.00000000648,22.8382012042362,1.00000000063419,0.497008369674648
6700.00000000684,25.8931534594637,1.00000000060923,0.502874959000978
6800.00000000721,29.1762517182744,1.00000000065989,0.507844967443312
6900.00000000757,32.7040898302647,1.00000000065234,0.512831873897321
7000.00000000793,36.4407054943959,1.00000000066464,0.517655928241847
7100.0000000083,40.4166292730409,1.000000000638,0.521936240399202
7200.00000000866,44.6099524452517,1.00000000065593,0.526234814661895
7300.00000000903,49.0031153521557,1.0000000006507,0.530159899572341
7400.00000000939,53.6277560734522,1.00000000063619,0.533699984341406
7500.00000000975,58.4284993008864,1.00000000065031,0.537326285618528
7600.00000001012,63.4299023655176,1.0000000006347,0.540287632442826
7700.00000001048,68.6204527646587,1.00000000064491,0.543376290369234
7800.00000001084,73.9584442585217,1.0000000006415,0.546361104793194
7900.00000001121,79.4867297255622,1.00000000065352,0.548539265677041
8000.00000001157,85.1454283219871,1.00000000066104,0.551298484200249
8100.00000001194,90.9431437028168,1.00000000068606,0.553367825272142
8200.0000000123,96.8866531314432,1.00000000065535,0.555471832812189
8300.00000001266,102.916065075942,1.00000000064007,0.557659553252327
8400.00000001303,109.076615630267,1.00000000061116,0.559171574057432
8500.00000001339,115.318558732151,1.0000000006541,0.560942764542017
8600.00000001376,121.629151296295,1.00000000065673,0.562505215652084
8700.00000001412,128.034716511967,1.00000000067381,0.563410760483308
8800.00000001448,134.466325613245,1.00000000063701,0.565101551646887
8900.00000001485,140.962350537583,1.00000000062408,0.566044500143995
9000.00000001521,147.49185564652,1.00000000062363,0.567106937045745
9100.00000001557,154.022905780753,1.0000000006002,0.568349577462505
9200.00000001594,160.595094241353,1.00000000060851,0.568682307968724
9300.0000000163,167.142123610018,1.00000000060115,0.569778190095005
9400.00000001667,173.688734252755,1.00000000061813,0.570216703823984
9500.00000001703,180.224424786704,1.00000000062132,0.57051089030335
9600.00000001739,186.705905902148,1.00000000059596,0.571678441217665
9700.00000001776,193.17541767077,1.00000000058805,0.5713682198594
9800.00000001812,199.579384198451,1.00000000057958,0.572363162957541
9900.00000001848,205.927482716852,1.00000000057806,0.572482832126116
10000.0000000188,212.226019718987,1.00000000057464,0.572533289496629
10100.0000000192,218.428422118854,1.00000000058065,0.572940307426999
10200.0000000196,224.57143908478,1.00000000057295,0.572757194515472
10300.0000000199,230.620055972419,1.00000000055544,0.573370416150643
10400.0000000203,236.568212645009,1.00000000053022,0.573174331807909
10500.0000000207,242.434754989115,1.00000000056211,0.573386405993678
10600.000000021,248.175857008181,1.00000000054652,0.573223774747241
10700.0000000214,253.820652386166,1.00000000054495,0.57301195555822
10800.0000000218,259.350424056902,1.00000000054439,0.573374872937818
10900.0000000221,264.749061257239,1.00000000051452,0.572603484458193
11000.0000000225,270.041580452979,1.00000000054883,0.572735718455117
11100.0000000229,275.191564982561,1.0000000005326,0.572704748073253
11200.0000000232,280.217975894891,1.00000000050345,0.571803547203758
11300.0000000236,285.114516817281,1.00000000051455,0.572517525426135
11400.0000000239,289.862723194928,1.00000000051527,0.57147824133373
11500.0000000243,294.485873539847,1.00000000049198,0.571107241209257
11600.0000000247,298.956425646418,1.00000000050082,0.571838553875108
11700.000000025,303.289071642469,1.00000000049718,0.570339807739071
11800.0000000254,307.481416899981,1.00000000046898,0.570353873477856
11900.0000000258,311.516565369915,1.00000000048191,0.570662822522553
12000.0000000261,315.41874489391,1.00000000046776,0.569071274515706
12100.0000000265,319.164416422387,1.00000000046192,0.569704228893332
12200.0000000269,322.764678513828,1.00000000045419,0.569184108464051
12300.0000000272,326.224351983252,1.00000000044887,0.568046339092166
12400.0000000276,329.522396424361,1.00000000044589,0.568917811747464
12500.0000000279,332.686180346917,1.00000000045178,0.567869894421487
12600.0000000283,335.696971835391,1.00000000043957,0.567269012783848
12700.0000000287,338.559610192917,1.00000000044295,0.567389409645673
12800.000000029,341.28587658754,1.00000000043399,0.566221215338353
12900.0000000294,343.855761553691,1.0000000004198,0.566653014523766
13000.0000000298,346.292223712448,1.00000000042182,0.566713654729484
13100.0000000301,348.586157864823,1.00000000042049,0.565007559242197
13200.0000000305,350.733323188107,1.00000000041229,0.564724836081938
13300.0000000309,352.751079185802,1.00000000040822,0.565339500642559
13400.0000000312,354.625361651158,1.00000000038996,0.565630312876563
13500.0000000316,356.370883292726,1.0000000004008,0.564041652934859
13600.0000000319,357.983943384436,1.00000000039523,0.562949683796544
13700.0000000323,359.460744477899,1.00000000037465,0.563024881772037
13800.0000000327,360.816390962807,1.00000000038856,0.563877103620596
13900.000000033,362.041248681549,1.00000000038405,0.565506361164529
14000.0000000334,363.149991299505,1.00000000038117,0.563554297763608
14100.0000000338,364.139572659418,1.0000000003674,0.559755945520331
14200.0000000341,365.001902184617,1.00000000035109,0.5598245043171
14300.0000000345,365.752939662175,1.0000000003675,0.564153928225379
14400.0000000349,366.39338669074,1.00000000037468,0.567405969054534
14500.0000000352,366.934333798811,1.00000000036732,0.56301240648076
14600.0000000356,367.371615897925,1.00000000034545,0.556882302919121
14700.0000000359,367.692074627699,1.00000000033776,0.555038193854257
14800.0000000363,367.91232237999,1.0000000003469,0.562014638793536
14900.0000000367,368.03994517547,1.00000000037287,0.569066614585792
15000.000000037,368.090009919184,1.00000000037231,0.566267684203622
15100.0000000374,368.061155899516,1.00000000034471,0.556439242072146
15200.0000000378,367.931085553284,1.00000000032575,0.548725188684568
15300.0000000381,367.708928411656,1.00000000031389,0.55249220213381
15400.0000000385,367.404019150104,1.00000000037642,0.567243020540889
15500.0000000389,367.043370103959,1.00000000038255,0.570540777091859
15600.0000000392,366.6338817122,1.00000000038949,0.564628084185155
15700.0000000396,366.156200464009,1.00000000030531,0.547344428733379
15800.0000000399,365.595092549833,1.00000000030081,0.540225303861802
15900.0000000403,364.951218320911,1.00000000031957,0.548948137075596
16000.0000000407,364.251136149279,1.00000000040145,0.568743830671184
16100.000000041,363.523968366118,1.00000000040012,0.573433740767051
16200.0000000414,362.76619571702,1.00000000041057,0.563462046463244
16300.0000000418,361.965571087387,1.00000000032312,0.542333127002359
16400.0000000418,361.093461457497,1.00000000027134,0.529127167240813
16500.0000000404,360.148879773929,1.0000000002965,0.536436269475931
16600.0000000389,359.159640442502,1.00000000037676,0.561713384278538
16700.0000000375,358.152697576507,1.0000000004466,0.576956800500608
16800.000000036,357.14590391047,1.00000000044921,0.570467692264194
16900.0000000346,356.120886391671,1.00000000035361,0.546150580646417
17000.0000000331,355.048314429228,1.00000000027042,0.522591787351785
17100.0000000317,353.914246044499,1.00000000024547,0.514208071502951
17200.0000000302,352.724770927879,1.000000000312,0.536395830276446
17300.0000000287,351.51776343676,1.000000000412,0.567960144500655
17400.0000000273,350.319131965515,1.00000000047907,0.579498075608594
17500.0000000258,349.131584891005,1.00000000047149,0.565860865517233
17600.0000000244,347.937824598398,1.00000000035617,0.537209069519106
17700.0000000229,346.706111846783,1.00000000027756,0.509491723210391
17800.0000000215,345.424433097028,1.00000000024226,0.500146702726548
17900.00000002,344.099120704734,1.00000000030649,0.523034381400529
18000.0000000186,342.759221559832,1.00000000041769,0.561626668562394
18100.0000000171,341.436358563952,1.00000000047747,0.580899413314668
18200.0000000156,340.136015817697,1.0000000004716,0.572163964510522
18300.0000000142,338.84633876218,1.00000000039975,0.545442549963605
18400.0000000127,337.542941385364,1.00000000028829,0.511526891861354
18500.0000000113,336.202451157257,1.00000000023818,0.490351696796841
18600.0000000098,334.824421700393,1.00000000024193,0.494540297918285
18700.0000000084,333.420905829703,1.00000000033221,0.528314358294618
18800.0000000069,332.020987649171,1.00000000045741,0.566613291245556
18900.0000000055,330.645384058352,1.00000000049073,0.580405586523036
19000.000000004,329.29495397186,1.00000000049931,0.569559696866156
19100.0000000026,327.960041009491,1.00000000041039,0.540467111068078
19200.0000000011,326.617657216736,1.00000000031583,0.505921862124273
19299.9999999996,325.252259828722,1.00000000024803,0.484658388286379
19399.9999999982,323.859434789771,1.00000000024335,0.484389003336367
19499.9999999967,322.445732834666,1.00000000031701,0.509053076064972
19599.9999999953,321.033116043832,1.00000000041963,0.547995717047215
19699.9999999938,319.637988217567,1.00000000050896,0.572851513043796
19799.9999999924,318.268276608639,1.00000000051864,0.574213737154583
19899.9999999909,316.922035867556,1.0000000004741,0.55438543380528
19999.9999999895,315.584618352976,1.00000000039445,0.524970216703686
20099.999999988,314.243685199054,1.00000000029972,0.495007606609385
20199.9999999865,312.887719214905,1.00000000025302,0.480173663535704
20299.9999999851,311.515214359471,1.0000000002626,0.483784898466939
20399.9999999836,310.133860495438,1.0000000003204,0.50412368296492
20499.9999999822,308.753865196239,1.00000000040043,0.534953060709235
20599.9999999807,307.388132573474,1.00000000045981,0.559890939764511
20699.9999999793,306.043766923477,1.00000000051352,0.56736271876637
20799.9999999778,304.719370657651,1.0000000004879,0.55715547507641
20899.9999999764,303.411084410354,1.00000000044263,0.534062836033524
20999.9999999749,302.107824743245,1.00000000035711,0.508094681805788
21099.9999999734,300.802846368997,1.00000000029536,0.488973378435182
21199.999999972,299.492029004561,1.00000000027154,0.483427788378244
21299.9999999705,298.175485302497,1.00000000030274,0.490184343251763
21399.9999999691,296.858788480588,1.0000000003368,0.503482266498026
21499.9999999676,295.545785704346,1.00000000039252,0.522670172912444
21599.9999999662,294.243829458037,1.0000000004509,0.544145638527296
21699.9999999647,292.957765350769,1.00000000048337,0.553573587163411
21799.9999999633,291.687566391699,1.00000000047517,0.551312183091054
21899.9999999618,290.431958832622,1.00000000044051,0.535733515651276
21999.9999999603,289.185840455055,1.0000000003959,0.518022075181778
22099.9999999589,287.944928166313,1.00000000033506,0.503109543940108
22199.9999999574,286.707048765154,1.00000000032815,0.494289656441676
22299.999999956,285.47038268552,1.00000000032036,0.49124417969813
22399.9999999545,284.236658442379,1.00000000030623,0.49440948982728
22499.9999999531,283.005942738714,1.0000000003414,0.502653704411418
22599.9999999516,281.781420444773,1.00000000036567,0.513366342079666
22699.9999999502,280.565781792519,1.00000000039814,0.524463194682605
22799.9999999487,279.360706567294,1.00000000045447,0.535753793002536
22899.9999999473,278.167537693336,1.00000000044357,0.537451629466528
22999.9999999458,276.98589111055,1.00000000043718,0.534582719810465
23099.9999999443,275.813959813444,1.00000000039949,0.525775924660431
23199.9999999429,274.651050372749,1.00000000038601,0.517965868698649
23299.9999999414,273.495241928828,1.00000000036219,0.508721489274959
23399.99999994,272.346477798023,1.00000000033226,0.505725123812012
23499.9999999385,271.204244784329,1.00000000033803,0.502467284577376
23599.9999999371,270.068678110436,1.00000000031066,0.500519495050975
23699.9999999356,268.940050874341,1.0000000003369,0.500943718915293
23799.9999999342,267.818088579618,1.00000000034984,0.502657837433011
23899.9999999327,266.704227639526,1.00000000037103,0.508403114818266
23999.9999999312,265.599116286518,1.00000000038444,0.51483728797198
24099.9999999298,264.5028785075,1.000000000404,0.522094062886063
24199.9999999283,263.415999639933,1.00000000042977,0.527017907970906
24299.9999999269,262.338004957039,1.00000000040896,0.528810770693476
24399.9999999254,261.268498561041,1.00000000039516,0.527441075674676
24499.999999924,260.207623763407,1.0000000003686,0.520844201821618
24599.9999999225,259.154852088894,1.0000000003701,0.518289410700485
24699.9999999211,258.110715370474,1.00000000035544,0.52043037038474
24799.9999999196,257.075089034587,1.00000000036308,0.517657605020591
24899.9999999181,256.048708441812,1.00000000035714,0.513949308533516
24999.9999999167,255.031194785352,1.0000000003378,0.507296731355666
25099.9999999152,254.022725782092,1.00000000029668,0.498338427768223
25199.9999999138,253.02368440353,1.00000000030553,0.494188541664702
25299.9999999123,252.03391140573,1.00000000033095,0.494053198114865
25399.9999999109,251.053459663659,1.0000000003459,0.502325664833915
25499.9999999094,250.081813675912,1.0000000003984,0.511212160674916
25599.999999908,249.117772252152,1.00000000043905,0.520378100517035
25699.9999999065,248.160574343814,1.00000000041996,0.526109565346546
25799.9999999051,247.210491528469,1.00000000039805,0.526832113007435
25899.9999999036,246.267965812678,1.00000000035888,0.526098880884514
25999.9999999021,245.333663784026,1.00000000037107,0.520375159580829
26099.9999999007,244.407464209018,1.00000000036595,0.520993390618237
26199.9999998992,243.489071639793,1.00000000039595,0.531049463560696
26299.9999998978,242.578114115799,1.00000000041118,0.533160446131011
26399.9999998963,241.675496576646,1.00000000038516,0.525411686119663
26499.9999998949,240.782020081017,1.00000000035363,0.515455443343384
26599.9999998934,239.898879806988,1.0000000003422,0.500025958137305
26699.999999892,239.027957221952,1.00000000026049,0.484252855330647
26799.9999998905,238.169654581071,1.00000000028598,0.478220455770059
26899.999999889,237.323675817595,1.00000000030382,0.482489327482273
26999.9999998876,236.488203498752,1.00000000037054,0.493362709262344
27099.9999998861,235.660673163747,1.00000000041174,0.507169108203259
27199.9999998847,234.838290040114,1.00000000043947,0.516536760058091
27299.9999998832,234.019977819018,1.00000000043165,0.519081080167254
27399.9999998818,233.205661033441,1.00000000039289,0.521568671448668
27499.9999998803,232.397235914531,1.00000000037576,0.522488995670732
27599.9999998789,231.596138881854,1.00000000035633,0.521381248577135
27699.9999998774,230.802569938568,1.00000000037023,0.519445638645182
27799.9999998759,230.015475200889,1.00000000038648,0.524388185987945
27899.9999998745,229.233338803618,1.00000000041726,0.537259120594346
27999.999999873,228.455247262046,1.00000000042342,0.541208876286119
28099.9999998716,227.682284940475,1.0000000004067,0.531259929776774
28199.9999998701,226.916887766464,1.00000000036851,0.517516163232242
28299.9999998687,226.161516289948,1.00000000033645,0.503100155387609
28399.9999998672,225.419674974535,1.00000000027385,0.484616433561403
28499.9999998658,224.693391666041,1.00000000025852,0.471651766574201
28599.9999998643,223.983231474825,1.00000000028245,0.467762461197825
28699.9999998629,223.287170009981,1.00000000032114,0.476855735194784
28799.9999998614,222.601355533746,1.0000000003802,0.489588561319172
28899.9999998599,221.921768149782,1.00000000040833,0.502799036261588
