Time,AGPnorm,Energy,Entropy
0,0,1,-7.75000397744378e-17
99.9999999999986,0.000563982400599843,1.00000000000088,0.00203968941011628
199.999999999993,0.00374298022011608,1.00000000000264,0.00614337409158288
300,0.00771962311007264,1.00000000000241,0.0115544582593268
400.000000000022,0.0121284704673008,1.00000000000061,0.018187404254019
500.000000000045,0.0171956401060382,1.00000000000004,0.0261876923265234
600.000000000068,0.0241627136780952,1.00000000000187,0.0354266235013848
700.000000000091,0.031261702565884,1.00000000000279,0.045667208090007
800.000000000113,0.0393234758437189,1.00000000000168,0.0567699333961993
900.000000000136,0.0478365135666213,0.99999999999997,0.0689320228464915
1000.00000000016,0.0574304009935298,1.00000000000085,0.082240490094
1100.0000000001,0.0669807185869863,1.00000000000256,0.0970019320478243
1200,0.0767587098778266,1.00000000000253,0.113045475879983
1299.99999999991,0.0870329529934434,1.00000000000091,0.130800192715481
1399.99999999982,0.0972171732600092,1.0000000000009,0.150566087677847
1499.99999999973,0.107711771346946,1.00000000000472,0.173310440842479
1599.99999999964,0.118211233619747,1.00000000001263,0.199419833862843
1699.99999999955,0.130918993960191,1.00000000003073,0.229034497117217
1799.99999999946,0.143543964087848,1.00000000006681,0.261222315271819
1899.99999999937,0.162035698211192,1.00000000012801,0.294487993196243
1999.99999999928,0.209885391783957,1.0000000001997,0.326995646257364
2099.99999999919,0.318710950649799,1.00000000029161,0.357139784735443
2199.99999999909,0.515871294887795,1.0000000003664,0.38454952578343
2299.999999999,0.847150299073485,1.00000000044173,0.408995786845523
2399.99999999891,1.3840097790213,1.00000000053259,0.430786283045915
2499.99999999882,2.19954877365297,1.00000000058269,0.450239873752426
2599.99999999873,3.34492167603577,1.00000000065754,0.467233152240698
2699.99999999864,4.86100228209326,1.00000000067848,0.482041099230858
2799.99999999855,6.78198329538202,1.00000000073722,0.494890538128538
2899.99999999846,9.13948580789057,1.00000000075407,0.506218014175593
2999.99999999837,11.9543561786774,1.00000000079849,0.51584621178083
3099.99999999828,15.227516192607,1.00000000082487,0.523836996577017
3199.99999999819,18.9278251860797,1.0000000008429,0.530774041675392
3299.99999999809,23.0170393519085,1.00000000080006,0.536806167559598
3399.999999998,27.4722535711487,1.00000000085947,0.541468337666942
3499.99999999791,32.2736478350405,1.00000000081606,0.545308572366945
3599.99999999782,37.3653629211589,1.00000000080589,0.548590833889578
3699.99999999773,42.6689382966862,1.00000000087415,0.550961760525079
3799.99999999764,48.1336826961389,1.00000000082297,0.552460596252305
3899.99999999755,53.734357567355,1.00000000084255,0.55381871434842
3999.99999999746,59.4266659336705,1.00000000078385,0.554920108591102
4099.99999999738,65.1373446208966,1.00000000077659,0.554764623048148
4199.99999999775,70.807875556813,1.00000000077675,0.554419872738634
4299.99999999811,76.4092683895875,1.00000000075704,0.555100758720603
4399.99999999848,81.9230143880701,1.00000000074268,0.553288908833487
4499.99999999884,87.3073172866063,1.00000000071962,0.552270849299711
4599.9999999992,92.507021485964,1.00000000070684,0.551792578847602
4699.99999999957,97.4973297833447,1.00000000068981,0.549993493817816
4799.99999999993,102.272518814147,1.00000000068885,0.548854364790875
4900.00000000029,106.822229059469,1.00000000065479,0.547358430067541
5000.00000000066,111.113429470525,1.00000000064335,0.545613711755687
5100.00000000102,115.128008345002,1.00000000063192,0.544483018069488
5200.00000000139,118.862488022431,1.00000000062525,0.544329916456104
5300.00000000175,122.3264702714,1.00000000058389,0.54137008183651
5400.00000000211,125.512155050958,1.00000000059961,0.539749316782844
5500.00000000248,128.4094125268,1.00000000057269,0.539965455174611
5600.00000000284,131.014415244581,1.00000000056737,0.537127013143466
5700.00000000321,133.336850275642,1.0000000005324,0.532519647129945
5800.00000000357,135.387747283194,1.00000000051589,0.534946781808275
5900.00000000393,137.177701399755,1.00000000052762,0.537792035036587
6000.0000000043,138.701391108815,1.00000000049799,0.529122801053886
6100.00000000466,139.953356435624,1.00000000047151,0.52280033481273
6200.00000000502,140.957499962889,1.00000000047691,0.533756433788719
6300.00000000539,141.757260792005,1.00000000051695,0.541890818673998
6400.00000000575,142.35359428106,1.00000000046203,0.525421823094136
6500.00000000612,142.710373816047,1.00000000039234,0.507614561404794
6600.00000000648,142.83884346058,1.00000000044667,0.524417628448007
6700.00000000684,142.821999088709,1.00000000051854,0.549645018390429
6800.00000000721,142.704970341741,1.00000000050833,0.541849964578149
6900.00000000757,142.437055781824,1.00000000038324,0.501359208237718
7000.00000000793,141.961070005166,1.00000000031873,0.488139574896421
7100.0000000083,141.331157628007,1.00000000045299,0.528879241382048
7200.00000000866,140.657924353055,1.00000000058772,0.560959914505038
7300.00000000903,139.97661340513,1.00000000055752,0.548045690653118
7400.00000000939,139.218082708724,1.00000000039749,0.491378120454557
7500.00000000975,138.300844734349,1.00000000026515,0.455477849617796
7600.00000001012,137.252637561271,1.00000000039834,0.497543591508467
7700.00000001048,136.180652020462,1.00000000060258,0.552866268644376
7800.00000001084,135.15543581405,1.00000000064955,0.567223140600179
7900.00000001121,134.161652830191,1.00000000054121,0.53312547178885
8000.00000001157,133.115205886839,1.00000000034234,0.458021681066135
8100.00000001194,131.954272937594,1.00000000022466,0.417208885788468
8200.0000000123,130.709329776573,1.00000000036394,0.469729508792615
8300.00000001266,129.460321803335,1.00000000063963,0.539150066232303
8400.00000001303,128.268854024681,1.00000000072037,0.565460982865494
8500.00000001339,127.144800237705,1.00000000067555,0.554139205440915
8600.00000001376,126.044825031447,1.00000000048581,0.49693068999076
8700.00000001412,124.904231317525,1.00000000027869,0.412318412858687
8800.00000001448,123.692847231489,1.00000000020901,0.383449403845343
8900.00000001485,122.438523374826,1.0000000003836,0.441867913941985
9000.00000001521,121.192001225079,1.00000000057528,0.51517265328071
9100.00000001557,119.991684967619,1.00000000069929,0.548761944688916
9200.00000001594,118.851556833802,1.00000000067786,0.553295458998079
9300.0000000163,117.75893559694,1.0000000006205,0.532225984733783
9400.00000001667,116.67998564163,1.0000000004466,0.473026028286494
9500.00000001703,115.581433354209,1.0000000002897,0.399189688407529
9600.00000001739,114.45559178946,1.00000000023445,0.370316681003678
9700.00000001776,113.31725761321,1.00000000031959,0.404388079374518
9800.00000001812,112.186096360604,1.00000000048546,0.472788943721585
9900.00000001848,111.077382046438,1.0000000006322,0.520460541079463
10000.0000000188,110.001715837673,1.00000000066173,0.536284796831066
10100.0000000192,108.96336656681,1.00000000064316,0.540759935047096
10200.0000000196,107.956485010287,1.00000000058119,0.528471838850995
10300.0000000199,106.96687234511,1.0000000004681,0.488186732598028
10400.0000000203,105.981673782144,1.00000000037649,0.434967220526587
10500.0000000207,104.999051349979,1.00000000031423,0.394942171828959
10600.000000021,104.026449297493,1.00000000031598,0.388531180753458
10700.0000000214,103.070096541111,1.0000000003552,0.417673832603404
10800.0000000218,102.130775019083,1.00000000045779,0.460593708385845
10900.0000000221,101.207055745235,1.0000000005211,0.499133815805346
11000.0000000225,100.297481601565,1.0000000005607,0.514265061346624
11100.0000000229,99.4021213522624,1.00000000061791,0.518639302760535
11200.0000000232,98.5220966831993,1.00000000063371,0.530751718294568
11300.0000000236,97.6587950079869,1.00000000060365,0.535357855320543
11400.0000000239,96.8113898775008,1.00000000049721,0.50912921247606
11500.0000000243,95.978933702045,1.0000000003703,0.462034119715465
11600.0000000247,95.1650876452618,1.00000000030726,0.420930750938579
11700.000000025,94.3757462743722,1.00000000034458,0.404660453393648
11800.0000000254,93.6138260691266,1.00000000040421,0.41006670159451
11900.0000000258,92.8774539523286,1.000000000429,0.437785157999864
12000.0000000261,92.1608429839606,1.00000000046482,0.463408838665211
12100.0000000265,91.4578958775112,1.00000000051513,0.482771441718378
12200.0000000269,90.7659668782752,1.00000000048019,0.497214017786846
12300.0000000272,90.0856400434916,1.00000000043549,0.496867384541821
12400.0000000276,89.415139200605,1.00000000046603,0.494807294593088
12500.0000000279,88.7473305062088,1.00000000060802,0.509376365262121
12600.0000000283,88.0771788952419,1.00000000066585,0.530216982476287
12700.0000000287,87.4072415482332,1.00000000064723,0.540187077807398
12800.000000029,86.7438667753218,1.00000000053889,0.524138593018587
12900.0000000294,86.0955593228201,1.00000000041936,0.483951823149126
13000.0000000298,85.4737201223165,1.00000000030428,0.439240301310274
13100.0000000301,84.8879891053689,1.00000000030204,0.411698360006681
13200.0000000305,84.3388731912778,1.00000000036348,0.407741581227513
13300.0000000309,83.8183389316848,1.00000000043595,0.421818311323177
13400.0000000312,83.3168853665461,1.0000000004918,0.444272423758429
13500.0000000316,82.8271015445665,1.00000000052421,0.470662703067711
13600.0000000319,82.3433649219119,1.00000000051959,0.486423532446997
13700.0000000323,81.8636384707967,1.00000000051669,0.495301692355827
13800.0000000327,81.3905441319212,1.00000000048265,0.498193482355604
13900.000000033,80.9277258186699,1.00000000040535,0.498095061314681
14000.0000000334,80.4769616010322,1.00000000040696,0.495969568646867
14100.0000000338,80.0337713257455,1.00000000046567,0.495226068926199
14200.0000000341,79.5880268535743,1.00000000054372,0.500918779461446
14300.0000000345,79.1304265819943,1.00000000062573,0.512650245055593
14400.0000000349,78.65861593938,1.00000000063271,0.526572570441055
14500.0000000352,78.1780769457231,1.00000000062292,0.537686002338417
14600.0000000356,77.6982361164102,1.00000000055691,0.529848617672213
14700.0000000359,77.2295599936664,1.00000000046815,0.504708855997962
14800.0000000363,76.7834529249772,1.00000000036851,0.468518530422528
14900.0000000367,76.3701013311396,1.00000000032742,0.441029918537234
15000.000000037,75.9966002190482,1.00000000033138,0.427822873869858
15100.0000000374,75.6619742669032,1.00000000035036,0.422541420491548
15200.0000000378,75.3580779515717,1.00000000041865,0.427075094674805
15300.0000000381,75.0727443329266,1.00000000048808,0.449332479548942
15400.0000000385,74.7954132355477,1.00000000052257,0.469289763878238
15500.0000000389,74.5224215475058,1.00000000050981,0.478583791240596
15600.0000000392,74.2554046315997,1.00000000048006,0.483744059367277
15700.0000000396,73.9939661645984,1.00000000049578,0.489873211154444
15800.0000000399,73.7347278850264,1.00000000051756,0.500935404415511
15900.0000000403,73.4715061521186,1.00000000052899,0.515834502285831
16000.0000000407,73.2005958635778,1.00000000050497,0.52611724347091
16100.000000041,72.924026805711,1.00000000048307,0.531593270881976
16200.0000000414,72.6468069108323,1.00000000044765,0.533549591509559
16300.0000000418,72.3724664732131,1.00000000043335,0.526289079071301
16400.0000000418,72.1006798993699,1.00000000044963,0.516103080398141
16500.0000000404,71.8290983313197,1.00000000048356,0.50491567442657
16600.0000000389,71.5533871020507,1.00000000052508,0.500106318159238
16700.0000000375,71.2688091900881,1.00000000058231,0.511747782675392
16800.000000036,70.9707417047267,1.00000000061337,0.529845067061307
16900.0000000346,70.6592151295759,1.00000000061051,0.543786628105834
17000.0000000331,70.3405692463897,1.00000000055508,0.545857271907473
17100.0000000317,70.0253196716822,1.00000000050361,0.5314123117559
17200.0000000302,69.7266203928874,1.00000000040167,0.504292187172252
17300.0000000287,69.4570511510173,1.00000000033321,0.475253607747521
17400.0000000273,69.224165342109,1.00000000031527,0.452696772676271
17500.0000000258,69.0291668250907,1.00000000035182,0.442889194428924
17600.0000000244,68.8679157172544,1.00000000039823,0.442734416454457
17700.0000000229,68.7331688589169,1.00000000043841,0.448038353255381
17800.0000000215,68.6156433531074,1.00000000045063,0.453230896132207
17900.00000002,68.5068657355422,1.0000000005094,0.459548876267217
18000.0000000186,68.4005063125222,1.00000000051914,0.473289618478849
18100.0000000171,68.2921335003767,1.00000000053729,0.487560270581749
18200.0000000156,68.1829328356823,1.0000000004895,0.498098744289345
18300.0000000142,68.0791256427874,1.00000000043094,0.501350656104621
18400.0000000127,67.9877134669501,1.00000000038841,0.500351238059942
18500.0000000113,67.9112223147841,1.00000000041295,0.501541681370218
18600.0000000098,67.843875178731,1.00000000044629,0.508637436573171
18700.0000000084,67.7732870529445,1.00000000049742,0.520872387306848
18800.0000000069,67.6872103818692,1.00000000054175,0.52955252331585
18900.0000000055,67.5777745678477,1.00000000059032,0.537309739238159
19000.000000004,67.4430923979517,1.00000000062512,0.540922942992795
19100.0000000026,67.2870523206726,1.00000000056147,0.542198083635498
19200.0000000011,67.1174201010968,1.00000000050437,0.545804520890698
19299.9999999996,66.9422251506562,1.00000000044567,0.547576510861015
19399.9999999982,66.7687997712348,1.000000000417,0.542409464529131
19499.9999999967,66.6020833008182,1.00000000040288,0.531944041924107
19599.9999999953,66.4433043122084,1.00000000040245,0.526901918371528
19699.9999999938,66.2894019763617,1.0000000004395,0.527722935211823
19799.9999999924,66.1350592672413,1.00000000049208,0.524010767096134
19899.9999999909,65.9750993550498,1.00000000051782,0.522969505845301
19999.9999999895,65.8061586892936,1.00000000055244,0.5256886432624
20099.999999988,65.6259116943416,1.00000000057731,0.532937005705029
20199.9999999865,65.4329168541253,1.00000000063165,0.543027741892606
20299.9999999851,65.2285155449976,1.00000000062001,0.551740696752011
20399.9999999836,65.0180155280653,1.00000000055195,0.553467017336107
20499.9999999822,64.8100314354564,1.00000000047503,0.545408720187398
20599.9999999807,64.61473717081,1.0000000004127,0.529788864456744
20699.9999999793,64.4413735431249,1.00000000037934,0.506008011060668
20799.9999999778,64.297073240593,1.00000000034601,0.485754896176423
20899.9999999764,64.1851682434404,1.00000000034952,0.471166160709115
20999.9999999749,64.1065533599275,1.00000000038094,0.462361195632374
21099.9999999734,64.0587222955585,1.00000000038606,0.461824397161019
21199.999999972,64.0355143287826,1.00000000041686,0.463436862567657
21299.9999999705,64.0308860956319,1.00000000044241,0.462148998634073
21399.9999999691,64.0366029782845,1.00000000046812,0.461792984337823
21499.9999999676,64.0452116237755,1.00000000052458,0.46828731461308
21599.9999999662,64.0544569687835,1.00000000050008,0.471654551651487
21699.9999999647,64.0669717771149,1.00000000044528,0.470506661985345
21799.9999999633,64.0875246716619,1.0000000004356,0.471084394712975
21899.9999999618,64.1166385398881,1.00000000043048,0.483009071400557
21999.9999999603,64.1504161102902,1.00000000046817,0.500113896773699
22099.9999999589,64.1824238122562,1.00000000048904,0.512171812212834
22199.9999999574,64.2066977944985,1.00000000052114,0.521787227768364
22299.999999956,64.2199310157253,1.00000000051184,0.53177213920433
22399.9999999545,64.2234882610674,1.0000000005234,0.541371498946339
22499.9999999531,64.22218699289,1.00000000048029,0.544322236340949
22599.9999999516,64.2190891224175,1.00000000047286,0.542566772677603
22699.9999999502,64.2148528148704,1.00000000047878,0.54269827086805
22799.9999999487,64.2087161649703,1.00000000045796,0.546869630047145
22899.9999999473,64.1995323910386,1.00000000046983,0.553582293569106
22999.9999999458,64.185036681453,1.00000000046292,0.554307790240059
23099.9999999443,64.162126970414,1.0000000004869,0.553137727562638
23199.9999999429,64.1281923437881,1.00000000048634,0.550960449028688
23299.9999999414,64.0817900176571,1.00000000051103,0.549448045361809
23399.99999994,64.021258689021,1.00000000052615,0.546796870249989
23499.9999999385,63.9460184974873,1.00000000052073,0.539461166218808
23599.9999999371,63.8576886527971,1.00000000054313,0.531926469887546
23699.9999999356,63.7593058449759,1.00000000053001,0.534060850838212
23799.9999999342,63.6532739993525,1.00000000048604,0.542340458518199
23899.9999999327,63.541342009389,1.00000000049755,0.550004602750554
23999.9999999312,63.4247584603987,1.00000000049815,0.5547572134401
24099.9999999298,63.3053692719096,1.00000000048615,0.555042453945995
24199.9999999283,63.1868250921591,1.00000000045393,0.551850204574957
24299.9999999269,63.0724810181106,1.00000000042227,0.548857491105757
24399.9999999254,62.9634889089581,1.00000000041247,0.549663377186441
24499.999999924,62.8578210774961,1.00000000043506,0.55132365664637
24599.9999999225,62.7530767495653,1.00000000045197,0.549272798419922
24699.9999999211,62.6475008371387,1.00000000047615,0.549049238966231
24799.9999999196,62.5391858546757,1.00000000048922,0.54982301812643
24899.9999999181,62.4266446510442,1.00000000051653,0.547480682465571
24999.9999999167,62.3081060015734,1.00000000055399,0.543601214448559
25099.9999999152,62.1823835811283,1.00000000058503,0.540552180875659
25199.9999999138,62.0492929170717,1.0000000005846,0.539760626338233
25299.9999999123,61.9080120483337,1.00000000060209,0.543134524970149
25399.9999999109,61.7590349577151,1.00000000056958,0.546539674038983
25499.9999999094,61.6057717829374,1.00000000054457,0.550350679621799
25599.999999908,61.4538107908501,1.00000000049039,0.549103329131886
25699.9999999065,61.3096790046085,1.00000000046076,0.541932819756925
25799.9999999051,61.1800380869949,1.00000000038887,0.528740111223006
25899.9999999036,61.07058016594,1.00000000037422,0.51400919283744
25999.9999999021,60.9858274927151,1.00000000035684,0.503825882952881
26099.9999999007,60.9283127868353,1.00000000037338,0.495398070650431
26199.9999998992,60.8990874260373,1.00000000035924,0.485681041959161
26299.9999998978,60.8958925383384,1.00000000038343,0.47830806326475
26399.9999998963,60.9157171035318,1.00000000040107,0.475041645415798
26499.9999998949,60.9562380523365,1.00000000042591,0.473418726398896
26599.9999998934,61.0125318197849,1.00000000044984,0.474419563470826
26699.999999892,61.0774559448617,1.00000000049668,0.478029379937765
26799.9999998905,61.146345988876,1.00000000049228,0.483685890149128
26899.999999889,61.2184779739723,1.00000000048878,0.48634497444745
26999.9999998876,61.2956581676352,1.00000000045767,0.481938138951141
27099.9999998861,61.3794831731632,1.00000000047413,0.478502368283212
27199.9999998847,61.4682135947945,1.00000000045508,0.482644672147465
27299.9999998832,61.5592266138231,1.00000000048045,0.492241601474922
27399.9999998818,61.6515279063798,1.00000000047401,0.501032023862526
27499.9999998803,61.7453153439998,1.00000000048061,0.509967337244671
27599.9999998789,61.83976249938,1.00000000047363,0.517844753176421
27699.9999998774,61.9321977574137,1.00000000047061,0.526892898547786
27799.9999998759,62.0203316029243,1.00000000049824,0.535529130886642
27899.9999998745,62.1033132883954,1.00000000051312,0.545528000764484
27999.999999873,62.1808550500216,1.00000000048082,0.552277539572646
28099.9999998716,62.2523811332192,1.00000000048291,0.557666644558462
28199.9999998701,62.3175237430244,1.00000000048272,0.563840108199022
28299.9999998687,62.3751334221369,1.00000000049362,0.568271874107856
28399.9999998672,62.4244421982381,1.00000000052477,0.567361788690054
28499.9999998658,62.4644963501601,1.00000000053309,0.565008200309353
28599.9999998643,62.494533356902,1.0000000005417,0.567550169745733
28699.9999998629,62.5143905201982,1.00000000050342,0.570158412834544
28799.9999998614,62.5250791238456,1.00000000050824,0.572244800253311
28899.9999998599,62.529232710204,1.00000000049607,0.578150413116688
28999.9999998585,62.5299931261841,1.00000000047245,0.578823164786503
