Time,AGPnorm,Energy,Entropy
0,0,1,5.3924346147551e-18
99.9999999999986,0.00928550209643971,0.999999999997174,0.0255371928773681
199.999999999993,0.0235291753545421,1.00000000000016,0.0745745962668317
300,0.0466871021755516,0.999999999999857,0.151011460336871
400.000000000022,0.0703558513167941,1.00000000021175,0.269546785423854
500.000000000045,0.134706957649946,1.00000000141967,0.414582768260315
600.000000000068,0.595140797606828,1.00000000265301,0.512041902628152
700.000000000091,1.79969245440882,1.00000000346262,0.562602610718981
800.000000000113,3.75500679258026,1.00000000368015,0.585054049333439
900.000000000136,6.23277923691011,1.00000000342312,0.58922284595076
1000.00000000016,8.78496754280181,1.00000000336152,0.585931928803731
1100.0000000001,11.1504057220801,1.00000000297467,0.578444297417405
1200,13.0756844040952,1.0000000026215,0.566486140504596
1299.99999999991,14.486577400952,1.00000000245526,0.561482437842493
1399.99999999982,15.3731698379713,1.00000000229613,0.551270360001
1499.99999999973,15.7985125165799,1.00000000181737,0.531218255312698
1599.99999999964,15.8803079453482,1.00000000222271,0.562339663146952
1699.99999999955,15.6442567949408,1.00000000204237,0.546251994528136
1799.99999999946,15.3253361663178,1.00000000159258,0.488549301351635
1899.99999999937,14.8381035631028,1.00000000256595,0.567440336108544
1999.99999999928,14.3815343572996,1.00000000161105,0.462729438154847
2099.99999999919,13.8305955454842,1.00000000235294,0.503902761038006
2199.99999999909,13.3408905412381,1.00000000254965,0.545357414293604
2299.999999999,12.8526070603014,1.00000000125966,0.394474795305956
2399.99999999891,12.3485789440423,1.00000000246749,0.527015534700939
2499.99999999882,11.8952474468079,1.00000000274405,0.55280265794805
2599.99999999873,11.479841272008,1.00000000134956,0.402650439468057
2699.99999999864,11.0828990961764,1.00000000218656,0.483143382426555
2799.99999999855,10.6969825678318,1.00000000225437,0.527889717868714
2899.99999999846,10.3314286790846,1.00000000276793,0.561203359861406
2999.99999999837,10.0089104409297,1.00000000131399,0.445995274087321
3099.99999999828,9.75635369500348,1.00000000171251,0.426930600303272
3199.99999999819,9.49826568914593,1.00000000238624,0.52812946833983
3299.99999999809,9.25019595227867,1.00000000201097,0.527887984387342
3399.999999998,9.00515497565537,1.00000000270418,0.535165377292417
3499.99999999791,8.75530216825402,1.00000000252801,0.559028750193696
3599.99999999782,8.55107648136114,1.00000000142063,0.455890509130813
3699.99999999773,8.43358968429171,1.00000000173162,0.440826072435251
3799.99999999764,8.33197031046937,1.0000000023611,0.516240738611829
3899.99999999755,8.21725294638114,1.00000000208267,0.533027140092363
3999.99999999746,8.0981990436783,1.00000000221694,0.555185121346282
4099.99999999738,7.96299364062653,1.00000000226349,0.579747618116199
4199.99999999775,7.82608682132196,1.00000000216643,0.555933343675999
4299.99999999811,7.6773162217558,1.00000000274648,0.564490957917097
4399.99999999848,7.52199837387224,1.00000000235867,0.567724255504234
4499.99999999884,7.41348808388888,1.00000000150981,0.479881717905949
4599.9999999992,7.40312503798862,1.00000000151012,0.451862344237648
4699.99999999957,7.42910480618734,1.00000000228938,0.496007663737332
4799.99999999993,7.44055265482907,1.00000000222728,0.532810380862985
4900.00000000029,7.43173653514912,1.00000000233526,0.564518809982641
5000.00000000066,7.40456954694281,1.00000000222211,0.58176145082951
5100.00000000102,7.37185610936639,1.00000000196167,0.585058936697392
5200.00000000139,7.32985702043315,1.0000000022706,0.587827514279526
5300.00000000175,7.27048623340808,1.00000000238516,0.574473861143153
5400.00000000211,7.19626363867121,1.00000000219947,0.590771858280594
5500.00000000248,7.12056532141756,1.00000000193467,0.599130494540627
5600.00000000284,7.03983820839765,1.00000000225586,0.594611130959114
5700.00000000321,6.94876134981045,1.00000000267144,0.607819012193505
5800.00000000357,6.85102155923622,1.00000000270649,0.58797644675725
5900.00000000393,6.75404989429197,1.00000000207878,0.564333126227145
6000.0000000043,6.70092080877061,1.00000000158204,0.503507565167114
6100.00000000466,6.73885158114364,1.0000000015755,0.470431881540275
6200.00000000502,6.84446747553496,1.00000000195606,0.494810703795201
6300.00000000539,6.94870166735484,1.00000000249033,0.531095879537772
6400.00000000575,7.03769416069954,1.00000000219663,0.552887666184439
6500.00000000612,7.11100844726063,1.00000000224604,0.576487518154768
6600.00000000648,7.16775520413948,1.00000000230036,0.600920311367589
6700.00000000684,7.20021145336657,1.00000000224784,0.611758311709463
6800.00000000721,7.2182169078507,1.000000002282,0.630021660626285
6900.00000000757,7.21703097113723,1.00000000247716,0.631127960843521
7000.00000000793,7.19786816385065,1.00000000252887,0.636509732261422
7100.0000000083,7.17753681036094,1.00000000234052,0.622076194300394
7200.00000000866,7.16303662541241,1.00000000203798,0.615174772690318
7300.00000000903,7.14753680669119,1.00000000252116,0.599863430792094
7400.00000000939,7.11602528544437,1.0000000022952,0.614440470728567
7500.00000000975,7.08472645072562,1.00000000221361,0.617932449583843
7600.00000001012,7.05764425468571,1.00000000240656,0.632265345727274
7700.00000001048,7.02394394433355,1.00000000227041,0.634385942520953
7800.00000001084,6.98652860546083,1.00000000221316,0.627903748460144
7900.00000001121,6.94854730641858,1.0000000023891,0.608126224279801
8000.00000001157,6.90371172009326,1.00000000248563,0.634584859453931
8100.00000001194,6.84890519932251,1.00000000228096,0.641286421388669
8200.0000000123,6.78710285312775,1.00000000243771,0.63902952601541
8300.00000001266,6.72523190309697,1.00000000215753,0.644350501609428
8400.00000001303,6.66263281948826,1.000000002332,0.650386909900969
8500.00000001339,6.59923673963056,1.00000000279157,0.65690641868562
8600.00000001376,6.53730837885816,1.00000000281485,0.671873572539799
8700.00000001412,6.47526363323167,1.00000000268825,0.651291650432559
8800.00000001448,6.40828477523924,1.00000000269779,0.626149820994266
8900.00000001485,6.34543527040623,1.00000000214118,0.582650452702169
9000.00000001521,6.3169433969079,1.00000000159806,0.534710275132389
9100.00000001557,6.3562486836965,1.00000000156046,0.498840906086845
9200.00000001594,6.47272063957221,1.00000000211912,0.496693787882916
9300.0000000163,6.6393887744704,1.00000000221949,0.514260940267687
9400.00000001667,6.81236630572081,1.00000000235616,0.536111947720764
9500.00000001703,6.97565790494634,1.00000000272199,0.543575029762982
9600.00000001739,7.12594192456873,1.00000000241863,0.561747611751505
9700.00000001776,7.25936709951063,1.00000000258017,0.574147844359024
9800.00000001812,7.37824858590769,1.0000000024785,0.581485339527162
9900.00000001848,7.48460044249031,1.0000000026852,0.60825458782855
10000.0000000188,7.57288321528202,1.00000000250641,0.622576663028057
10100.0000000192,7.64828518034985,1.00000000267233,0.614985890030554
10200.0000000196,7.70753093608763,1.00000000259552,0.621988872247973
10300.0000000199,7.74923159196488,1.00000000272684,0.648662996443817
10400.0000000203,7.77601842173023,1.00000000269118,0.652062388651555
10500.0000000207,7.79510708374957,1.00000000259059,0.655040539641458
10600.000000021,7.81519845540497,1.00000000253622,0.645920143369783
10700.0000000214,7.83116224566982,1.0000000029305,0.654513691705344
10800.0000000218,7.83892401593386,1.00000000238984,0.655671970815768
10900.0000000221,7.84688231860123,1.00000000273312,0.659465325325277
11000.0000000225,7.84377440817044,1.00000000273363,0.661524746051393
11100.0000000229,7.83846437292506,1.0000000027584,0.66177189871662
11200.0000000232,7.8281095650291,1.00000000299161,0.654845211231097
11300.0000000236,7.81499171074847,1.00000000251144,0.661740774104312
11400.0000000239,7.79600335707984,1.00000000275135,0.669344902694045
11500.0000000243,7.77480580698042,1.00000000282393,0.661990043098351
11600.0000000247,7.75296282876165,1.00000000265325,0.660533461489679
11700.000000025,7.73267779977203,1.00000000271153,0.652026390377941
11800.0000000254,7.71836126289728,1.00000000252875,0.634729072851403
11900.0000000258,7.71651954397575,1.00000000258304,0.616392371101337
12000.0000000261,7.72817262490882,1.00000000251848,0.632051110630739
12100.0000000265,7.74551738067175,1.00000000286843,0.646492502024834
12200.0000000269,7.76059805160726,1.00000000275538,0.633678145569745
12300.0000000272,7.76813262570437,1.00000000313426,0.6383406700658
12400.0000000276,7.77441682787726,1.00000000256075,0.62437239229439
12500.0000000279,7.78663480177562,1.00000000302302,0.634718853514807
12600.0000000283,7.79410267538621,1.0000000028138,0.62425661943711
12700.0000000287,7.80522388426952,1.00000000264293,0.646914829527466
12800.000000029,7.82194760921001,1.00000000278432,0.66100781900701
12900.0000000294,7.8330882305988,1.00000000326759,0.663166531705802
13000.0000000298,7.83662052953891,1.00000000290461,0.656080721530958
13100.0000000301,7.84397073813873,1.00000000271417,0.653335551838548
13200.0000000305,7.8566719434358,1.00000000315494,0.661513841000357
13300.0000000309,7.8781709828417,1.00000000283207,0.647497187731533
13400.0000000312,7.90227287794442,1.00000000312996,0.654520190168261
13500.0000000316,7.91843032567457,1.00000000315377,0.666675539922522
13600.0000000319,7.93096205821629,1.00000000304273,0.655200384042638
13700.0000000323,7.94718139436413,1.00000000294829,0.676397892947677
13800.0000000327,7.96209489019072,1.00000000314512,0.66988903966893
13900.000000033,7.97559764543541,1.00000000281176,0.656798296032259
14000.0000000334,7.99172282015987,1.00000000326788,0.678453984081691
14100.0000000338,8.00059991328307,1.00000000304236,0.671200433509711
14200.0000000341,8.01451734705199,1.00000000283201,0.6602684365524
14300.0000000345,8.02674381720982,1.00000000324271,0.669543867297264
14400.0000000349,8.0353027293786,1.00000000282972,0.676912731007256
14500.0000000352,8.04329459207914,1.00000000295881,0.665429464951614
14600.0000000356,8.05194395774088,1.00000000320919,0.674037750303206
14700.0000000359,8.05485461502949,1.00000000335579,0.67334549031128
14800.0000000363,8.05399562255873,1.00000000297172,0.664572810022291
14900.0000000367,8.05749235998112,1.0000000030886,0.656874890750022
15000.000000037,8.05812405996324,1.00000000300387,0.672695086441021
15100.0000000374,8.0640496151533,1.00000000292821,0.663378117156033
15200.0000000378,8.06925345866482,1.00000000311283,0.682903214905324
15300.0000000381,8.06361850138889,1.00000000312513,0.679452190099585
15400.0000000385,8.05817203227891,1.00000000295428,0.663614925915653
15500.0000000389,8.05632847746851,1.00000000285545,0.661171765868798
15600.0000000392,8.05177144965234,1.00000000319726,0.678012101104841
15700.0000000396,8.04213104888912,1.00000000334213,0.687893153892765
15800.0000000399,8.02414597442904,1.00000000324067,0.682031967582975
15900.0000000403,8.00561269025924,1.00000000293491,0.666411424425059
16000.0000000407,7.98676520401999,1.00000000327203,0.675945475418024
16100.000000041,7.96239617120941,1.00000000326262,0.677783016892499
16200.0000000414,7.93276371767692,1.00000000308388,0.68220490949899
16300.0000000418,7.90029902975154,1.00000000330292,0.678158515103345
16400.0000000418,7.86640817271472,1.00000000320773,0.678384915485135
16500.0000000404,7.83140979097439,1.00000000320219,0.678093270020305
16600.0000000389,7.79695793534047,1.00000000280444,0.680153068069749
16700.0000000375,7.76289962686126,1.00000000306529,0.668484240239157
16800.000000036,7.72972941072047,1.00000000319453,0.663986032627285
16900.0000000346,7.69811456721643,1.00000000333464,0.656736214260499
17000.0000000331,7.66700218940516,1.00000000327362,0.667170311173637
17100.0000000317,7.63745282050257,1.00000000339252,0.68104969568352
17200.0000000302,7.6107652956225,1.00000000403901,0.675334613680645
17300.0000000287,7.58470845424227,1.0000000035921,0.693926169519077
17400.0000000273,7.55987406358169,1.00000000375591,0.685145379677403
17500.0000000258,7.53038281509803,1.0000000033984,0.675390466015865
17600.0000000244,7.49774649792274,1.00000000352536,0.660738884320102
17700.0000000229,7.46022919080104,1.00000000329091,0.631913267873413
17800.0000000215,7.42519469228704,1.00000000308008,0.605345588448552
17900.00000002,7.40737445587479,1.00000000287847,0.592824568686369
18000.0000000186,7.42113157646212,1.00000000277221,0.574976267227436
18100.0000000171,7.48904959941488,1.00000000254064,0.558677192419718
18200.0000000156,7.62394480687504,1.00000000258611,0.537479584798374
18300.0000000142,7.84249008581092,1.000000002547,0.537986941728359
18400.0000000127,8.12922738681062,1.00000000282892,0.542042579802313
18500.0000000113,8.49468204882915,1.00000000297538,0.549184187520365
18600.0000000098,8.87895930614922,1.00000000360234,0.549913959918457
18700.0000000084,9.30473859876125,1.00000000359698,0.558800739815707
18800.0000000069,9.71528396977167,1.00000000341399,0.566998248144899
18900.0000000055,10.1458348971404,1.00000000326574,0.569913803161843
19000.000000004,10.5562385887046,1.00000000343297,0.578930825939925
19100.0000000026,10.9663812553154,1.00000000389922,0.582409689309168
19200.0000000011,11.3687731122354,1.00000000363678,0.591029005461038
19299.9999999996,11.757729674825,1.00000000378307,0.591610800093157
19399.9999999982,12.1516727318484,1.00000000376232,0.598123928798102
19499.9999999967,12.5339042462953,1.0000000034219,0.606443976269392
19599.9999999953,12.9205701071674,1.00000000332828,0.612819121044761
19699.9999999938,13.2909369291,1.00000000344276,0.640702905295526
19799.9999999924,13.6561166007858,1.0000000036366,0.644156574317661
19899.9999999909,14.012918018265,1.00000000362907,0.655109922004281
19999.9999999895,14.3460327355545,1.00000000377276,0.646248032554721
20099.999999988,14.671670118,1.00000000366214,0.660139388469923
20199.9999999865,14.9726711839759,1.00000000360684,0.672860745856757
20299.9999999851,15.2729857753139,1.00000000361681,0.659851790056075
20399.9999999836,15.5327856588926,1.00000000405809,0.651961895652965
20499.9999999822,15.7729177256589,1.00000000359218,0.683783021523421
20599.9999999807,16.0056625258027,1.00000000371013,0.681364870930122
20699.9999999793,16.2275114838045,1.00000000389672,0.683109031443672
20799.9999999778,16.4311418844223,1.00000000369298,0.686593073331493
20899.9999999764,16.6139196815002,1.00000000354442,0.674829710672275
20999.9999999749,16.793151880943,1.00000000339925,0.677573620159751
21099.9999999734,16.9590020591186,1.00000000342417,0.677480157974375
21199.999999972,17.1180689792898,1.00000000364,0.685654537205959
21299.9999999705,17.2769335605277,1.00000000348439,0.693686635123876
21399.9999999691,17.4209636449171,1.00000000395289,0.701404182249945
21499.9999999676,17.5533923045243,1.00000000383698,0.700674286602755
21599.9999999662,17.6748540752273,1.00000000359718,0.704773672560142
21699.9999999647,17.8104770024824,1.00000000330967,0.700155845526764
21799.9999999633,17.9573425415337,1.00000000348742,0.691068636725941
21899.9999999618,18.1052988721524,1.00000000369591,0.689934444879528
21999.9999999603,18.2347894004779,1.00000000408342,0.678297506641042
22099.9999999589,18.3492476091975,1.00000000386467,0.70353649447882
22199.9999999574,18.4566209323332,1.00000000373918,0.694965949867982
22299.999999956,18.5615107649968,1.00000000314823,0.679082718273006
22399.9999999545,18.6855772522447,1.00000000329566,0.67886074305353
22499.9999999531,18.8132234523412,1.00000000397284,0.692782702627786
22599.9999999516,18.9290174941348,1.00000000389352,0.681665979211673
22699.9999999502,19.026689935408,1.00000000407827,0.694683173540124
22799.9999999487,19.1186713562021,1.000000003752,0.693912797128085
22899.9999999473,19.2154860190753,1.00000000369432,0.683022171889654
22999.9999999458,19.3157887439162,1.00000000407862,0.669782818684528
23099.9999999443,19.4163454230473,1.00000000379981,0.690676622898759
23199.9999999429,19.5044607218829,1.00000000397664,0.693332565441684
23299.9999999414,19.5894383190323,1.00000000349008,0.691029044522042
23399.99999994,19.683655974308,1.00000000374138,0.670110181137212
23499.9999999385,19.7910477130153,1.00000000377189,0.671349637504899
23599.9999999371,19.8982466848196,1.00000000375186,0.686773977993373
23699.9999999356,19.9997651001016,1.0000000036517,0.676332564057993
23799.9999999342,20.0994386339175,1.00000000376867,0.671586449852993
23899.9999999327,20.1939727346737,1.00000000395711,0.680821585859087
23999.9999999312,20.2869528559367,1.00000000407163,0.689934889817077
24099.9999999298,20.3728605574987,1.00000000400721,0.691357244657589
24199.9999999283,20.4592731619265,1.00000000387218,0.681375693539454
24299.9999999269,20.5474381782953,1.00000000419381,0.680221451173963
24399.9999999254,20.6273547619318,1.00000000415614,0.678273258922916
24499.999999924,20.7185832229895,1.00000000371072,0.669006365061656
24599.9999999225,20.8115159385159,1.00000000457806,0.668873687300717
24699.9999999211,20.903015385729,1.00000000417131,0.673161425107485
24799.9999999196,20.9943124099977,1.00000000339355,0.665027953891539
24899.9999999181,21.0851738192514,1.00000000397239,0.683086364739148
24999.9999999167,21.1694386885875,1.00000000383194,0.692019694588597
25099.9999999152,21.2537117048263,1.00000000371365,0.683447633423854
25199.9999999138,21.3374669011416,1.00000000370091,0.698352784540717
25299.9999999123,21.4230935534823,1.00000000422558,0.690086481178387
25399.9999999109,21.516881761776,1.00000000397898,0.686647526087847
25499.9999999094,21.6158710335481,1.00000000378434,0.689111336200405
25599.999999908,21.7198470723628,1.00000000394415,0.693022761294019
25699.9999999065,21.8194547236719,1.00000000406087,0.695378694111144
25799.9999999051,21.8978246246433,1.00000000433355,0.677761075876509
25899.9999999036,21.9659219588325,1.00000000442261,0.687431536215387
25999.9999999021,22.0307959087859,1.00000000434996,0.686177882582961
26099.9999999007,22.1033029562253,1.00000000375823,0.688310800500317
26199.9999998992,22.1846961957102,1.00000000403428,0.696351291141741
26299.9999998978,22.2795607537308,1.00000000408544,0.672777354809942
26399.9999998963,22.3828853791304,1.00000000441994,0.66630239925565
26499.9999998949,22.492823037512,1.0000000043133,0.685504605324179
26599.9999998934,22.6169742038283,1.00000000367938,0.687914107315379
26699.999999892,22.7473048882274,1.00000000429099,0.701409603887424
26799.9999998905,22.879634508256,1.00000000459116,0.710627871907275
26899.999999889,23.0036858383504,1.00000000456767,0.693693634614489
26999.9999998876,23.1172799014913,1.00000000470587,0.696942316154242
27099.9999998861,23.2214804795907,1.00000000435034,0.691261400327272
27199.9999998847,23.3294508354424,1.00000000399256,0.686131205352035
27299.9999998832,23.4437807881512,1.00000000427334,0.693227673068362
27399.9999998818,23.5523348432922,1.00000000426608,0.694790901168985
27499.9999998803,23.6624090156544,1.00000000416075,0.694236438509798
27599.9999998789,23.7703331069661,1.00000000372733,0.680879587264697
27699.9999998774,23.8911868083258,1.00000000400637,0.673355780308743
27799.9999998759,24.0203663882566,1.00000000378779,0.680855713506448
27899.9999998745,24.1606823797266,1.00000000373154,0.675377593821795
27999.999999873,24.3122695609346,1.0000000039732,0.688151312559262
28099.9999998716,24.4586690854822,1.00000000437139,0.694208247807489
28199.9999998701,24.5930498416912,1.00000000425551,0.697495087113101
28299.9999998687,24.7174516246814,1.00000000409586,0.689552840431974
28399.9999998672,24.8438384229673,1.00000000408679,0.662524571027206
28499.9999998658,24.9753600789537,1.00000000403177,0.655508074063093
28599.9999998643,25.1084692078471,1.00000000419177,0.664847395809249
28699.9999998629,25.2407169921356,1.00000000405725,0.681251820035231
28799.9999998614,25.3605410001584,1.00000000451612,0.686187101694329
28899.9999998599,25.4800632563327,1.00000000407528,0.685510863509739
28999.9999998585,25.6028854226757,1.00000000420751,0.690170326692381
