Time,AGPnorm,Energy,Entropy
0,0,1,5.12548240610386e-18
99.9999999999986,0.0124422747968143,1.00000000000024,0.0328598178032944
199.999999999993,0.0316433926513857,1.00000000000166,0.0990968332538555
300,0.0594564653624786,1.00000000004811,0.209085637920888
400.000000000022,0.105094947878385,1.00000000135091,0.380653671753788
500.000000000045,0.432378606041901,1.00000000357826,0.508502197698807
600.000000000068,1.46393985776722,1.00000000471762,0.573172850496992
700.000000000091,3.28594939024743,1.00000000486258,0.59559047316938
800.000000000113,5.39265190023366,1.00000000489416,0.602115683216737
900.000000000136,7.50768640961199,1.0000000040059,0.594700833116345
1000.00000000016,9.21388800088697,1.0000000039708,0.586385507525838
1100.0000000001,10.4627807349439,1.00000000341107,0.568668937734348
1200,11.1797243785666,1.00000000298602,0.565076838787173
1299.99999999991,11.4457523492544,1.00000000260474,0.545951940205853
1399.99999999982,11.4002064695902,1.00000000218342,0.520192460790132
1499.99999999973,11.1687839639348,1.00000000263608,0.534912435029978
1599.99999999964,10.7972104429356,1.00000000364317,0.577730737095734
1699.99999999955,10.3811379814544,1.00000000208814,0.45586277436208
1799.99999999946,9.95662736435601,1.00000000369736,0.555042863779356
1899.99999999937,9.52907206553315,1.00000000221578,0.450062606383415
1999.99999999928,9.10506296233231,1.00000000387567,0.558437662592412
2099.99999999919,8.72474180058274,1.0000000021411,0.441716595930145
2199.99999999909,8.3478697915721,1.00000000294374,0.513719541098962
2299.999999999,7.99516488428391,1.00000000370569,0.550433259179173
2399.99999999891,7.69422975208434,1.00000000179492,0.44056891629577
2499.99999999882,7.40997409225608,1.00000000317251,0.533298791758942
2599.99999999873,7.14355332745428,1.00000000307865,0.542610702534848
2699.99999999864,6.88445481504673,1.00000000361052,0.551799677694438
2799.99999999855,6.68612115469343,1.00000000188823,0.449981125530251
2899.99999999846,6.51862143645766,1.00000000352474,0.519800803143727
2999.99999999837,6.34617984203441,1.00000000294543,0.53551021601325
3099.99999999828,6.17957811028339,1.00000000319298,0.571816554835966
3199.99999999819,6.01057624438269,1.0000000036193,0.556851232061634
3299.99999999809,5.86310693518781,1.00000000255072,0.511087024194925
3399.999999998,5.79793927494515,1.00000000249125,0.483163697952139
3499.99999999791,5.73048420251755,1.0000000034076,0.537866881266415
3599.99999999782,5.65419760947553,1.00000000283978,0.563298347763621
3699.99999999773,5.58544427234494,1.00000000303951,0.572839593177031
3799.99999999764,5.49043013177027,1.00000000345413,0.608413932707604
3899.99999999755,5.39396917587854,1.00000000324657,0.59695445755936
3999.99999999746,5.29334154525159,1.00000000360639,0.586890984523695
4099.99999999738,5.2014707179943,1.00000000270881,0.556824714448439
4199.99999999775,5.1838212740996,1.00000000229562,0.493956949328351
4299.99999999811,5.21325000897582,1.00000000307547,0.538839296530386
4399.99999999848,5.21943852795159,1.00000000324622,0.560134912380706
4499.99999999884,5.22012549599966,1.00000000333934,0.589458484818056
4599.9999999992,5.20572952265401,1.00000000368487,0.612186040887404
4699.99999999957,5.18926077362501,1.00000000323607,0.604631027215779
4799.99999999993,5.1686171401262,1.00000000345511,0.633151926491904
4900.00000000029,5.13184610293759,1.00000000325045,0.612497563371828
5000.00000000066,5.08430011207625,1.00000000346026,0.624540047587933
5100.00000000102,5.02858626644837,1.00000000342308,0.636623288420009
5200.00000000139,4.96849828881438,1.0000000033391,0.64166358276082
5300.00000000175,4.90535120360336,1.00000000369033,0.637913756209999
5400.00000000211,4.84276277973512,1.00000000374347,0.601532262011168
5500.00000000248,4.80064281119902,1.00000000275687,0.555721651107638
5600.00000000284,4.82993718496148,1.00000000254983,0.524109357565813
5700.00000000321,4.91397152680709,1.00000000328921,0.547497060757739
5800.00000000357,4.99051392006721,1.0000000036042,0.578069281019322
5900.00000000393,5.048464519805,1.00000000343848,0.586084065145824
6000.0000000043,5.09717864847175,1.0000000035517,0.593895781946875
6100.00000000466,5.13733341192039,1.00000000355537,0.621448810890624
6200.00000000502,5.16408248897597,1.00000000360362,0.639618800130407
6300.00000000539,5.17594084885914,1.00000000377617,0.64920511814032
6400.00000000575,5.18075027746175,1.00000000381549,0.6383494312902
6500.00000000612,5.17580608734683,1.00000000347061,0.640728631933544
6600.00000000648,5.17540339901703,1.00000000325213,0.632183699100785
6700.00000000684,5.17974863958642,1.00000000341647,0.649187226356388
6800.00000000721,5.17688042907676,1.00000000406025,0.63508863890731
6900.00000000757,5.16577001672257,1.00000000353194,0.629189993928768
7000.00000000793,5.157761430669,1.00000000374638,0.643366455100125
7100.0000000083,5.14778428664832,1.00000000402494,0.66152683817759
7200.00000000866,5.12749976582905,1.00000000343174,0.660801306481478
7300.00000000903,5.10726975645769,1.00000000337613,0.635773285096393
7400.00000000939,5.08582709818333,1.0000000038515,0.647259682216717
7500.00000000975,5.05407786109804,1.00000000391784,0.658530158594219
7600.00000001012,5.01326579057356,1.00000000398567,0.668084497597358
7700.00000001048,4.96788931146556,1.00000000350848,0.663556521907812
7800.00000001084,4.92219020618884,1.0000000038513,0.672758020563226
7900.00000001121,4.87878403925102,1.00000000431831,0.65999717842252
8000.00000001157,4.83893415233586,1.00000000406814,0.657934864695913
8100.00000001194,4.79981640079851,1.00000000400104,0.623884228582252
8200.0000000123,4.76496208710291,1.00000000373023,0.590212656389702
8300.00000001266,4.76572031944634,1.00000000299294,0.558402123039023
8400.00000001303,4.83170104341157,1.00000000301484,0.545563727319708
8500.00000001339,4.95608468392433,1.00000000359469,0.550808992661925
8600.00000001376,5.09906964699132,1.00000000418072,0.570447093942136
8700.00000001412,5.23764757751377,1.00000000428815,0.588394854387082
8800.00000001448,5.36658328487796,1.00000000373333,0.593260011159117
8900.00000001485,5.48327976314801,1.00000000397316,0.598758333768358
9000.00000001521,5.59870499485591,1.00000000428476,0.615526904770618
9100.00000001557,5.69770499357935,1.00000000431177,0.637052678963802
9200.00000001594,5.78515755749002,1.0000000040752,0.648666864021185
9300.0000000163,5.86379594860604,1.00000000418796,0.655663215420474
9400.00000001667,5.93335060502329,1.00000000407138,0.659548372650875
9500.00000001703,5.98756838902368,1.00000000409254,0.650745372381626
9600.00000001739,6.02814562635315,1.00000000391676,0.668558168623968
9700.00000001776,6.06422252532914,1.00000000419055,0.690216281993932
9800.00000001812,6.10680815127753,1.00000000418538,0.682433389183568
9900.00000001848,6.14432476430974,1.00000000424179,0.680262929136908
10000.0000000188,6.17729137507448,1.00000000465129,0.692243983371163
10100.0000000192,6.20523683593125,1.00000000406522,0.689625893299795
10200.0000000196,6.23336329209242,1.00000000450458,0.697959940799259
10300.0000000199,6.25267323761398,1.00000000442935,0.698197401055186
10400.0000000203,6.26995282687666,1.00000000417334,0.692201355137276
10500.0000000207,6.28025247291349,1.000000004234,0.6863837921746
10600.000000021,6.28837677090927,1.00000000425811,0.702487030639971
10700.0000000214,6.29537774534004,1.00000000413747,0.6887322711204
10800.0000000218,6.3010278739371,1.0000000045899,0.676500913440551
10900.0000000221,6.31883408220687,1.00000000402102,0.681341151438933
11000.0000000225,6.34408441078055,1.00000000409039,0.675642415558575
11100.0000000229,6.3772357972895,1.00000000426804,0.676234610323305
11200.0000000232,6.41728668091982,1.00000000470536,0.67671402497411
11300.0000000236,6.45107345178168,1.00000000468263,0.675115230310383
11400.0000000239,6.48793395346648,1.00000000402104,0.660385490014801
11500.0000000243,6.51774246083943,1.00000000452058,0.658206390392872
11600.0000000247,6.55185561699745,1.00000000389677,0.651546851917581
11700.000000025,6.59430291237131,1.00000000495916,0.688971332711954
11800.0000000254,6.62466761195701,1.00000000477977,0.678187193859869
11900.0000000258,6.6489676256062,1.00000000463915,0.703439734548389
12000.0000000261,6.66856389409771,1.00000000462334,0.705822419707012
12100.0000000265,6.6844682679554,1.00000000481607,0.694511885068193
12200.0000000269,6.70508559878527,1.00000000423042,0.673147015647196
12300.0000000272,6.73659909169438,1.00000000438887,0.669856126228836
12400.0000000276,6.77266056992839,1.0000000046457,0.681172657390485
12500.0000000279,6.80614996697024,1.00000000437898,0.699611392205894
12600.0000000283,6.83505199227797,1.00000000456319,0.700536763496081
12700.0000000287,6.85788002111423,1.00000000521084,0.669607982976357
12800.000000029,6.88208522581992,1.00000000449659,0.666527137762017
12900.0000000294,6.9090497681636,1.00000000505761,0.684408842647642
13000.0000000298,6.9432553714572,1.00000000439548,0.680366854922232
13100.0000000301,6.98070311066347,1.00000000475591,0.708299294025878
13200.0000000305,7.00930572709831,1.00000000471704,0.697347370543696
13300.0000000309,7.0393489766888,1.00000000523891,0.703575628685765
13400.0000000312,7.0624364211309,1.0000000048425,0.702056911476211
13500.0000000316,7.08090710376926,1.00000000467403,0.698454173110647
13600.0000000319,7.10676856321481,1.0000000043941,0.704211596031234
13700.0000000323,7.12323461807925,1.00000000490518,0.701013234978581
13800.0000000327,7.13942687500603,1.00000000460419,0.701850836187101
13900.000000033,7.157689635153,1.00000000486677,0.687307754910348
14000.0000000334,7.17458889833895,1.00000000507704,0.700754151719252
14100.0000000338,7.19197018175564,1.00000000517082,0.689268149934145
14200.0000000341,7.20950671787819,1.00000000497448,0.69757783672145
14300.0000000345,7.21796181339762,1.00000000544147,0.707775918060944
14400.0000000349,7.226477205058,1.00000000480957,0.703571374695244
14500.0000000352,7.23584491304327,1.00000000446669,0.679882270401682
14600.0000000356,7.24728181899373,1.00000000465246,0.684213341913226
14700.0000000359,7.2486188475478,1.00000000496492,0.708394387824894
14800.0000000363,7.24340159548437,1.00000000502771,0.693366346105331
14900.0000000367,7.2324811179021,1.00000000471046,0.687222607889136
15000.000000037,7.21809314688222,1.00000000508006,0.682576105529771
15100.0000000374,7.19860890583066,1.00000000528267,0.68454078262301
15200.0000000378,7.1773612724568,1.000000005391,0.702211999085908
15300.0000000381,7.15076171751217,1.00000000493336,0.699208464577732
15400.0000000385,7.12380045169779,1.0000000047102,0.698124751322286
15500.0000000389,7.09367570650124,1.00000000534192,0.706621626022444
15600.0000000392,7.06429590247676,1.00000000468744,0.703669909111833
15700.0000000396,7.03600739175126,1.00000000507016,0.686424024579254
15800.0000000399,7.00845335876685,1.00000000479366,0.710381234338723
15900.0000000403,6.98445865259413,1.00000000493058,0.712988201528449
16000.0000000407,6.9610220096585,1.00000000577124,0.715490213347058
16100.000000041,6.94450640481146,1.00000000556462,0.710176363091866
16200.0000000414,6.9254510603475,1.00000000508912,0.702687205163563
16300.0000000418,6.91721017436349,1.00000000507917,0.684036610007476
16400.0000000418,6.92026962489639,1.00000000501334,0.663077280250785
16500.0000000404,6.9485653209512,1.00000000433177,0.638119622497529
16600.0000000389,7.01178411930733,1.00000000458832,0.624019367239018
16700.0000000375,7.13098963206251,1.00000000430543,0.608282855789954
16800.000000036,7.30905153918542,1.00000000445123,0.622577999161343
16900.0000000346,7.55821190355564,1.00000000473678,0.626109564522996
17000.0000000331,7.8495895509392,1.00000000492107,0.617078055724697
17100.0000000317,8.19090135516227,1.00000000540663,0.618313598834288
17200.0000000302,8.51954626996951,1.00000000511964,0.630704301511927
17300.0000000287,8.86168510462035,1.00000000526054,0.636010142277263
17400.0000000273,9.17363313323307,1.00000000537914,0.642376927024462
17500.0000000258,9.49030044854802,1.00000000519093,0.646741818267592
17600.0000000244,9.79500895808175,1.00000000502673,0.639876579156906
17700.0000000229,10.0990610188975,1.00000000530692,0.651664810234553
17800.0000000215,10.4144275442983,1.00000000538217,0.645191467580142
17900.00000002,10.7139453764099,1.00000000533224,0.647239980234813
18000.0000000186,11.0305395427949,1.00000000500044,0.657535606055061
18100.0000000171,11.3410319729651,1.00000000496545,0.656271117711734
18200.0000000156,11.6625777018379,1.0000000060277,0.676884159068963
18300.0000000142,11.9702525177888,1.00000000562886,0.691294824050434
18400.0000000127,12.2734653497545,1.00000000541786,0.682714394873241
18500.0000000113,12.5738641289403,1.00000000548586,0.692628315596086
18600.0000000098,12.8522822023996,1.00000000560675,0.698343196929032
18700.0000000084,13.1409484783793,1.00000000529928,0.696960882587069
18800.0000000069,13.4083851684182,1.00000000629046,0.717362222496112
18900.0000000055,13.671282122986,1.00000000582609,0.69667765047856
19000.000000004,13.9246558775957,1.00000000534226,0.707201245174058
19100.0000000026,14.1604696252731,1.00000000557113,0.711217557255424
19200.0000000011,14.3950462007573,1.0000000060269,0.718538996473958
19299.9999999996,14.6228013089846,1.00000000550895,0.700151050142763
19399.9999999982,14.854531278292,1.00000000555894,0.709522809883578
19499.9999999967,15.0704783059548,1.000000005598,0.711417867721145
19599.9999999953,15.2823263327076,1.00000000595423,0.730094333095997
19699.9999999938,15.4832099557312,1.00000000547315,0.721078959463479
19799.9999999924,15.6770525692581,1.00000000617676,0.722092704657382
19899.9999999909,15.8731088316556,1.00000000577767,0.72929048141749
19999.9999999895,16.0659909387183,1.00000000552007,0.729054328457823
20099.999999988,16.2833484933068,1.00000000532443,0.721679093442408
20199.9999999865,16.5100314782323,1.00000000587888,0.727864072775792
20299.9999999851,16.7340119448441,1.00000000631231,0.720097405368475
20399.9999999836,16.9469029248131,1.00000000608693,0.692275472296399
20499.9999999822,17.1538598526079,1.00000000592205,0.720468615164619
20599.9999999807,17.3661121915538,1.00000000604476,0.734201692659573
20699.9999999793,17.5593225952297,1.0000000062016,0.722527445632576
20799.9999999778,17.7485010300408,1.00000000609369,0.72737067353277
20899.9999999764,17.9540342711459,1.00000000556308,0.703683757380812
20999.9999999749,18.1697827790839,1.00000000617328,0.716819652372596
21099.9999999734,18.3827575162396,1.00000000600838,0.729662807949412
21199.999999972,18.5965572613732,1.00000000592207,0.728830143772686
21299.9999999705,18.8160938016448,1.00000000614862,0.720062764705106
21399.9999999691,19.0377160154859,1.00000000637331,0.722770310679858
21499.9999999676,19.2544828760319,1.00000000671316,0.712852372912303
21599.9999999662,19.469515493031,1.0000000059522,0.719793909054455
21699.9999999647,19.6866116411953,1.00000000591714,0.71723273867949
21799.9999999633,19.9150656006949,1.00000000642538,0.722827812370219
21899.9999999618,20.1566079848295,1.00000000632764,0.71922712351338
21999.9999999603,20.3991522686812,1.00000000623013,0.723001147783776
22099.9999999589,20.6365718394764,1.00000000579361,0.715253197554493
22199.9999999574,20.86785093385,1.00000000634746,0.725894576093526
22299.999999956,21.0837494897246,1.0000000060845,0.729464948862044
22399.9999999545,21.2957166183695,1.00000000608014,0.71484570867425
22499.9999999531,21.5156527683298,1.00000000642297,0.720472661846372
22599.9999999516,21.7356057100067,1.00000000587415,0.721917825983693
22699.9999999502,21.9671557010809,1.00000000599612,0.722603287566243
22799.9999999487,22.206484784227,1.00000000615803,0.699739464566778
22899.9999999473,22.4539537619774,1.00000000646824,0.719785028979855
22999.9999999458,22.7019868334406,1.00000000562643,0.719601440499933
23099.9999999443,22.9495659180745,1.00000000591357,0.726013831897551
23199.9999999429,23.1943513693533,1.00000000643894,0.719052873855248
23299.9999999414,23.439748260731,1.0000000070604,0.734909577474032
23399.99999994,23.6866494744542,1.00000000648606,0.724448008234671
23499.9999999385,23.9307010823697,1.00000000662112,0.717545855317239
23599.9999999371,24.1883822500792,1.000000006145,0.711051793696672
23699.9999999356,24.452609929235,1.00000000612508,0.718539094430858
23799.9999999342,24.7088468346604,1.00000000662674,0.717747452926827
23899.9999999327,24.9558633472487,1.00000000643061,0.726928178538058
23999.9999999312,25.1979901015164,1.00000000653356,0.733876343768867
24099.9999999298,25.449562234081,1.00000000599978,0.727161624872463
24199.9999999283,25.7141470107229,1.00000000569435,0.706159440823827
24299.9999999269,25.9968785427151,1.00000000613945,0.717189196468421
24399.9999999254,26.2942104903187,1.00000000605099,0.723138049484107
24499.999999924,26.5930096232587,1.00000000649776,0.722892233396691
24599.9999999225,26.8893650554899,1.00000000704682,0.717180964286034
24699.9999999211,27.1909258426737,1.00000000637762,0.725759323726374
24799.9999999196,27.4994884171756,1.0000000062773,0.726163496586079
24899.9999999181,27.8081037306343,1.00000000604639,0.720063999143539
24999.9999999167,28.1107261439873,1.00000000655198,0.720672603073066
25099.9999999152,28.4043205334052,1.00000000699332,0.742444058829071
25199.9999999138,28.6937271357988,1.00000000624764,0.726154536395429
25299.9999999123,28.9904119644009,1.00000000600171,0.729012442226774
25399.9999999109,29.293803416583,1.00000000612416,0.725950519250646
25499.9999999094,29.6012041166972,1.00000000718234,0.7283477837611
25599.999999908,29.9103769681977,1.00000000695573,0.728551811985063
25699.9999999065,30.2209600694396,1.00000000685631,0.721468971865545
25799.9999999051,30.5322962983622,1.00000000684347,0.714694224598735
25899.9999999036,30.8555114979923,1.00000000656903,0.723622815158428
25999.9999999021,31.1838477770913,1.00000000657822,0.718687018093833
26099.9999999007,31.5109701156403,1.00000000685058,0.729939049615452
26199.9999998992,31.8322617051233,1.0000000064331,0.722188018876129
26299.9999998978,32.1503516835425,1.0000000071419,0.732943388264283
26399.9999998963,32.4638164808704,1.00000000674668,0.735080335255751
26499.9999998949,32.7830266299069,1.00000000646057,0.715932194279115
26599.9999998934,33.118479860909,1.0000000059809,0.713438849011668
26699.999999892,33.4673917484628,1.00000000657045,0.711904935887311
26799.9999998905,33.8330612795915,1.00000000744801,0.71390513586281
26899.999999889,34.2049960959616,1.00000000712724,0.732042679296097
26999.9999998876,34.5770480299239,1.00000000713402,0.736327922110694
27099.9999998861,34.9545587879345,1.00000000671366,0.728866455574485
27199.9999998847,35.3249115521642,1.00000000748578,0.731305012223341
27299.9999998832,35.6931222855945,1.00000000725869,0.725775941366033
27399.9999998818,36.0590287130691,1.0000000072497,0.728205955609186
27499.9999998803,36.4240061461844,1.0000000071401,0.707247288584624
27599.9999998789,36.7904594361389,1.00000000652262,0.716377868231828
27699.9999998774,37.1541229639629,1.00000000647951,0.718911023695484
27799.9999998759,37.5219100649198,1.00000000673714,0.713691809849654
27899.9999998745,37.8783301277427,1.00000000753346,0.730728898778816
27999.999999873,38.2376851903301,1.00000000708557,0.726364867825898
28099.9999998716,38.6034383906325,1.00000000750684,0.729453338112164
28199.9999998701,38.978584310765,1.00000000648908,0.718931177312865
28299.9999998687,39.3609828378712,1.000000006815,0.729212243390014
28399.9999998672,39.7349407026925,1.00000000733559,0.731734076432424
28499.9999998658,40.1077081218534,1.0000000066317,0.724409314321092
28599.9999998643,40.4836489367655,1.00000000739188,0.712548657963447
28699.9999998629,40.8734374997045,1.00000000745703,0.730797069243809
28799.9999998614,41.2695782444446,1.00000000748633,0.726528124093874
28899.9999998599,41.6668636913846,1.00000000804151,0.74368372115197
28999.9999998585,42.0603223489316,1.00000000755552,0.730644463714368
29099.999999857,42.4568465305243,1.00000000709068,0.730387962346496
