Time,AGPnorm,Energy,Entropy
0,0,1,-1.37547125507552e-17
99.9999999999986,1.90307454101086e-05,1.00000000000096,0.000856436994759441
199.999999999993,0.00169658532037643,0.999999999999556,0.00136437154751564
300,0.00431444395825954,1.0000000000008,0.00241942847230462
400.000000000022,0.0060069614612031,1.00000000000032,0.00411449852640362
500.000000000045,0.0072084913205064,0.999999999999747,0.00557597029815111
600.000000000068,0.0102640415065216,1.0000000000011,0.00776554483601807
700.000000000091,0.0128754705939096,0.999999999999608,0.00993857107369363
800.000000000113,0.0166463284614762,1.00000000000062,0.0122844899640346
900.000000000136,0.0206983479998858,1.00000000000055,0.0150762977221913
1000.00000000016,0.024003323147246,0.999999999999514,0.0177712593584819
1100.0000000001,0.0288155277628306,1.0000000000012,0.0208466599202157
1200,0.0339468520967318,0.999999999999765,0.0240420085072837
1299.99999999991,0.0391060145336084,1.00000000000033,0.0273463538561263
1399.99999999982,0.0446740126007004,1.00000000000077,0.0309565093564049
1499.99999999973,0.050272623190614,0.999999999999384,0.0345724570424025
1599.99999999964,0.0568793790421931,1.00000000000121,0.0384468158890782
1699.99999999955,0.0636304885719395,0.999999999999976,0.0424956007598549
1799.99999999946,0.069871031303744,0.999999999999962,0.0466562432566507
1899.99999999937,0.0767057476003731,1.00000000000102,0.0510350926282747
1999.99999999928,0.0842558011685632,0.9999999999994,0.0555178180579522
2099.99999999919,0.0921807685958192,1.00000000000107,0.0602438821007912
2199.99999999909,0.099924392828327,1.00000000000017,0.0651391594347804
2299.999999999,0.10718497642652,0.999999999999626,0.070185247215778
2399.99999999891,0.115086686162018,1.00000000000128,0.0754455157040273
2499.99999999882,0.123889012047725,0.999999999999536,0.0809148290252963
2599.99999999873,0.13239707985434,1.00000000000074,0.0866487070940341
2699.99999999864,0.140682914872353,1.00000000000035,0.0925618219182024
2799.99999999855,0.148949480718125,0.999999999999412,0.0987123957826392
2899.99999999846,0.15772434261698,1.00000000000146,0.105174184221574
2999.99999999837,0.166956617080153,0.999999999999761,0.111951058568604
3099.99999999828,0.175469474466123,1.00000000000035,0.11907750757467
3199.99999999819,0.183940465842674,1.00000000000066,0.126508922447598
3299.99999999809,0.192918141660624,0.99999999999947,0.134400100107819
3399.999999998,0.202159482855912,1.00000000000164,0.142857675720653
3499.99999999791,0.211123278427688,1.00000000000047,0.151874999145486
3599.99999999782,0.219440171505729,1.00000000000115,0.161539641852269
3699.99999999773,0.22810206617956,1.0000000000036,0.171921787932751
3799.99999999764,0.236922939425479,1.00000000000482,0.183196682710936
3899.99999999755,0.24674360655807,1.00000000001122,0.195324725239659
3999.99999999746,0.255039087166237,1.00000000001759,0.208099961345448
4099.99999999738,0.263600395962727,1.00000000002773,0.221335297965352
4199.99999999775,0.276224028318791,1.00000000004269,0.234931463053734
4299.99999999811,0.286376876318949,1.00000000005859,0.248696322244592
4399.99999999848,0.305588871220331,1.00000000007706,0.262510335738042
4499.99999999884,0.328320793811636,1.00000000009743,0.276036721723341
4599.9999999992,0.358702843488486,1.00000000012199,0.289322029259841
4699.99999999957,0.413723512251614,1.0000000001455,0.302426005393379
4799.99999999993,0.479125276259137,1.00000000016986,0.315197726635408
4900.00000000029,0.581297243187866,1.00000000020114,0.327645584667159
5000.00000000066,0.722447773049389,1.00000000023627,0.339562235357145
5100.00000000102,0.904172832430374,1.00000000026059,0.351395829750821
5200.00000000139,1.1591336228462,1.0000000002881,0.36286109176982
5300.00000000175,1.47592680434713,1.00000000031626,0.373853464979684
5400.00000000211,1.88260796143917,1.00000000033425,0.384519501571323
5500.00000000248,2.39427403680584,1.00000000036514,0.394627827439631
5600.00000000284,3.00941912311295,1.0000000003787,0.404616837087738
5700.00000000321,3.76200052159717,1.0000000004133,0.414161110420834
5800.00000000357,4.65193520952012,1.00000000040884,0.423223225345675
5900.00000000393,5.69551418923242,1.00000000044852,0.431992703853592
6000.0000000043,6.91112017987047,1.00000000045885,0.440375065480502
6100.00000000466,8.30142034475031,1.00000000047918,0.448473017977662
6200.00000000502,9.88452653298577,1.00000000050984,0.456132079901247
6300.00000000539,11.669241874294,1.00000000051974,0.463233762566651
6400.00000000575,13.6611799587371,1.00000000052787,0.470415269031143
6500.00000000612,15.8669334245357,1.00000000055473,0.477028043553106
6600.00000000648,18.2991624632735,1.00000000054656,0.483397981644894
6700.00000000684,20.9549896191426,1.0000000005667,0.489401285845349
6800.00000000721,23.8407784510723,1.00000000056673,0.494978821843589
6900.00000000757,26.9634454204992,1.00000000058596,0.500474650232134
7000.00000000793,30.3073003998196,1.00000000059148,0.505733367480146
7100.0000000083,33.8932885276978,1.00000000058938,0.510338740394241
7200.00000000866,37.706285484917,1.0000000005924,0.515007740963643
7300.00000000903,41.7373830635767,1.00000000063567,0.519281092060588
7400.00000000939,46.005257590718,1.00000000062301,0.523294218655077
7500.00000000975,50.4734052242299,1.00000000060243,0.527370355191391
7600.00000001012,55.1615604791057,1.00000000062498,0.530595048526832
7700.00000001048,60.0567528947849,1.00000000061834,0.534188011086293
7800.00000001084,65.1289920965512,1.00000000062078,0.537535029049613
7900.00000001121,70.4096383050399,1.00000000062387,0.540202123598897
8000.00000001157,75.8519692842485,1.00000000059752,0.543236103840863
8100.00000001194,81.4642408233935,1.0000000006152,0.545640052730337
8200.0000000123,87.2465042077766,1.00000000062293,0.548087528626663
8300.00000001266,93.1495108300181,1.0000000006342,0.550428349717914
8400.00000001303,99.2113629011767,1.0000000006262,0.552214620033834
8500.00000001339,105.387854643234,1.00000000060198,0.554503410557204
8600.00000001376,111.669170172143,1.00000000060612,0.556326723150878
8700.00000001412,118.072738007266,1.00000000060528,0.557756942747848
8800.00000001448,124.539105128061,1.00000000061512,0.559467968950426
8900.00000001485,131.101835489852,1.00000000061101,0.560713674672666
9000.00000001521,137.730585933188,1.0000000006152,0.562005542943727
9100.00000001557,144.39729730912,1.00000000061805,0.563366085794785
9200.00000001594,151.132657192588,1.00000000058382,0.564247613550945
9300.0000000163,157.8774723559,1.00000000060165,0.565300844726037
9400.00000001667,164.653329049224,1.00000000059243,0.566262398714927
9500.00000001703,171.448880600314,1.00000000057216,0.566850803990356
9600.00000001739,178.222582299657,1.0000000005751,0.567887443254031
9700.00000001776,185.01165892453,1.00000000055819,0.568108239335112
9800.00000001812,191.764448542439,1.00000000056436,0.568762697785075
9900.00000001848,198.489765483071,1.00000000055071,0.56947505143891
10000.0000000188,205.19151340273,1.00000000054918,0.569519453164035
10100.0000000192,211.823256642383,1.00000000053798,0.57046402894259
10200.0000000196,218.420271233456,1.00000000054741,0.570111905717741
10300.0000000199,224.945965302531,1.00000000054276,0.570689715415586
10400.0000000203,231.39452463523,1.00000000053606,0.570816479441476
10500.0000000207,237.782566758617,1.00000000054233,0.570655080167707
10600.000000021,244.065535786238,1.00000000052902,0.571087552522942
10700.0000000214,250.271354271476,1.00000000050918,0.570796668694056
10800.0000000218,256.379266271855,1.00000000054218,0.571057463452751
10900.0000000221,262.374746423413,1.00000000051715,0.570831411519304
11000.0000000225,268.278168830125,1.00000000049995,0.57095157183116
11100.0000000229,274.052765042092,1.00000000050698,0.571054562021313
11200.0000000232,279.717842737372,1.00000000050784,0.570242710913763
11300.0000000236,285.264426294304,1.00000000048779,0.571036754861444
11400.0000000239,290.673598323791,1.00000000047841,0.570465396108822
11500.0000000243,295.967279793856,1.00000000049615,0.569557187762257
11600.0000000247,301.116746699299,1.00000000048807,0.570564413579004
11700.000000025,306.135329362549,1.0000000004629,0.569503088166064
11800.0000000254,311.020897637778,1.00000000046405,0.569330785241014
11900.0000000258,315.754459519581,1.0000000004732,0.569671167384642
12000.0000000261,320.359043820552,1.0000000004603,0.568437608760683
12100.0000000265,324.809377788551,1.00000000045785,0.568763372651365
12200.0000000269,329.116235209615,1.00000000046655,0.568526390446517
12300.0000000272,333.284678572759,1.00000000045705,0.567101092054597
12400.0000000276,337.29262536418,1.00000000044047,0.567989963613926
12500.0000000279,341.164686678146,1.00000000041918,0.567166478561242
12600.0000000283,344.88332069756,1.0000000004146,0.566633489391035
12700.0000000287,348.450178950854,1.0000000004246,0.566881989510027
12800.000000029,351.87924285196,1.00000000041804,0.565850587680021
12900.0000000294,355.147621515408,1.00000000041133,0.565521596956436
13000.0000000298,358.277315060223,1.00000000041174,0.565561321528719
13100.0000000301,361.259771808321,1.00000000040844,0.564752559926895
13200.0000000305,364.091066818412,1.0000000003988,0.564555543604488
13300.0000000309,366.786679512437,1.00000000039599,0.564315645182126
13400.0000000312,369.330059231926,1.00000000039331,0.563418804658425
13500.0000000316,371.735767313334,1.00000000039508,0.563413750311273
13600.0000000319,374.002276322656,1.00000000039086,0.56389016151575
13700.0000000323,376.125315875833,1.00000000038963,0.563062779500719
13800.0000000327,378.118466809575,1.00000000037471,0.561247108176952
13900.000000033,379.967591967779,1.00000000038101,0.561335433883157
14000.0000000334,381.686544816674,1.00000000037547,0.562938116468749
14100.0000000338,383.279107775038,1.00000000037102,0.563243000273386
14200.0000000341,384.737256857793,1.00000000036621,0.561425260844886
14300.0000000345,386.074906902577,1.00000000036795,0.558902428894531
14400.0000000349,387.280853140471,1.00000000035088,0.558938004647763
14500.0000000352,388.365007130454,1.0000000003484,0.561948266966438
14600.0000000356,389.335603434878,1.0000000003602,0.563671379790263
14700.0000000359,390.189606528715,1.00000000034695,0.56233361152993
14800.0000000363,390.935487043822,1.00000000033447,0.556800101967605
14900.0000000367,391.56178707169,1.00000000032792,0.554261290345754
15000.000000037,392.073159440188,1.00000000033631,0.559116703618128
15100.0000000374,392.485802664642,1.00000000033993,0.565334077956207
15200.0000000378,392.804622353572,1.00000000035591,0.565414636254627
15300.0000000381,393.035595238547,1.00000000034175,0.558070191382916
15400.0000000385,393.166674596115,1.00000000029873,0.549384513757403
15500.0000000389,393.189038567602,1.00000000031239,0.551711108570008
15600.0000000392,393.122092324707,1.00000000033477,0.560035203048083
15700.0000000396,392.97698056448,1.0000000003723,0.570018047623121
15800.0000000399,392.774049370636,1.00000000034356,0.563808601519602
15900.0000000403,392.499391763607,1.00000000033838,0.553989643416572
16000.0000000407,392.139748476121,1.00000000028254,0.542125126753833
16100.000000041,391.688003736287,1.00000000028458,0.544458452065975
16200.0000000414,391.156231789625,1.00000000032615,0.558796563373978
16300.0000000418,390.577722917701,1.00000000038117,0.571815160061948
16400.0000000418,389.965682717302,1.00000000037018,0.567517624366294
16500.0000000404,389.307169027207,1.00000000033379,0.552436785919325
16600.0000000389,388.585139116963,1.00000000027895,0.535201000185303
16700.0000000375,387.778265336287,1.00000000025767,0.531149257257761
16800.000000036,386.903436526729,1.00000000029983,0.547790822681737
16900.0000000346,385.989337360654,1.00000000038882,0.569131137974952
17000.0000000331,385.060114422923,1.00000000040174,0.574282155101877
17100.0000000317,384.119943403912,1.00000000037579,0.561357401275215
17200.0000000302,383.143135560606,1.0000000003124,0.537520445650692
17300.0000000287,382.106296863301,1.00000000023863,0.518536459322438
17400.0000000273,380.99937520872,1.00000000024919,0.520706945443768
17500.0000000258,379.841582824694,1.00000000032368,0.547483473253837
17600.0000000244,378.670749187761,1.00000000043033,0.572025969679211
17700.0000000229,377.505252554664,1.00000000043463,0.57596264537431
17800.0000000215,376.345021208292,1.00000000040668,0.559893935679009
17900.00000002,375.16653379575,1.00000000031314,0.530398130503227
18000.0000000186,373.938989073452,1.00000000023757,0.506273361142264
18100.0000000171,372.655006154253,1.00000000022074,0.503129163306347
18200.0000000156,371.324655035143,1.00000000029491,0.530619388663412
18300.0000000142,369.983219411444,1.00000000040942,0.565297061962524
18400.0000000127,368.657761113695,1.00000000045913,0.579243394181108
18500.0000000113,367.352147042624,1.00000000044493,0.569588611686263
18600.0000000098,366.054022693897,1.00000000036498,0.54235968408786
18700.0000000084,364.734045240643,1.00000000028058,0.509725582688708
18800.0000000069,363.372671975307,1.00000000020575,0.489085259542942
18900.0000000055,361.965922088728,1.00000000022095,0.494759502204964
19000.000000004,360.530078932219,1.00000000031715,0.530308092536763
19100.0000000026,359.097559434488,1.00000000044663,0.566569521238818
19200.0000000011,357.687867705265,1.00000000048454,0.579755467698247
19299.9999999996,356.304616734218,1.00000000046132,0.570066941437278
19399.9999999982,354.937026574504,1.00000000038943,0.543358582955862
19499.9999999967,353.560511305647,1.00000000030054,0.508694665377868
19599.9999999953,352.158418458578,1.00000000022296,0.48258737261866
19699.9999999938,350.720522366881,1.00000000021295,0.479471141923912
19799.9999999924,349.256821608124,1.00000000027365,0.505079128664521
19899.9999999909,347.789752608148,1.00000000040118,0.544708821701423
19999.9999999895,346.337556486253,1.00000000045318,0.571470812673881
20099.999999988,344.912903962968,1.00000000049397,0.576457894177667
20199.9999999865,343.514268591603,1.00000000044917,0.561293555987583
20299.9999999851,342.128417772529,1.00000000038371,0.53296997068843
20399.9999999836,340.739998013951,1.00000000029417,0.499227338501726
20499.9999999822,339.332633283931,1.00000000023964,0.477768573895652
20599.9999999807,337.904773705751,1.00000000022736,0.475994228034639
20699.9999999793,336.460338486758,1.00000000027455,0.494051964263708
20799.9999999778,335.012181697586,1.00000000035995,0.526956607673827
20899.9999999764,333.576187725,1.00000000041997,0.557307891619011
20999.9999999749,332.161371655543,1.00000000048118,0.570793869743404
21099.9999999734,330.771176749893,1.00000000045509,0.564972630821596
21199.999999972,329.400807220078,1.00000000041919,0.544318754289442
21299.9999999705,328.038882864246,1.00000000034546,0.517703536954146
21399.9999999691,326.676244728244,1.00000000028778,0.492582434154909
21499.9999999676,325.304269705765,1.00000000024738,0.478166643169174
21599.9999999662,323.922840430069,1.0000000002539,0.478348512812569
21699.9999999647,322.534889409657,1.00000000028832,0.490892451276249
21799.9999999633,321.146410551711,1.00000000033473,0.514055639672039
21899.9999999618,319.767358077535,1.00000000040903,0.539732309855756
21999.9999999603,318.403954428575,1.00000000046756,0.556054832862491
22099.9999999589,317.058925362307,1.00000000046646,0.557717504780831
22199.9999999574,315.732137659194,1.00000000043365,0.545887099022413
22299.999999956,314.417763983962,1.00000000040242,0.528012633451633
22399.9999999545,313.111111657704,1.00000000035689,0.509636987180638
22499.9999999531,311.806545912472,1.0000000002943,0.493393708402907
22599.9999999516,310.501222149927,1.00000000027155,0.484339637884905
22699.9999999502,309.195458990279,1.00000000027651,0.483597838758194
22799.9999999487,307.889188447909,1.00000000029741,0.490602052242931
22899.9999999473,306.58701609645,1.00000000032913,0.504177596119477
22999.9999999458,305.291684140133,1.00000000037462,0.51959594624688
23099.9999999443,304.006669979763,1.00000000040022,0.534706090131487
23199.9999999429,302.734984585944,1.00000000042659,0.541061598917263
23299.9999999414,301.476394884202,1.00000000042874,0.540528935526668
23399.99999994,300.229999889124,1.0000000004126,0.532512486214414
23499.9999999385,298.994092432021,1.00000000037924,0.521699541153303
23599.9999999371,297.765718630914,1.00000000034117,0.511533115752634
23699.9999999356,296.54403529412,1.00000000031708,0.502940640943814
23799.9999999342,295.327149316786,1.00000000029231,0.496103847564721
23899.9999999327,294.115866604728,1.0000000002926,0.493667728410368
23999.9999999312,292.909718873326,1.00000000029188,0.492451482818526
24099.9999999298,291.709161541083,1.00000000030732,0.495728711653864
24199.9999999283,290.515716857127,1.00000000032915,0.502525563852388
24299.9999999269,289.33002543948,1.00000000035223,0.511193805340092
24399.9999999254,288.153499186957,1.00000000037026,0.520358267900672
24499.999999924,286.987029698991,1.00000000040006,0.525140217649823
24599.9999999225,285.830101066239,1.00000000040287,0.529843353473728
24699.9999999211,284.682872753263,1.00000000037575,0.527656241920774
24799.9999999196,283.544604099525,1.00000000037777,0.522563653408984
24899.9999999181,282.414691877802,1.00000000035695,0.517799185381814
24999.9999999167,281.293159972066,1.00000000034906,0.51489541836206
25099.9999999152,280.17961420973,1.00000000034249,0.514202672293482
25199.9999999138,279.074751848519,1.00000000031814,0.510345153537389
25299.9999999123,277.978107036891,1.00000000031056,0.505016664100512
25399.9999999109,276.890202666621,1.0000000002959,0.498446780099205
25499.9999999094,275.810685111519,1.0000000002939,0.493639954848557
25599.999999908,274.739621819959,1.00000000029209,0.49172083015648
25699.9999999065,273.677625144344,1.00000000031652,0.496357630147792
25799.9999999051,272.624570258457,1.00000000035181,0.503066950582441
25899.9999999036,271.580000418527,1.00000000036655,0.513643532011796
25999.9999999021,270.543654283188,1.00000000039868,0.519268620992327
26099.9999999007,269.514773039834,1.00000000040496,0.525101790306413
26199.9999998992,268.493408337034,1.00000000037135,0.527094886805795
26299.9999998978,267.4800570011,1.00000000034371,0.522708324882419
26399.9999998963,266.474820999448,1.00000000033783,0.51876344274398
26499.9999998949,265.47801196156,1.00000000034501,0.518320691792202
26599.9999998934,264.489226217685,1.00000000036126,0.525828047576427
26699.999999892,263.508723928585,1.00000000037345,0.527783386824742
26799.9999998905,262.536710631988,1.00000000035126,0.521039445387246
26899.999999889,261.574129888549,1.00000000033175,0.510645447031655
26999.9999998876,260.621787643052,1.00000000030333,0.49812908521878
27099.9999998861,259.680287280906,1.00000000025919,0.484210176863922
27199.9999998847,258.750936955031,1.00000000025762,0.477298127503183
27299.9999998832,257.833285907873,1.00000000029198,0.480541048091843
27399.9999998818,256.926071454695,1.00000000032967,0.491033403111354
27499.9999998803,256.027462216794,1.00000000036721,0.502834046487833
27599.9999998789,255.135350850214,1.00000000040056,0.514161699159324
27699.9999998774,254.247706579718,1.00000000042084,0.520683119620039
27799.9999998759,253.364655584049,1.00000000039789,0.521660213586764
27899.9999998745,252.487359145706,1.00000000036176,0.522040690065733
27999.999999873,251.617384467289,1.00000000034135,0.520134103509854
28099.9999998716,250.755390925693,1.0000000003246,0.515929028935108
28199.9999998701,249.900960611569,1.00000000033282,0.519623218061578
28299.9999998687,249.052760710424,1.00000000038945,0.531653960906264
28399.9999998672,248.209663056757,1.00000000039968,0.538187641906513
28499.9999998658,247.372007484498,1.00000000040311,0.533020678761882
28599.9999998643,246.541218134365,1.0000000003521,0.520326477514767
28699.9999998629,245.719941101104,1.0000000003189,0.506499854788594
28799.9999998614,244.91029234978,1.00000000027255,0.489609107795189
28899.9999998599,244.115016663554,1.00000000023969,0.472142679692391
