Time,AGPnorm,Energy,Entropy
0,0,1,-7.52805228396517e-17
99.9999999999986,0.000518112009444869,1.00000000000238,0.00189313497242526
199.999999999993,0.00335891036624018,1.00000000000322,0.00576235744454237
300,0.00713743019344177,1.00000000000121,0.0107512455228753
400.000000000022,0.0111633254359348,0.999999999999766,0.0168354667753045
500.000000000045,0.0158256313066972,1.00000000000111,0.0242371581297456
600.000000000068,0.0219271618556124,1.00000000000309,0.0329014840920617
700.000000000091,0.0287854715879155,1.00000000000232,0.0424003437371674
800.000000000113,0.0361331188801577,1.00000000000031,0.0525584090342313
900.000000000136,0.0442061987482531,1.00000000000029,0.0636979903513792
1000.00000000016,0.0527702066014961,1.00000000000216,0.0760047415076701
1100.0000000001,0.0618685514613805,1.00000000000297,0.0895399922211154
1200,0.0710476824051018,1.0000000000013,0.104070966608792
1299.99999999991,0.0807870971133166,1.00000000000026,0.11986460947093
1399.99999999982,0.0904875320973014,1.00000000000152,0.137484225479097
1499.99999999973,0.100217859420648,1.00000000000377,0.157384308766397
1599.99999999964,0.11042195883806,1.00000000000607,0.179950801648883
1699.99999999955,0.121230816015959,1.00000000001286,0.205398627023041
1799.99999999946,0.131726663495005,1.00000000003415,0.234009923582002
1899.99999999937,0.142108945919568,1.00000000007293,0.265078104531077
1999.99999999928,0.167677541086551,1.00000000012025,0.296904669242555
2099.99999999919,0.227747185836681,1.00000000017699,0.327561186341469
2199.99999999909,0.33590668710789,1.00000000025598,0.355981981523358
2299.999999999,0.520999739939931,1.00000000031994,0.382226115935064
2399.99999999891,0.849436500087935,1.00000000041722,0.405765152274854
2499.99999999882,1.39663513414478,1.00000000045487,0.426952123485187
2599.99999999873,2.20526105418931,1.00000000052025,0.445445510927638
2699.99999999864,3.30943644362271,1.00000000056386,0.461938540601535
2799.99999999855,4.76680733266583,1.00000000064276,0.476492851417513
2899.99999999846,6.64243647898253,1.00000000064435,0.489406157246503
2999.99999999837,8.96764047452266,1.0000000007101,0.500258391863169
3099.99999999828,11.7342392884064,1.0000000007273,0.509796418274488
3199.99999999819,14.935728006337,1.00000000075915,0.51809117832347
3299.99999999809,18.5749940885025,1.00000000075287,0.525308307535027
3399.999999998,22.6502984472659,1.00000000077123,0.531074501554219
3499.99999999791,27.128420338956,1.00000000075596,0.535945949853796
3599.99999999782,31.9517668996981,1.00000000075612,0.540389601814896
3699.99999999773,37.0738930528907,1.00000000076375,0.543933602259028
3799.99999999764,42.4634728630855,1.00000000076504,0.546171101825504
3899.99999999755,48.0871273591582,1.00000000076566,0.548085036609175
3999.99999999746,53.8793274898583,1.00000000074086,0.550416221102877
4099.99999999738,59.7757136828733,1.00000000076592,0.550510094134808
4199.99999999775,65.7320360737723,1.00000000070928,0.551552794240452
4299.99999999811,71.7157705975838,1.00000000070813,0.551719294391142
4399.99999999848,77.6880606085998,1.00000000071238,0.551486750785014
4499.99999999884,83.5948199079984,1.00000000068668,0.550650376604742
4599.9999999992,89.3879329398252,1.0000000006767,0.550110721692746
4699.99999999957,95.0416165367098,1.00000000064898,0.549734260688734
4799.99999999993,100.539888036644,1.00000000065599,0.547900671068796
4900.00000000029,105.852304381892,1.00000000063401,0.547081104555484
5000.00000000066,110.941562180453,1.00000000061752,0.546132192783575
5100.00000000102,115.789014571503,1.00000000062195,0.544045757718098
5200.00000000139,120.386991319051,1.00000000059609,0.543559269221327
5300.00000000175,124.732442052614,1.00000000058764,0.542181887212379
5400.00000000211,128.806648296402,1.00000000056812,0.540322820557533
5500.00000000248,132.596992168051,1.00000000056903,0.538352641316406
5600.00000000284,136.101459374862,1.00000000055556,0.538393890626294
5700.00000000321,139.325730716004,1.00000000053414,0.535856490561224
5800.00000000357,142.266574329978,1.00000000050643,0.532385057017218
5900.00000000393,144.919211247331,1.0000000005143,0.53278197062758
6000.0000000043,147.28891017582,1.00000000049897,0.534924936309044
6100.00000000466,149.383975352596,1.00000000047677,0.529526954908213
6200.00000000502,151.205286951898,1.00000000044285,0.522493072378011
6300.00000000539,152.759176237571,1.00000000044171,0.527091470927048
6400.00000000575,154.067197008802,1.00000000047668,0.536239344360125
6500.00000000612,155.145589158551,1.00000000047103,0.529600130852225
6600.00000000648,155.980571170043,1.00000000039668,0.512426856092998
6700.00000000684,156.56482933184,1.00000000038959,0.51325282597301
6800.00000000721,156.941351516899,1.00000000046217,0.535786883566187
6900.00000000757,157.169008025647,1.00000000047309,0.544300472388741
7000.00000000793,157.246196753726,1.00000000044092,0.520439119838078
7100.0000000083,157.117991425658,1.00000000033608,0.491215126117587
7200.00000000866,156.776986704899,1.00000000035621,0.503738365311312
7300.00000000903,156.305154807974,1.00000000047045,0.542304315645985
7400.00000000939,155.786318848813,1.00000000051069,0.55643823586513
7500.00000000975,155.217361120543,1.000000000438,0.528331312075417
7600.00000001012,154.51802196114,1.00000000030738,0.476610788502673
7700.00000001048,153.637024068685,1.00000000025739,0.465054389576434
7800.00000001084,152.633413493491,1.00000000041384,0.515671926921389
7900.00000001121,151.612900448197,1.00000000055625,0.558156101792264
8000.00000001157,150.631198485206,1.00000000057576,0.56068780860412
8100.00000001194,149.656937000162,1.00000000046282,0.520186521634333
8200.0000000123,148.600217744736,1.00000000027644,0.449633224885091
8300.00000001266,147.408610749944,1.00000000020589,0.42469430746639
8400.00000001303,146.1246319196,1.00000000035382,0.48181978779529
8500.00000001339,144.838467091116,1.0000000005351,0.541748037709878
8600.00000001376,143.613256368392,1.00000000064443,0.563872513669077
8700.00000001412,142.454896991877,1.00000000060988,0.553642719637645
8800.00000001448,141.314102283044,1.00000000046931,0.496860142668241
8900.00000001485,140.120771286821,1.00000000025052,0.41401437379851
9000.00000001521,138.841456692055,1.00000000019649,0.384214791669987
9100.00000001557,137.507407962722,1.00000000033449,0.438235048298085
9200.00000001594,136.174026270826,1.00000000051721,0.512435769965899
9300.0000000163,134.885659551255,1.00000000061591,0.549877434101826
9400.00000001667,133.663836746059,1.00000000065608,0.555202165288664
9500.00000001703,132.499829542581,1.00000000058401,0.537946959241811
9600.00000001739,131.356874442801,1.00000000043389,0.486044744763683
9700.00000001776,130.192207245512,1.00000000027733,0.406538355076175
9800.00000001812,128.985790188961,1.00000000019037,0.360647916030689
9900.00000001848,127.75081696499,1.0000000002549,0.384993067180662
10000.0000000188,126.514902774975,1.00000000039263,0.453620083736924
10100.0000000192,125.29958069573,1.00000000056458,0.511890590287042
10200.0000000196,124.119272043459,1.0000000006358,0.536676062480286
10300.0000000199,122.98286885807,1.00000000060722,0.543281376142242
10400.0000000203,121.888185959051,1.00000000056456,0.535984669495069
10500.0000000207,120.82004477122,1.0000000004764,0.5057491745209
10600.000000021,119.758772453655,1.00000000037067,0.452874413360582
10700.0000000214,118.692440811683,1.00000000029606,0.397809646145728
10800.0000000218,117.62328708255,1.00000000024821,0.36879718999557
10900.0000000221,116.561695454585,1.00000000028306,0.387351111471843
11000.0000000225,115.515477578764,1.00000000036524,0.430353733121719
11100.0000000229,114.486053979533,1.00000000046339,0.481647375027394
11200.0000000232,113.472748585782,1.00000000052335,0.512251366041907
11300.0000000236,112.476646460064,1.00000000053461,0.519123962401318
11400.0000000239,111.4998313331,1.00000000057886,0.524703391763589
11500.0000000243,110.543680802817,1.00000000057676,0.534947692059974
11600.0000000247,109.606976192647,1.00000000051343,0.527662109093227
11700.000000025,108.685347262326,1.00000000043582,0.489455756243717
11800.0000000254,107.775999736298,1.00000000031632,0.440953448776354
11900.0000000258,106.882446772653,1.00000000027658,0.404331823688015
12000.0000000261,106.011701117516,1.00000000029355,0.391231465761167
12100.0000000265,105.168313447981,1.0000000003282,0.401039181492357
12200.0000000269,104.350667574794,1.00000000038512,0.432227640318132
12300.0000000272,103.552811078334,1.00000000041734,0.460073584334927
12400.0000000276,102.76862564488,1.00000000045187,0.485926687884056
12500.0000000279,101.994891523581,1.00000000044221,0.503191592561724
12600.0000000283,101.231678440099,1.00000000042821,0.500258568455447
12700.0000000287,100.477219377036,1.00000000046235,0.49757772909577
12800.000000029,99.7265492671468,1.00000000056133,0.511714886142813
12900.0000000294,98.9768870558567,1.00000000059167,0.531133143398312
13000.0000000298,98.2308559983452,1.00000000056047,0.539845698347525
13100.0000000301,97.4938652172956,1.00000000050512,0.521162971049198
13200.0000000305,96.7721515550061,1.0000000003733,0.478255980962173
13300.0000000309,96.0749213622887,1.00000000026845,0.43211201750958
13400.0000000312,95.4118802072302,1.00000000025562,0.402387211231175
13500.0000000316,94.7855777884518,1.00000000031474,0.396005751658811
13600.0000000319,94.1906355519491,1.00000000039658,0.407980095016185
13700.0000000323,93.6194085841496,1.00000000044123,0.431943332440626
13800.0000000327,93.0644250281064,1.00000000045866,0.460771398482441
13900.000000033,92.5181961717488,1.00000000047961,0.47953087350164
14000.0000000334,91.9765290450292,1.00000000045933,0.490643308177239
14100.0000000338,91.4390177659067,1.00000000042979,0.496123049648184
14200.0000000341,90.9099764430566,1.00000000038332,0.497379175365921
14300.0000000345,90.3933847762937,1.00000000035036,0.492584987216713
14400.0000000349,89.8873495936658,1.00000000038508,0.488739982125789
14500.0000000352,89.3819154680172,1.00000000048816,0.494119769778066
14600.0000000356,88.8663357173157,1.00000000057554,0.509123986192622
14700.0000000359,88.3365015522195,1.00000000060919,0.52515586112234
14800.0000000363,87.796188943268,1.0000000005847,0.536742992792664
14900.0000000367,87.2533281275203,1.00000000052199,0.533008789050807
15000.000000037,86.7177577400047,1.00000000044683,0.511203778649383
15100.0000000374,86.1994486431204,1.00000000036131,0.476836581274319
15200.0000000378,85.7097623175679,1.0000000002836,0.441578785261738
15300.0000000381,85.2588546927034,1.00000000026666,0.419494659221482
15400.0000000385,84.8509579821786,1.00000000028721,0.407930464048118
15500.0000000389,84.4814427167317,1.00000000033272,0.407329879991431
15600.0000000392,84.1396018146595,1.00000000039416,0.424267128154817
15700.0000000396,83.8135627730884,1.00000000045895,0.449006434985955
15800.0000000399,83.4952000550914,1.00000000043828,0.465387996475021
15900.0000000403,83.1819522154115,1.00000000045618,0.476980177669969
16000.0000000407,82.871947977381,1.00000000043731,0.485029596714223
16100.000000041,82.5635039951706,1.00000000044377,0.492323997062613
16200.0000000414,82.2529053766683,1.00000000045606,0.503298532376909
16300.0000000418,81.9380719820653,1.00000000046851,0.515517883699388
16400.0000000418,81.619282072383,1.00000000044581,0.521088595491636
16500.0000000404,81.3008856147366,1.00000000040967,0.52479725653504
16600.0000000389,80.9864952505544,1.00000000039653,0.522454733560272
16700.0000000375,80.6763025080678,1.00000000039868,0.51578923549184
16800.000000036,80.3664278863881,1.00000000042125,0.508265178445954
16900.0000000346,80.052523541518,1.00000000047005,0.49941211297664
17000.0000000331,79.7305084311052,1.00000000048383,0.501352454957735
17100.0000000317,79.3964390450491,1.00000000055546,0.513280652769804
17200.0000000302,79.0479394967228,1.00000000056627,0.530538902454885
17300.0000000287,78.6869269912484,1.00000000056894,0.542863341997256
17400.0000000273,78.3207214194783,1.00000000053657,0.541498273033687
17500.0000000258,77.959629054202,1.00000000044991,0.52397801722975
17600.0000000244,77.6159093709248,1.00000000035102,0.495660929589227
17700.0000000229,77.3019532130803,1.00000000027982,0.463743057424188
17800.0000000215,77.0260465012354,1.00000000027082,0.44097320576429
17900.00000002,76.7900491502607,1.00000000029718,0.429799047251474
18000.0000000186,76.5916992034734,1.00000000032734,0.428472314750936
18100.0000000171,76.4257184472377,1.00000000036832,0.432224282499297
18200.0000000156,76.2828183523801,1.0000000003924,0.43711395657153
18300.0000000142,76.1526696846908,1.00000000042794,0.445392164981081
18400.0000000127,76.0272107398259,1.00000000047607,0.461748390198472
18500.0000000113,75.8997452477029,1.00000000046662,0.478820360851383
18600.0000000098,75.7695441706814,1.0000000004549,0.490465341520144
18700.0000000084,75.6435596039896,1.00000000040466,0.493463993162683
18800.0000000069,75.5287349936153,1.00000000038507,0.491977795944725
18900.0000000055,75.428351934872,1.00000000037728,0.491785897154111
19000.000000004,75.3380174443408,1.00000000038269,0.49687459957723
19100.0000000026,75.2460878111723,1.00000000043712,0.50990432525537
19200.0000000011,75.1402934314547,1.00000000048282,0.521006088578626
19299.9999999996,75.0116446323411,1.00000000054278,0.529060438752382
19399.9999999982,74.8574654309059,1.000000000542,0.534640606791245
19499.9999999967,74.681237690396,1.00000000052217,0.537255052872586
19599.9999999953,74.4901612183058,1.00000000045699,0.53943196062472
19699.9999999938,74.2924615389756,1.00000000041204,0.540144432416557
19799.9999999924,74.0957386816829,1.00000000038693,0.534736857428767
19899.9999999909,73.9048034405275,1.0000000003644,0.52253140870136
19999.9999999895,73.7217472703471,1.00000000035594,0.514391415400073
20099.999999988,73.545517623785,1.00000000038544,0.513284550053336
20199.9999999865,73.3706245814031,1.00000000042377,0.510927466375518
20299.9999999851,73.1905976856307,1.0000000004698,0.510100759006791
20399.9999999836,73.0004125659339,1.00000000051337,0.514049004581728
20499.9999999822,72.7971116265822,1.00000000052307,0.522085051476408
20599.9999999807,72.5792454816928,1.00000000056734,0.531108759845853
20699.9999999793,72.3475186801001,1.00000000055865,0.539798674556187
20799.9999999778,72.1055691774539,1.00000000051893,0.546206356831761
20899.9999999764,71.8607839374915,1.00000000047975,0.545435041628533
20999.9999999749,71.6221017300613,1.00000000042291,0.534206760170178
21099.9999999734,71.3988623793892,1.00000000034588,0.512729974550966
21199.999999972,71.2000299764062,1.00000000031262,0.487743100945358
21299.9999999705,71.032461186323,1.00000000030688,0.469234181268936
21399.9999999691,70.9005916072934,1.00000000032271,0.453172172311637
21499.9999999676,70.8053672522683,1.00000000030874,0.445245570059789
21599.9999999662,70.744470192117,1.00000000032267,0.444913622793214
21699.9999999647,70.7132235094319,1.00000000034681,0.44425468764814
21799.9999999633,70.7041830713133,1.00000000040581,0.443288101556956
21899.9999999618,70.7082290248833,1.00000000044411,0.44684269950078
21999.9999999603,70.716774012718,1.00000000045884,0.454031144810877
22099.9999999589,70.7267099907634,1.00000000044803,0.459554425015409
22199.9999999574,70.7399659432797,1.00000000043721,0.459568408287897
22299.999999956,70.7597205907566,1.00000000038314,0.463606865165095
22399.9999999545,70.786448031778,1.00000000041102,0.476010957262953
22499.9999999531,70.8163312107398,1.00000000039522,0.490148466474416
22599.9999999516,70.8442779161913,1.00000000044871,0.501573646228768
22699.9999999502,70.8658124500588,1.00000000046555,0.513450536986903
22799.9999999487,70.8786284441435,1.00000000047229,0.526328351829066
22899.9999999473,70.8834914857099,1.00000000045818,0.535861426600942
22999.9999999458,70.8836962054148,1.00000000042633,0.538741445773974
23099.9999999443,70.8819506249531,1.00000000043496,0.537911677244671
23199.9999999429,70.8783118884756,1.00000000042592,0.53809555881671
23299.9999999414,70.8711325877084,1.0000000004464,0.541336736212767
23399.99999994,70.859032884802,1.00000000044527,0.546610464193086
23499.9999999385,70.8399007413759,1.00000000041977,0.546670299156508
23599.9999999371,70.8107545264322,1.0000000004452,0.543186558584705
23699.9999999356,70.7696287568937,1.00000000042734,0.540448711226415
23799.9999999342,70.7150861588054,1.00000000044529,0.539039214032585
23899.9999999327,70.6458552299843,1.00000000048033,0.539103155476989
23999.9999999312,70.5611058312289,1.00000000047815,0.535238952750935
24099.9999999298,70.4617454559714,1.00000000046676,0.529231921773063
24199.9999999283,70.3508255122179,1.00000000045161,0.532560941789438
24299.9999999269,70.2322740511254,1.00000000045921,0.538628639969634
24399.9999999254,70.1084570320221,1.00000000043846,0.543250299996274
24499.999999924,69.9810477400138,1.00000000043199,0.547895630658011
24599.9999999225,69.8517637501736,1.00000000042936,0.549951961818671
24699.9999999211,69.7228855775571,1.00000000038811,0.548130101903054
24799.9999999196,69.5971634968747,1.00000000037113,0.544430456025187
24899.9999999181,69.4763405275496,1.00000000036875,0.54332373565572
24999.9999999167,69.3598047211233,1.00000000038886,0.545522843738082
25099.9999999152,69.245376723616,1.00000000038393,0.544073900999147
25199.9999999138,69.1305419642844,1.00000000040928,0.542374828645375
25299.9999999123,69.0129998339288,1.00000000043171,0.543241421282809
25399.9999999109,68.8902336232299,1.00000000047179,0.54333663478267
25499.9999999094,68.7602599471105,1.00000000046738,0.541191348322929
25599.999999908,68.6217978763984,1.00000000049472,0.536788913808622
25699.9999999065,68.474420585639,1.00000000051847,0.5335152702213
25799.9999999051,68.317795712191,1.00000000055106,0.535544794430352
25899.9999999036,68.1516724233478,1.00000000053842,0.539824526492658
25999.9999999021,67.9778999309279,1.00000000053664,0.544600363035615
26099.9999999007,67.8008207245872,1.00000000049271,0.546772515613018
26199.9999998992,67.6260969221362,1.00000000044431,0.542438333091606
26299.9999998978,67.4604227831706,1.00000000038434,0.533171436928432
26399.9999998963,67.310305429811,1.00000000034774,0.517820115771317
26499.9999998949,67.181564845798,1.00000000032364,0.50311364110405
26599.9999998934,67.0786947978778,1.00000000032007,0.490732805800258
26699.999999892,67.0049526059981,1.00000000031024,0.480126257684424
26799.9999998905,66.9622267516006,1.00000000031576,0.470375455324379
26899.999999889,66.9499144569166,1.00000000031728,0.463169922251016
26999.9999998876,66.9662495955723,1.00000000034725,0.458718235814103
27099.9999998861,67.0080749440189,1.00000000035568,0.456748503706585
27199.9999998847,67.0687041872602,1.00000000040511,0.457553490204119
27299.9999998832,67.1408729642956,1.00000000043107,0.463548204094968
27399.9999998818,67.2198936155373,1.00000000043552,0.469992574656586
27499.9999998803,67.3042590747761,1.00000000044941,0.472850091669376
27599.9999998789,67.3946021843261,1.0000000004161,0.47010222834044
27699.9999998774,67.4911418815358,1.00000000042235,0.467876231297986
27799.9999998759,67.5915618903854,1.000000000437,0.472141668726103
27899.9999998745,67.6937393305782,1.00000000042754,0.480667507846005
27999.999999873,67.7976136315524,1.00000000042359,0.489122360779085
28099.9999998716,67.9042330277632,1.00000000041314,0.497079903711555
28199.9999998701,68.0125042264979,1.00000000041456,0.506218998160879
28299.9999998687,68.1208091048763,1.00000000043411,0.515796701871471
28399.9999998672,68.2266567050766,1.00000000044993,0.523779191311011
28499.9999998658,68.328319651333,1.00000000045755,0.530514933193091
28599.9999998643,68.4238222399261,1.00000000042633,0.536061356948739
28699.9999998629,68.5123019836004,1.00000000043432,0.543046677032978
28799.9999998614,68.5934283690861,1.0000000004622,0.551156588726783
28899.9999998599,68.6663859193036,1.00000000044511,0.557504584003078
28999.9999998585,68.7296920157983,1.00000000045026,0.560170716163909
