Time,AGPnorm,Energy,Entropy
0,0,1,-1.01909005652612e-17
99.9999999999986,5.07900893829679e-05,1.00000000000096,0.0018973251009022
199.999999999993,0.00433150560338672,1.00000000000029,0.00301862243068212
300,0.0107458716918787,1.00000000000048,0.00533178129846618
400.000000000022,0.0148232138640307,1.00000000000091,0.00898687562603688
500.000000000045,0.0181926626217968,0.999999999999924,0.0120965903408388
600.000000000068,0.0260038559153292,1.00000000000099,0.0167065454464767
700.000000000091,0.0320867425012975,1.00000000000028,0.0213191424667503
800.000000000113,0.0405911134221289,1.00000000000046,0.0262971453408687
900.000000000136,0.0504771304797131,1.000000000001,0.0321805216556663
1000.00000000016,0.0587738455371326,0.999999999999795,0.0378792542862111
1100.0000000001,0.06957961152601,1.00000000000104,0.0443950780123261
1200,0.0811168776236697,1.00000000000035,0.0512488069170489
1299.99999999991,0.0927693447232803,1.00000000000034,0.0583820728770494
1399.99999999982,0.105479489746847,1.00000000000113,0.0662599305899815
1499.99999999973,0.117483236494201,0.999999999999715,0.0742830392745979
1599.99999999964,0.130290992299505,1.00000000000105,0.0830017944674332
1699.99999999955,0.14439808889976,1.00000000000051,0.0923389654755753
1799.99999999946,0.158016797951352,1.00000000000012,0.102155861090737
1899.99999999937,0.171916620742693,1.00000000000125,0.112896880050327
1999.99999999928,0.185826604837328,0.999999999999724,0.124305511101127
2099.99999999919,0.199458966337364,1.00000000000113,0.136851560149627
2199.99999999909,0.213983447754678,1.00000000000154,0.150892668513772
2299.999999999,0.227954523097887,1.00000000000354,0.166472851584359
2399.99999999891,0.242038175218815,1.00000000001328,0.184294070305912
2499.99999999882,0.254355724204425,1.00000000003472,0.204081723270465
2599.99999999873,0.269959875316171,1.00000000007498,0.225303197795529
2699.99999999864,0.285443965995161,1.00000000013079,0.247454556770629
2799.99999999855,0.300103491380944,1.00000000020501,0.269291191783774
2899.99999999846,0.335147802440342,1.00000000030235,0.291036723433972
2999.99999999837,0.368849108915877,1.00000000040517,0.312166790760649
3099.99999999828,0.4407702903303,1.00000000049559,0.332724223853432
3199.99999999819,0.555585994001587,1.00000000059264,0.352542205231011
3299.99999999809,0.709475241655914,1.00000000069486,0.371551781485512
3399.999999998,0.963049545491356,1.00000000081106,0.389515062223556
3499.99999999791,1.29422044996109,1.00000000088465,0.406633623758477
3599.99999999782,1.74704941611617,1.00000000097746,0.422907652135404
3699.99999999773,2.34987312971248,1.00000000108106,0.438075837701448
3799.99999999764,3.09128831213617,1.00000000114206,0.452433753786732
3899.99999999755,4.02254108328917,1.0000000012122,0.465829333983294
3999.99999999746,5.1397274494291,1.00000000122232,0.47827073884529
4099.99999999738,6.45645756330433,1.00000000134689,0.489874358212005
4199.99999999775,7.99288657059972,1.00000000132467,0.500675754633039
4299.99999999811,9.74467597068192,1.00000000137264,0.510396199501682
4399.99999999848,11.7166208715508,1.0000000013994,0.519806949381157
4499.99999999884,13.9118769530588,1.00000000145607,0.527909292688159
4599.9999999992,16.3289207820262,1.00000000138156,0.536049467949836
4699.99999999957,18.9499589173836,1.0000000014723,0.543040913719404
4799.99999999993,21.7866195882519,1.00000000151252,0.54916746315568
4900.00000000029,24.8108281682123,1.00000000149472,0.555553513042735
5000.00000000066,28.0105368301437,1.00000000146299,0.560997707610502
5100.00000000102,31.395122477945,1.00000000148197,0.56579129644064
5200.00000000139,34.9124054905595,1.00000000149137,0.570592327491374
5300.00000000175,38.5789847506154,1.00000000151439,0.574237962704326
5400.00000000211,42.3667153181629,1.00000000149048,0.578204986035279
5500.00000000248,46.2390206045045,1.00000000149615,0.581659870419308
5600.00000000284,50.2221978289813,1.0000000014619,0.584129445870726
5700.00000000321,54.2529974627075,1.00000000144079,0.587306021223513
5800.00000000357,58.3389532344423,1.0000000014296,0.589429449899864
5900.00000000393,62.4711377178874,1.00000000138778,0.591607642169282
6000.0000000043,66.5960266618978,1.00000000138964,0.593704306912027
6100.00000000466,70.7476206464367,1.00000000134751,0.594593081463838
6200.00000000502,74.8726748239217,1.00000000137139,0.596385967712084
6300.00000000539,78.9651574790772,1.00000000135962,0.597485013666416
6400.00000000575,83.0346121298604,1.00000000131402,0.598186751425917
6500.00000000612,87.0266290846662,1.00000000134364,0.598978122291387
6600.00000000648,90.9717105934178,1.00000000126728,0.599282012351209
6700.00000000684,94.8354139673563,1.00000000124287,0.600322442114929
6800.00000000721,98.6018971377921,1.00000000130087,0.600570836165076
6900.00000000757,102.292650056369,1.00000000123748,0.600326059980365
7000.00000000793,105.859959072821,1.00000000119327,0.601089408925434
7100.0000000083,109.328594594686,1.00000000119525,0.600456129290239
7200.00000000866,112.680559625871,1.00000000117733,0.600916644732555
7300.00000000903,115.897546727912,1.00000000119931,0.60066225007867
7400.00000000939,119.003961454237,1.00000000114853,0.600380661171051
7500.00000000975,121.96431046505,1.00000000114299,0.600021833921635
7600.00000001012,124.797525545678,1.00000000108609,0.600300210556904
7700.00000001048,127.495643741754,1.00000000109354,0.599398008688115
7800.00000001084,130.043973988836,1.00000000105531,0.599528418161714
7900.00000001121,132.464349594589,1.00000000105296,0.598754876614908
8000.00000001157,134.736591587677,1.00000000104551,0.598270458113254
8100.00000001194,136.868664370023,1.0000000010409,0.598479975140653
8200.0000000123,138.867634403289,1.00000000100876,0.596645138743931
8300.00000001266,140.713778864319,1.00000000100376,0.598112959248151
8400.00000001303,142.434911480549,1.00000000094815,0.59577534844922
8500.00000001339,144.009867942547,1.00000000095052,0.596642867417216
8600.00000001376,145.4523577043,1.00000000093711,0.595505423658019
8700.00000001412,146.764961499263,1.00000000092661,0.594910273116854
8800.00000001448,147.93966568594,1.00000000093039,0.59538502682649
8900.00000001485,148.993638912808,1.00000000089349,0.593744290187236
9000.00000001521,149.919632132477,1.0000000008778,0.594282039695521
9100.00000001557,150.722701114456,1.00000000085663,0.594076094818773
9200.00000001594,151.412838616359,1.00000000085218,0.592732374401138
9300.0000000163,151.981271156888,1.00000000086389,0.59437787458689
9400.00000001667,152.447450103374,1.00000000083397,0.591917957641896
9500.00000001703,152.803181681279,1.00000000081905,0.591669987308243
9600.00000001739,153.058502320074,1.00000000084765,0.595068766472105
9700.00000001776,153.222939985891,1.00000000079545,0.588116872878273
9800.00000001812,153.287416162507,1.00000000079446,0.591174319135596
9900.00000001848,153.276499017141,1.00000000081936,0.592275759918878
10000.0000000188,153.182255825141,1.00000000074696,0.583687341858126
10100.0000000192,153.007963688529,1.00000000077965,0.590234801105086
10200.0000000196,152.775161497066,1.00000000080936,0.590259379514739
10300.0000000199,152.470773716602,1.00000000074083,0.579355144848402
10400.0000000203,152.104284314582,1.00000000082015,0.588422423125268
10500.0000000207,151.689959477949,1.00000000083073,0.590396809493759
10600.000000021,151.221657905083,1.00000000074368,0.57501408076586
10700.0000000214,150.699327520952,1.00000000084955,0.583599432853089
10800.0000000218,150.139056000126,1.00000000087642,0.591574055801848
10900.0000000221,149.545050731444,1.00000000078336,0.573705239314886
11000.0000000225,148.900334144396,1.00000000078407,0.574368530397845
11100.0000000229,148.226861147341,1.00000000092654,0.589396119467756
11200.0000000232,147.536969091874,1.00000000083141,0.579007407314234
11300.0000000236,146.808468476014,1.00000000072261,0.561702618703554
11400.0000000239,146.053573975722,1.00000000090471,0.584237013861765
11500.0000000243,145.289546972785,1.00000000087306,0.581743238917012
11600.0000000247,144.508059802786,1.0000000008154,0.567860867252359
11700.000000025,143.700281622995,1.00000000077015,0.562150796894075
11800.0000000254,142.877368707606,1.00000000096943,0.58544010571391
11900.0000000258,142.05324263735,1.00000000087483,0.573443785835629
12000.0000000261,141.217671983233,1.00000000078209,0.563945891055882
12100.0000000265,140.363543833537,1.00000000078868,0.560826696356358
12200.0000000269,139.505118646069,1.00000000093773,0.579792814529679
12300.0000000272,138.646730493604,1.00000000092408,0.56784818530497
12400.0000000276,137.785721391224,1.00000000080893,0.562956843327205
12500.0000000279,136.914828529692,1.00000000082899,0.556696309990853
12600.0000000283,136.038523108884,1.00000000093348,0.570085146968831
12700.0000000287,135.168327845027,1.00000000096125,0.569026936913642
12800.000000029,134.299115849056,1.00000000081552,0.553964673543227
12900.0000000294,133.428134345631,1.00000000085763,0.561327171866177
13000.0000000298,132.555475880633,1.000000000842,0.555037732833493
13100.0000000301,131.684048805821,1.00000000094801,0.570650086506761
13200.0000000305,130.821739809619,1.00000000089277,0.554266978861523
13300.0000000309,129.960421558799,1.00000000079248,0.549664877474628
13400.0000000312,129.102389007308,1.00000000093169,0.563695485156985
13500.0000000316,128.247181790322,1.00000000082656,0.551701523440664
13600.0000000319,127.396056158977,1.00000000094653,0.563816684921962
13700.0000000323,126.553984833581,1.00000000088032,0.549082346140691
13800.0000000327,125.715334369394,1.00000000082177,0.54350634128821
13900.000000033,124.882800173672,1.00000000091103,0.564167491268225
14000.0000000334,124.056047124724,1.00000000087065,0.554439084684769
14100.0000000338,123.233861292923,1.00000000089868,0.551423251681208
14200.0000000341,122.419741183775,1.00000000090178,0.551844487698137
14300.0000000345,121.611638939396,1.00000000081851,0.538226843611336
14400.0000000349,120.810324748965,1.00000000087888,0.550973058249743
14500.0000000352,120.016874306494,1.00000000092086,0.564857399831322
14600.0000000356,119.22966345099,1.00000000085726,0.550996894376698
14700.0000000359,118.449464684646,1.00000000084765,0.543683518596178
14800.0000000363,117.675768238573,1.00000000087385,0.546405707023824
14900.0000000367,116.909512511735,1.00000000085066,0.54097329810876
15000.000000037,116.151360906514,1.00000000084386,0.548345819190206
15100.0000000374,115.401031679811,1.00000000092337,0.562998985358758
15200.0000000378,114.659080776618,1.00000000082865,0.555884149917461
15300.0000000381,113.923656400029,1.00000000084534,0.541368038211886
15400.0000000385,113.195174309981,1.00000000086506,0.543166442199182
15500.0000000389,112.474654140513,1.00000000086365,0.546773086402777
15600.0000000392,111.762006361622,1.00000000088291,0.547436180197378
15700.0000000396,111.058334686095,1.00000000084993,0.55437100790381
15800.0000000399,110.362832552476,1.00000000086232,0.561161512133782
15900.0000000403,109.675242210062,1.00000000084823,0.552498612822206
16000.0000000407,108.995426973785,1.00000000081402,0.541096205607749
16100.000000041,108.323276082016,1.00000000081768,0.542607110373848
16200.0000000414,107.659438274466,1.00000000088964,0.553346303518888
16300.0000000418,107.003778661103,1.000000000852,0.554273233923418
16400.0000000418,106.356722337697,1.00000000084252,0.550051282384805
16500.0000000404,105.7183565546,1.00000000087046,0.560813211655835
16600.0000000389,105.088307498457,1.00000000081771,0.556666165885508
16700.0000000375,104.466960003428,1.00000000076122,0.543458624990603
16800.000000036,103.853852138236,1.00000000085656,0.541480172427378
16900.0000000346,103.248941227081,1.0000000008824,0.549888448449491
17000.0000000331,102.652305292168,1.00000000081382,0.555112144433339
17100.0000000317,102.063575660795,1.00000000085449,0.555143192025303
17200.0000000302,101.483046850962,1.00000000088191,0.552419173715155
17300.0000000287,100.910295296673,1.00000000088926,0.557552283353196
17400.0000000273,100.346528298715,1.00000000084921,0.554363857660372
17500.0000000258,99.7923318301265,1.00000000076066,0.541179799459995
17600.0000000244,99.246928997103,1.0000000007937,0.539196013076071
17700.0000000229,98.7086997367105,1.00000000092537,0.547942970514302
17800.0000000215,98.1780251113238,1.00000000084153,0.546343219711086
17900.00000002,97.6551708275739,1.00000000086977,0.555314385600846
18000.0000000186,97.1392905250807,1.00000000087856,0.560864308367252
18100.0000000171,96.6297701959131,1.00000000090766,0.556484770833558
18200.0000000156,96.1272433296452,1.00000000088975,0.5559066064258
18300.0000000142,95.6339799531028,1.00000000078207,0.547333490006678
18400.0000000127,95.151582925116,1.00000000078437,0.538538535856101
18500.0000000113,94.6778236611575,1.00000000085398,0.538081326738811
18600.0000000098,94.2105054595441,1.00000000096287,0.543233568711847
18700.0000000084,93.7493236707787,1.00000000085763,0.542010945340266
18800.0000000069,93.2959464035714,1.00000000081406,0.545618016381041
18900.0000000055,92.8481015616776,1.00000000090546,0.560985597240463
19000.000000004,92.4041945534614,1.0000000009582,0.566972370780607
19100.0000000026,91.9653329779924,1.00000000089748,0.555708476311244
19200.0000000011,91.5335608157107,1.00000000087177,0.548857629630299
19299.9999999996,91.1117430634666,1.00000000076845,0.544269593892116
19399.9999999982,90.7007404910485,1.00000000082369,0.542041932889407
19499.9999999967,90.2974245010552,1.00000000083059,0.539893767447435
19599.9999999953,89.9008795601491,1.00000000089244,0.536540093544042
19699.9999999938,89.5097796094834,1.00000000087442,0.537557491030019
19799.9999999924,89.1249065835683,1.00000000085028,0.539469535673406
19899.9999999909,88.7446933404782,1.00000000091418,0.552054875289441
19999.9999999895,88.3665665899448,1.00000000093492,0.560979503238085
20099.999999988,87.9902430685785,1.000000000943,0.566320882729559
20199.9999999865,87.6187124325408,1.00000000086837,0.550920049904052
20299.9999999851,87.2543105721674,1.00000000088111,0.543584820576945
20399.9999999836,86.8988653941494,1.00000000082143,0.545385342468949
20499.9999999822,86.5530832790137,1.00000000083617,0.546275027636678
20599.9999999807,86.2150411254175,1.00000000085837,0.538202510674305
20699.9999999793,85.8842269740895,1.00000000086097,0.533298757595031
20799.9999999778,85.5594627530127,1.00000000085099,0.531325808405687
20899.9999999764,85.2399200839171,1.00000000087274,0.535607229222394
20999.9999999749,84.9235945635233,1.00000000085958,0.542829954407146
21099.9999999734,84.6102652003458,1.00000000089097,0.549802145834928
21199.999999972,84.296797884557,1.00000000098159,0.555740262000416
21299.9999999705,83.9838182521246,1.00000000091665,0.557891409432007
21399.9999999691,83.6738311684427,1.0000000008772,0.5560995819993
21499.9999999676,83.3696403981551,1.00000000081871,0.542901295597649
21599.9999999662,83.072628492985,1.00000000084825,0.544799899012791
21699.9999999647,82.7835810444728,1.00000000083376,0.551409268422236
21799.9999999633,82.5026150952948,1.00000000084597,0.547985765034858
21899.9999999618,82.2297586341092,1.00000000081609,0.538853568276657
21999.9999999603,81.9639591451099,1.00000000082348,0.536425291440186
22099.9999999589,81.7046055921086,1.00000000087412,0.534668672792651
22199.9999999574,81.4490547561487,1.0000000009112,0.539935771539903
22299.999999956,81.1959245600089,1.00000000087489,0.54310595568324
22399.9999999545,80.9448301159487,1.00000000088478,0.552148430856563
22499.9999999531,80.6950956904667,1.00000000087519,0.552556384502511
22599.9999999516,80.4447052380546,1.000000000944,0.556313983275789
22699.9999999502,80.1939305751318,1.00000000091143,0.556882118794169
22799.9999999487,79.9458234006091,1.00000000084116,0.555504135545998
22899.9999999473,79.7026611508123,1.00000000085131,0.551588419018156
22999.9999999458,79.4655373868789,1.00000000084363,0.550162286530322
23099.9999999443,79.2342360922411,1.00000000084931,0.556429673891501
23199.9999999429,79.0103989625759,1.00000000081799,0.552644090926118
23299.9999999414,78.7950971345472,1.00000000079015,0.543723686008364
23399.99999994,78.588620509412,1.00000000080532,0.538231898622313
23499.9999999385,78.38784348271,1.00000000086804,0.545110921067204
23599.9999999371,78.190894856851,1.00000000084669,0.541196068868949
23699.9999999356,77.9978886981042,1.00000000085006,0.543271279431263
23799.9999999342,77.8066247102385,1.00000000092242,0.549778510888832
23899.9999999327,77.6164881347705,1.00000000087993,0.556031262796485
23999.9999999312,77.4276300280918,1.00000000089389,0.560972235022033
24099.9999999298,77.2380836106067,1.00000000094266,0.561280892086298
24199.9999999283,77.0472768645854,1.00000000093631,0.556333129457263
24299.9999999269,76.8568812817225,1.00000000087014,0.552444762715045
24399.9999999254,76.6691967930313,1.0000000008897,0.557640948698095
24499.999999924,76.4840710795813,1.00000000087049,0.558256422622726
24599.9999999225,76.3017257782475,1.00000000089287,0.557671350834457
24699.9999999211,76.1234508878837,1.00000000089863,0.558097858084393
24799.9999999196,75.9507406365511,1.00000000083868,0.557799291447361
24899.9999999181,75.7859939308391,1.0000000008123,0.545361529567433
24999.9999999167,75.6307502029373,1.00000000078764,0.541185767696815
25099.9999999152,75.4825583051839,1.00000000086416,0.544856356120194
25199.9999999138,75.3386263025592,1.00000000089096,0.5492825462342
25299.9999999123,75.1975208896209,1.00000000087166,0.55053454063195
25399.9999999109,75.0586742510503,1.0000000008866,0.550203310442773
25499.9999999094,74.9207171619141,1.00000000090521,0.558694420125507
25599.999999908,74.7820465014156,1.00000000093386,0.563546322612581
25699.9999999065,74.641986150875,1.00000000089586,0.570171729462763
25799.9999999051,74.5015051797162,1.00000000090492,0.56917021796283
25899.9999999036,74.3622482812059,1.00000000089048,0.563625810251164
25999.9999999021,74.2241364298432,1.00000000086685,0.561399028898505
26099.9999999007,74.0866747200086,1.00000000087869,0.560246000655345
26199.9999998992,73.9495933530162,1.00000000090049,0.563917077497057
26299.9999998978,73.8118876938221,1.00000000091211,0.572334377239172
26399.9999998963,73.6742793646211,1.0000000008987,0.56998665323534
26499.9999998949,73.538542823714,1.0000000009135,0.563767272764681
26599.9999998934,73.4071388671877,1.00000000084385,0.558970515695334
26699.999999892,73.2815760195503,1.00000000086766,0.559252890712874
26799.9999998905,73.1624951573018,1.00000000083322,0.552489330649917
26899.999999889,73.0513414370343,1.00000000082386,0.544541752061284
26999.9999998876,72.9480218938311,1.00000000083736,0.548427914536707
27099.9999998861,72.8497326369226,1.0000000008571,0.554630078615549
27199.9999998847,72.7539984874767,1.00000000093714,0.559303782103389
27299.9999998832,72.6580630815189,1.00000000090461,0.562714746446402
27399.9999998818,72.562031204937,1.00000000089595,0.566581349966613
27499.9999998803,72.4651149253554,1.00000000092852,0.572751182578688
27599.9999998789,72.3657936809429,1.00000000092711,0.573576287236943
27699.9999998774,72.2639484869997,1.0000000009481,0.575787251061782
27799.9999998759,72.1616348799595,1.00000000085575,0.574575172446903
27899.9999998745,72.0621455666921,1.00000000085558,0.573660870461133
27999.999999873,71.9642625171921,1.00000000090432,0.576225884232849
28099.9999998716,71.8669048040666,1.00000000090922,0.576371273028756
28199.9999998701,71.7698301127261,1.00000000094206,0.576107876326231
28299.9999998687,71.6711573200996,1.00000000094701,0.581338226373829
28399.9999998672,71.5713514013124,1.00000000094772,0.583931653695255
28499.9999998658,71.4713845494854,1.00000000091716,0.583961911578315
28599.9999998643,71.3728143619056,1.00000000085061,0.577584315057125
28699.9999998629,71.2779441390066,1.00000000087838,0.573218491195645
28799.9999998614,71.1869195175742,1.00000000091723,0.569488235805748
28899.9999998599,71.100335198897,1.0000000008702,0.56727487568437
