Time,AGPnorm,Energy,Entropy
0,0,1,-1.18326566484663e-17
99.9999999999986,2.67051979758934e-05,0.999999999996417,0.00110059863874993
199.999999999993,0.00242651750891291,0.999999999998624,0.00180495045850064
300,0.00586101986790181,0.999999999998884,0.00309404379767581
400.000000000022,0.0080426308258667,0.999999999996309,0.00536985752260927
500.000000000045,0.00979794302848715,0.999999999999917,0.00719425782130685
600.000000000068,0.0141731165628914,0.999999999996966,0.00992288201048613
700.000000000091,0.0174557479388012,0.999999999997854,0.0128528400733457
800.000000000113,0.0220713746992248,0.999999999999506,0.0156893874098899
900.000000000136,0.0278861572281491,0.999999999996169,0.0193400097620467
1000.00000000016,0.0324413463720913,0.999999999999517,0.0227737295680332
1100.0000000001,0.0386763421023089,0.999999999997682,0.026559661290194
1200,0.0451764110360047,0.999999999997164,0.0308369395887427
1299.99999999991,0.051885381776888,0.999999999999864,0.034879891279838
1399.99999999982,0.0598377148932827,0.999999999996336,0.0395426260822921
1499.99999999973,0.066917526638388,0.999999999998883,0.0442696573033342
1599.99999999964,0.0748101546386945,0.999999999998423,0.0490497365617527
1699.99999999955,0.0835822380928196,0.999999999996684,0.0544686077814374
1799.99999999946,0.0920205037703451,0.999999999999913,0.0597251420164696
1899.99999999937,0.101292453863527,0.999999999996758,0.0654042513220016
1999.99999999928,0.110239594468084,0.999999999998152,0.0714302424907496
2099.99999999919,0.119390748388445,0.999999999999059,0.0773838969684303
2199.99999999909,0.129605444370373,0.999999999996483,0.0840621610628628
2299.999999999,0.139199712787888,0.999999999999671,0.0907644146216773
2399.99999999891,0.149062263725579,0.999999999997337,0.0977836973373702
2499.99999999882,0.159052793259063,0.999999999997502,0.105432913778519
2599.99999999873,0.169043953140061,0.999999999999484,0.11309413475999
2699.99999999864,0.179802390364454,0.999999999996599,0.121598054065487
2799.99999999855,0.189976512222889,0.999999999999189,0.130508719406875
2899.99999999846,0.199904546447529,0.999999999998156,0.139835572387046
2999.99999999837,0.210185993237877,0.999999999997532,0.150327476535533
3099.99999999828,0.220508019010894,1.00000000000103,0.161310132157388
3199.99999999819,0.231187520659177,1.0000000000004,0.173627306112913
3299.99999999809,0.240690614205126,1.00000000000712,0.187089856260252
3399.999999998,0.251505533489841,1.00000000001558,0.201221617737741
3499.99999999791,0.261138076975789,1.00000000002633,0.216750034182794
3599.99999999782,0.272058402039649,1.00000000005124,0.232386978726052
3699.99999999773,0.28828790986705,1.00000000007297,0.248442122051481
3799.99999999764,0.299927367102855,1.00000000009965,0.264636175112473
3899.99999999755,0.327723695527704,1.00000000013875,0.280106171944137
3999.99999999746,0.363484096566731,1.00000000017626,0.295787451123269
4099.99999999738,0.411145327764888,1.00000000021452,0.310976142561886
4199.99999999775,0.500843513932188,1.0000000002582,0.32545870673847
4299.99999999811,0.607687227721757,1.00000000029096,0.340114451343289
4399.99999999848,0.772422140594198,1.0000000003508,0.35359461101397
4499.99999999884,1.00545683702408,1.00000000036806,0.367157047949565
4599.9999999992,1.29195341231877,1.00000000042862,0.380209397466079
4699.99999999957,1.69548454650468,1.00000000046197,0.392207145027905
4799.99999999993,2.19007975141176,1.00000000050304,0.404365171941684
4900.00000000029,2.80176975910781,1.00000000053202,0.415660942562859
5000.00000000066,3.57834917143191,1.00000000057378,0.426321587972716
5100.00000000102,4.47685772069068,1.00000000058735,0.437175733293676
5200.00000000139,5.56358267545458,1.0000000006205,0.446640344200494
5300.00000000175,6.83575136591412,1.00000000064959,0.456135143218936
5400.00000000211,8.27394215596382,1.0000000006787,0.465281746464637
5500.00000000248,9.95284292893689,1.00000000070058,0.473257833205176
5600.00000000284,11.8195761074022,1.00000000070955,0.481624416400462
5700.00000000321,13.9046490108321,1.00000000076027,0.488838525650721
5800.00000000357,16.2404839951014,1.00000000074626,0.495956149570874
5900.00000000393,18.7656799901207,1.00000000074228,0.503041357755198
6000.0000000043,21.5505578217335,1.00000000080287,0.508804664096934
6100.00000000466,24.5604427058945,1.0000000007764,0.51490673023683
6200.00000000502,27.7732793813103,1.00000000081165,0.520433261107055
6300.00000000539,31.2485529221298,1.00000000080539,0.525415503356248
6400.00000000575,34.9095003403336,1.00000000078995,0.530613788394046
6500.00000000612,38.7938532258011,1.00000000078686,0.534932659805937
6600.00000000648,42.9007085324881,1.0000000008119,0.539007293216443
6700.00000000684,47.1660972037079,1.00000000080664,0.543319243488248
6800.00000000721,51.6539063104332,1.00000000082516,0.546542711369885
6900.00000000757,56.3015642572142,1.00000000083551,0.550081337579987
7000.00000000793,61.1035415866747,1.00000000083061,0.55326769210746
7100.0000000083,66.0897469361962,1.00000000084398,0.555920037266915
7200.00000000866,71.1790827380523,1.00000000082316,0.559081585866231
7300.00000000903,76.4190916515513,1.00000000082246,0.561189013273994
7400.00000000939,81.7764032777656,1.00000000083251,0.563463548866522
7500.00000000975,87.210447341592,1.00000000079092,0.565829216220586
7600.00000001012,92.7661285258161,1.00000000082702,0.567318367489078
7700.00000001048,98.3698529159365,1.0000000007917,0.569416530785039
7800.00000001084,104.042400082409,1.00000000080446,0.570912877871777
7900.00000001121,109.780104192543,1.00000000077931,0.572151550730639
8000.00000001157,115.524213367764,1.00000000079774,0.573858126041691
8100.00000001194,121.319273565209,1.0000000007687,0.574709391941972
8200.0000000123,127.11205276991,1.00000000077539,0.575948212218983
8300.00000001266,132.898602407887,1.00000000074496,0.576862368281586
8400.00000001303,138.695878741925,1.00000000077702,0.577357346385164
8500.00000001339,144.443277597597,1.00000000074993,0.578367312489491
8600.00000001376,150.174508504412,1.00000000073521,0.5789331413245
8700.00000001412,155.860200971836,1.00000000074093,0.579115699635008
8800.00000001448,161.479290373124,1.00000000072171,0.579959076740419
8900.00000001485,167.058128558486,1.00000000071867,0.57974091609976
9000.00000001521,172.54572807422,1.00000000070396,0.580541008079942
9100.00000001557,177.962612131457,1.00000000068717,0.580426793231886
9200.00000001594,183.298415462825,1.00000000070408,0.580678084200068
9300.0000000163,188.52522988671,1.00000000067605,0.580599504397671
9400.00000001667,193.669096713271,1.00000000068788,0.580848578688436
9500.00000001703,198.695202239188,1.0000000006811,0.580577945652075
9600.00000001739,203.607647455943,1.00000000068551,0.580289150491984
9700.00000001776,208.415055151506,1.00000000065418,0.580764915032644
9800.00000001812,213.083849730682,1.00000000063671,0.579759836926314
9900.00000001848,217.640712018678,1.00000000064073,0.58055167656086
10000.0000000188,222.061708555929,1.00000000061852,0.579476129890743
10100.0000000192,226.343795368547,1.00000000063367,0.579476512834116
10200.0000000196,230.503712407269,1.00000000061572,0.579446908372353
10300.0000000199,234.510804997131,1.00000000060591,0.578420710735066
10400.0000000203,238.386704772594,1.0000000006135,0.578716093888587
10500.0000000207,242.119132115185,1.00000000059455,0.578217431332649
10600.000000021,245.701870142373,1.00000000059855,0.577668803316186
10700.0000000214,249.1508101022,1.00000000057146,0.577488192099671
10800.0000000218,252.444995601446,1.00000000057736,0.577380307318747
10900.0000000221,255.598863929859,1.0000000005658,0.576308391051091
11000.0000000225,258.606199219802,1.0000000005603,0.576456063470013
11100.0000000229,261.463082520664,1.00000000054656,0.576478454692349
11200.0000000232,264.183783334809,1.00000000055035,0.574804263970333
11300.0000000236,266.750516174412,1.00000000053359,0.575896111715062
11400.0000000239,269.178686739853,1.00000000056124,0.575057878707856
11500.0000000243,271.464504250127,1.00000000052049,0.573753216473847
11600.0000000247,273.602779655715,1.00000000050693,0.575353991190685
11700.000000025,275.610772552432,1.00000000052139,0.573028742728427
11800.0000000254,277.472898134371,1.00000000049405,0.572620651708117
11900.0000000258,279.199335865935,1.00000000051566,0.573965387869297
12000.0000000261,280.797702442909,1.00000000049284,0.572504802302074
12100.0000000265,282.25602127302,1.00000000048332,0.57127771467176
12200.0000000269,283.590449752823,1.00000000048749,0.571988309129853
12300.0000000272,284.794613628567,1.00000000048253,0.572450421257046
12400.0000000276,285.873941645863,1.00000000047767,0.572595289845221
12500.0000000279,286.836800241776,1.00000000047762,0.569605457050746
12600.0000000283,287.673222988651,1.00000000045782,0.568531280677827
12700.0000000287,288.396118973778,1.00000000047105,0.572447809508612
12800.000000029,289.009755268741,1.00000000045519,0.573455181823562
12900.0000000294,289.515261552336,1.00000000044673,0.56854434663762
13000.0000000298,289.913711229176,1.00000000042837,0.564860326338738
13100.0000000301,290.200389413193,1.0000000004367,0.570273182077992
13200.0000000305,290.397143594853,1.00000000045875,0.574950902880322
13300.0000000309,290.508024157941,1.00000000045203,0.56989900698046
13400.0000000312,290.524193577357,1.00000000040456,0.561820467970729
13500.0000000316,290.444812977537,1.00000000040564,0.561743489091786
13600.0000000319,290.276913328006,1.00000000044904,0.573143209329459
13700.0000000323,290.045734901278,1.0000000004724,0.575065405664211
13800.0000000327,289.751394023782,1.00000000043551,0.565256018683145
13900.000000033,289.376158726926,1.0000000003771,0.553840661367391
14000.0000000334,288.919749479077,1.00000000039071,0.557987016109101
14100.0000000338,288.397249757888,1.00000000047331,0.574085372528575
14200.0000000341,287.836491817488,1.00000000050931,0.576913584160008
14300.0000000345,287.235317530072,1.00000000043031,0.561453935374452
14400.0000000349,286.567703362391,1.00000000037308,0.546302448964096
14500.0000000352,285.83033931502,1.00000000038161,0.548401592111809
14600.0000000356,285.040883721402,1.00000000046892,0.571318493909828
14700.0000000359,284.231291256814,1.00000000054297,0.580833250635312
14800.0000000363,283.405146751735,1.00000000046601,0.562735588525505
14900.0000000367,282.534364049434,1.00000000038538,0.542740182950024
15000.000000037,281.604446884694,1.00000000034205,0.532792190376048
15100.0000000374,280.623539992006,1.00000000044137,0.557263193577762
15200.0000000378,279.627091917473,1.00000000053642,0.580637403292488
15300.0000000381,278.635653919807,1.00000000055722,0.575710884559791
15400.0000000385,277.629607903853,1.00000000041115,0.548143898467383
15500.0000000389,276.585985295492,1.00000000035445,0.52690947100366
15600.0000000392,275.490479775079,1.00000000033447,0.524812701641748
15700.0000000396,274.364773100636,1.00000000047623,0.558884326337828
15800.0000000399,273.242048712504,1.00000000057382,0.582039085610508
15900.0000000403,272.131932846705,1.00000000059581,0.573201780280054
16000.0000000407,271.021914818327,1.00000000043708,0.542393032091295
16100.000000041,269.881749249414,1.00000000034661,0.518118115338415
16200.0000000414,268.701900716728,1.00000000033147,0.51225533239251
16300.0000000418,267.496520285121,1.00000000044602,0.542912179112619
16400.0000000418,266.2927893456,1.00000000058187,0.578861781652482
16500.0000000404,265.111124415972,1.00000000063039,0.579626049087844
16600.0000000389,263.942548537738,1.00000000050136,0.55056584713581
16700.0000000375,262.763964450029,1.00000000039628,0.521082306253137
16800.000000036,261.560564414464,1.00000000031478,0.503672894728858
16900.0000000346,260.327008159669,1.00000000036542,0.512406016145806
17000.0000000331,259.08556106109,1.00000000050632,0.550798903314214
17100.0000000317,257.857748165193,1.00000000062291,0.580054456966778
17200.0000000302,256.652438799785,1.00000000059784,0.573544273632916
17300.0000000287,255.462323792466,1.00000000050392,0.54214418664327
17400.0000000273,254.267248632883,1.0000000004018,0.513053209093791
17500.0000000258,253.056433315399,1.00000000033509,0.500759937085218
17600.0000000244,251.827257926082,1.00000000035787,0.506478888752071
17700.0000000229,250.590171241278,1.0000000004562,0.533406516299107
17800.0000000215,249.364072351742,1.0000000005892,0.567097715602877
17900.00000002,248.157951310832,1.00000000063764,0.574417573833645
18000.0000000186,246.97018942147,1.00000000057255,0.552257325965474
18100.0000000171,245.790767699027,1.0000000004606,0.521258788853577
18200.0000000156,244.606348468016,1.00000000035933,0.503421992741903
18300.0000000142,243.414462438044,1.00000000035695,0.502141283634535
18400.0000000127,242.213966780353,1.00000000038749,0.510104109632441
18500.0000000113,241.013966066878,1.00000000045888,0.530078137790982
18600.0000000098,239.824654419894,1.00000000054957,0.554793564062549
18700.0000000084,238.651238906741,1.0000000005917,0.563747554460759
18800.0000000069,237.494342911139,1.000000000571,0.548730545037582
18900.0000000055,236.347439945232,1.00000000048171,0.523197443826133
19000.000000004,235.203495464579,1.00000000040988,0.506840890340379
19100.0000000026,234.059497677555,1.00000000037965,0.50478588152558
19200.0000000011,232.91339539335,1.00000000040469,0.509339582571972
19299.9999999996,231.769549501162,1.00000000042393,0.515913097239456
19399.9999999982,230.630728640431,1.00000000047926,0.52671407750407
19499.9999999967,229.501726623513,1.00000000053869,0.543228034775323
19599.9999999953,228.385938696128,1.00000000056215,0.548862879146649
19699.9999999938,227.282401456527,1.00000000054086,0.540505373153451
19799.9999999924,226.188702932579,1.00000000049932,0.524160887823243
19899.9999999909,225.101795762949,1.00000000042986,0.511494486902096
19999.9999999895,224.019210841933,1.0000000004047,0.508966482141355
20099.999999988,222.941591234223,1.00000000040484,0.513339494462916
20199.9999999865,221.867655359948,1.00000000043125,0.515630705704592
20299.9999999851,220.799890846781,1.00000000044963,0.516365207657515
20399.9999999836,219.739286279149,1.00000000045962,0.51947315698032
20499.9999999822,218.687422205987,1.00000000051088,0.5307228307039
20599.9999999807,217.646006697878,1.00000000051877,0.537790490804266
20699.9999999793,216.614506457571,1.00000000050342,0.536226662759543
20799.9999999778,215.592107856847,1.0000000004745,0.527003576513331
20899.9999999764,214.578079105641,1.00000000045546,0.51861757295462
20999.9999999749,213.571542741598,1.00000000044062,0.518368897969255
21099.9999999734,212.573055015366,1.00000000043674,0.521411013996848
21199.999999972,211.581418087529,1.00000000042696,0.518886731898855
21299.9999999705,210.597088797053,1.00000000042143,0.513219884379976
21399.9999999691,209.620061955567,1.00000000043034,0.511193246869827
21499.9999999676,208.650832189215,1.00000000045291,0.51481669500055
21599.9999999662,207.690365342412,1.00000000046497,0.521074920289943
21699.9999999647,206.738711374958,1.00000000051818,0.531375770400014
21799.9999999633,205.79535764592,1.00000000050081,0.536528358547012
21899.9999999618,204.860701009512,1.00000000047514,0.533053472044812
21999.9999999603,203.934182387737,1.00000000046711,0.527886974695601
22099.9999999589,203.016246328449,1.00000000047814,0.52930619724155
22199.9999999574,202.106932110175,1.00000000045958,0.529556892637356
22299.999999956,201.20663600176,1.00000000044362,0.527384466697221
22399.9999999545,200.315349400846,1.0000000003957,0.518441306924122
22499.9999999531,199.432801559283,1.00000000038874,0.506740517866647
22599.9999999516,198.559558362521,1.00000000041423,0.502506812600243
22699.9999999502,197.695397024182,1.0000000004481,0.50711877625365
22799.9999999487,196.8396812869,1.00000000049114,0.517375954129513
22899.9999999473,195.992045282373,1.00000000048469,0.522862690059412
22999.9999999458,195.151590527299,1.00000000050259,0.534178906278013
23099.9999999443,194.318401218763,1.00000000046509,0.536005412448285
23199.9999999429,193.493174100088,1.00000000044702,0.53176229630038
23299.9999999414,192.675598118151,1.00000000046704,0.530062116825867
23399.99999994,191.865589691208,1.00000000049645,0.539722493746631
23499.9999999385,191.063090028487,1.00000000048095,0.539656851485935
23599.9999999371,190.269444491501,1.00000000044392,0.530029771842855
23699.9999999356,189.485731576404,1.00000000041189,0.517055111255744
23799.9999999342,188.713503983059,1.00000000034159,0.498419870974948
23899.9999999327,187.95347400953,1.00000000036663,0.490855267813608
23999.9999999312,187.204432073859,1.00000000042917,0.496181836460363
24099.9999999298,186.464130958258,1.00000000047482,0.508774009880641
24199.9999999283,185.730866232327,1.00000000051623,0.51650340186606
24299.9999999269,185.002824085965,1.00000000050543,0.522208283978213
24399.9999999254,184.280292879467,1.00000000047496,0.526277831668337
24499.999999924,183.564180993344,1.00000000044791,0.532722700603971
24599.9999999225,182.854689225528,1.00000000044868,0.53219746203433
24699.9999999211,182.151417542197,1.00000000048413,0.532375922977722
24799.9999999196,181.453136627032,1.00000000050013,0.54257448439412
24899.9999999181,180.759613631392,1.00000000053172,0.54686872790807
24999.9999999167,180.072058303816,1.0000000004929,0.536705513168103
25099.9999999152,179.393587906653,1.00000000043671,0.519560027247372
25199.9999999138,178.727375134154,1.00000000037586,0.504422857092581
25299.9999999123,178.075790854864,1.00000000033597,0.487816223386993
25399.9999999109,177.438752558764,1.00000000036289,0.483915938616283
25499.9999999094,176.813556058801,1.0000000004325,0.490974881949958
25599.999999908,176.19617683651,1.00000000048719,0.502864637728136
25699.9999999065,175.584280640368,1.0000000004982,0.51050580468674
25799.9999999051,174.976112158378,1.00000000052709,0.51435965850996
25899.9999999036,174.3708346436,1.00000000048185,0.513885609542975
25999.9999999021,173.76995784069,1.00000000047463,0.520828660946323
26099.9999999007,173.173267642554,1.00000000047896,0.533483371253842
26199.9999998992,172.580784401684,1.0000000004881,0.534829263126048
26299.9999998978,171.991726693751,1.00000000050592,0.53635070043116
26399.9999998963,171.404900937357,1.00000000051197,0.541576924093445
26499.9999998949,170.82056508064,1.00000000053936,0.543777248142815
26599.9999998934,170.240259802878,1.00000000049314,0.535566612762204
26699.999999892,169.667354546002,1.00000000043999,0.518332671851361
26799.9999998905,169.105656649402,1.00000000040179,0.504985858055635
26899.999999889,168.557914098756,1.00000000038026,0.498013989689798
26999.9999998876,168.024944912961,1.00000000036769,0.489346485919855
27099.9999998861,167.506313310363,1.00000000039156,0.484132472241014
27199.9999998847,166.999075616178,1.00000000044904,0.488258490930454
27299.9999998832,166.499940162168,1.00000000049221,0.495777395073772
27399.9999998818,166.005595730462,1.00000000049645,0.502880838105123
27499.9999998803,165.514231989218,1.00000000051582,0.510060468271236
27599.9999998789,165.024076851966,1.00000000049459,0.51195415076756
27699.9999998774,164.535091072259,1.0000000004946,0.513689495595809
27799.9999998759,164.047293800651,1.00000000049412,0.523288722065558
27899.9999998745,163.560477469875,1.00000000049168,0.53269485051137
27999.999999873,163.074749418676,1.00000000050341,0.537468114938365
28099.9999998716,162.590386751299,1.00000000050901,0.535570136104934
28199.9999998701,162.107774147131,1.0000000004851,0.532285216173048
28299.9999998687,161.628040378593,1.00000000049444,0.531423172092886
28399.9999998672,161.151480718107,1.00000000048022,0.532951686998681
28499.9999998658,160.679472128342,1.00000000048105,0.526090312773087
28599.9999998643,160.215060047373,1.00000000043941,0.51456837599074
28699.9999998629,159.760270457635,1.00000000042376,0.50724382876554
28799.9999998614,159.3172166207,1.00000000039425,0.502562196203308
28899.9999998599,158.887132268419,1.0000000004003,0.497870125905069
