Time,AGPnorm,Energy,Entropy
0,0,1,3.28351216641028e-18
99.9999999999986,0.0136348418231748,0.999999999996655,0.0342545046132916
199.999999999993,0.0341054740332989,1.00000000000068,0.101345184167743
300,0.0633127949964916,1.00000000005522,0.215773830634722
400.000000000022,0.115244462591665,1.00000000153241,0.388607835330653
500.000000000045,0.470500287152543,1.00000000367413,0.51469943415784
600.000000000068,1.55449199573996,1.00000000494466,0.575813902865851
700.000000000091,3.3948746923491,1.00000000476949,0.597510221397105
800.000000000113,5.50377311660993,1.00000000462951,0.602668596185136
900.000000000136,7.56396259393548,1.00000000410191,0.594827335048114
1000.00000000016,9.21240978827646,1.00000000365233,0.585904603086827
1100.0000000001,10.3793583138385,1.00000000327717,0.569832275005306
1200,11.0291262953277,1.0000000028981,0.565676854194669
1299.99999999991,11.2352576214827,1.00000000274679,0.548746293953731
1399.99999999982,11.1472155992495,1.00000000223789,0.517379538198177
1499.99999999973,10.8953208799666,1.00000000236247,0.521589111116465
1599.99999999964,10.5212748605218,1.0000000037635,0.577890418992707
1699.99999999955,10.0987639747486,1.00000000211891,0.463866232653505
1799.99999999946,9.68034950956534,1.00000000349227,0.538756262344175
1899.99999999937,9.25561332901087,1.00000000243037,0.461485273691555
1999.99999999928,8.84153840198326,1.00000000400661,0.55266624804265
2099.99999999919,8.46933737265871,1.00000000225529,0.450430534052311
2199.99999999909,8.10102428669866,1.00000000297138,0.517423435100254
2299.999999999,7.75807973194152,1.00000000369274,0.546380129113432
2399.99999999891,7.47033875279749,1.00000000206237,0.447863170513866
2499.99999999882,7.1921016486542,1.00000000315772,0.536911496586866
2599.99999999873,6.93436695966593,1.00000000341921,0.546661511389128
2699.99999999864,6.68439947686954,1.00000000338625,0.542934790851165
2799.99999999855,6.5007737820396,1.00000000204163,0.460345068540109
2899.99999999846,6.33304702736307,1.00000000368541,0.52995808222702
2999.99999999837,6.16935970873623,1.00000000300664,0.534642653572271
3099.99999999828,6.00661930241031,1.00000000318276,0.571955215115053
3199.99999999819,5.84282539271535,1.00000000350428,0.557937069058973
3299.99999999809,5.7104347243367,1.0000000023462,0.501168883017451
3399.999999998,5.65136820131064,1.00000000293704,0.504155590753191
3499.99999999791,5.58217941131754,1.00000000326383,0.543824635647978
3599.99999999782,5.50989103298041,1.00000000304319,0.566573495726931
3699.99999999773,5.44229710634173,1.00000000322083,0.577316551750033
3799.99999999764,5.34785422061859,1.00000000353826,0.608687390237375
3899.99999999755,5.25444944092505,1.00000000338906,0.598117185381198
3999.99999999746,5.1585053601384,1.00000000359333,0.581798683965868
4099.99999999738,5.07852173713558,1.00000000273744,0.548692221211289
4199.99999999775,5.07710567479587,1.00000000244913,0.502717068764402
4299.99999999811,5.10256922539368,1.00000000353861,0.547798904874548
4399.99999999848,5.10836299201253,1.00000000322321,0.557703311946129
4499.99999999884,5.10897294311925,1.00000000327388,0.590627363506177
4599.9999999992,5.09466767062034,1.00000000353499,0.612058072053555
4699.99999999957,5.08381251780255,1.00000000326395,0.611337998319065
4799.99999999993,5.0615069020534,1.00000000372365,0.638416241661423
4900.00000000029,5.02572337332426,1.00000000360316,0.604133974631931
5000.00000000066,4.97817804872353,1.0000000035445,0.630453527962046
5100.00000000102,4.92515825618503,1.00000000344689,0.637853770436124
5200.00000000139,4.86726724373535,1.00000000366644,0.638990368234748
5300.00000000175,4.80764795411553,1.0000000039138,0.630222279817063
5400.00000000211,4.74914458256039,1.00000000384033,0.59567214680608
5500.00000000248,4.72372761409647,1.00000000272607,0.553226231259951
5600.00000000284,4.77142631079898,1.00000000266294,0.53362568190606
5700.00000000321,4.85505211947957,1.00000000349479,0.558655766040803
5800.00000000357,4.92646331283943,1.00000000404016,0.583650325887961
5900.00000000393,4.9859322702234,1.00000000353067,0.588361084375
6000.0000000043,5.03420117648359,1.00000000370949,0.597315103418931
6100.00000000466,5.07529878052014,1.00000000370413,0.628052872780484
6200.00000000502,5.10282139038785,1.00000000364503,0.639592613202511
6300.00000000539,5.117217296583,1.00000000371388,0.652654150717763
6400.00000000575,5.12238875703085,1.00000000391613,0.645190001791297
6500.00000000612,5.12084663937204,1.00000000392319,0.64136467952543
6600.00000000648,5.12935580899737,1.0000000035888,0.638162692962169
6700.00000000684,5.13784390867903,1.00000000382505,0.653876161594039
6800.00000000721,5.13470083393365,1.00000000394966,0.628170927836623
6900.00000000757,5.13036008989433,1.00000000367322,0.636730929967497
7000.00000000793,5.12746500432586,1.00000000366879,0.647462049357366
7100.0000000083,5.11811879950024,1.00000000401513,0.667889213565465
7200.00000000866,5.10244809586088,1.00000000388127,0.660140818683016
7300.00000000903,5.08629699340903,1.0000000038168,0.64328450449862
7400.00000000939,5.0687620564857,1.0000000041105,0.65897751562082
7500.00000000975,5.0392517942093,1.00000000407029,0.672682261420959
7600.00000001012,5.00019829321534,1.00000000407226,0.665965598634102
7700.00000001048,4.95926377816467,1.0000000035629,0.670704138101013
7800.00000001084,4.91731504992816,1.0000000038309,0.665421512211869
7900.00000001121,4.87806939314541,1.00000000424511,0.660244673887246
8000.00000001157,4.84199770482874,1.00000000424503,0.655865777685826
8100.00000001194,4.80701567642688,1.00000000419306,0.612959793329105
8200.0000000123,4.78466438953321,1.00000000356413,0.580291995696359
8300.00000001266,4.81040072747814,1.00000000306594,0.559059918366721
8400.00000001303,4.90248397212049,1.00000000319946,0.555292128005177
8500.00000001339,5.03881372518048,1.00000000373519,0.564491569977129
8600.00000001376,5.18430831407079,1.00000000410472,0.577508039953193
8700.00000001412,5.32138855930409,1.00000000446166,0.589647014465819
8800.00000001448,5.45577026888919,1.00000000417192,0.593293385280323
8900.00000001485,5.57975152535997,1.00000000401028,0.598230179814953
9000.00000001521,5.69860023301898,1.00000000434115,0.623797225611904
9100.00000001557,5.8022305814565,1.00000000419429,0.632546974196839
9200.00000001594,5.89747877031146,1.00000000443465,0.659490516445214
9300.0000000163,5.98651369366896,1.00000000450302,0.661458138864927
9400.00000001667,6.06298878370056,1.00000000452055,0.654966765280543
9500.00000001703,6.11957796371068,1.00000000410205,0.662889526607441
9600.00000001739,6.16079205478559,1.00000000451544,0.689220333203533
9700.00000001776,6.20374446713539,1.00000000401372,0.681022598067605
9800.00000001812,6.25283380543757,1.00000000453033,0.672973204045825
9900.00000001848,6.29759224738657,1.0000000044817,0.68626788700927
10000.0000000188,6.32936181808741,1.00000000457955,0.696341145489873
10100.0000000192,6.36245553061105,1.00000000432927,0.696420499413757
10200.0000000196,6.39125804783488,1.0000000044703,0.693177629450078
10300.0000000199,6.41453881072169,1.000000004573,0.688622535936191
10400.0000000203,6.43202120327873,1.00000000461744,0.69915929685534
10500.0000000207,6.44440497148688,1.00000000449054,0.686799724832597
10600.000000021,6.45383234317422,1.00000000447967,0.690593947914964
10700.0000000214,6.46097608530163,1.00000000451074,0.686624542707439
10800.0000000218,6.46945429663603,1.00000000435841,0.675448632187725
10900.0000000221,6.4894102546347,1.00000000403622,0.688091998017604
11000.0000000225,6.52170193794117,1.00000000424328,0.680177486548281
11100.0000000229,6.56314616568307,1.00000000423945,0.668000634043636
11200.0000000232,6.60451191893533,1.00000000489149,0.684492098473681
11300.0000000236,6.63922916289985,1.00000000461966,0.666800641778367
11400.0000000239,6.67507552384861,1.00000000472477,0.660194347730386
11500.0000000243,6.7062833253042,1.00000000425934,0.665605217628222
11600.0000000247,6.74263081545659,1.00000000433422,0.673164507458936
11700.000000025,6.77705147475309,1.00000000486366,0.666243372425158
11800.0000000254,6.81226672522202,1.0000000046069,0.692524157649729
11900.0000000258,6.83772931005805,1.0000000049737,0.703567451676094
12000.0000000261,6.8560742850625,1.00000000436805,0.696046949732673
12100.0000000265,6.87057667808901,1.00000000481414,0.687586124097109
12200.0000000269,6.89626205560939,1.00000000424018,0.674070485757212
12300.0000000272,6.92630791022354,1.00000000472637,0.684260744475884
12400.0000000276,6.9576332016315,1.00000000479362,0.685055164558199
12500.0000000279,6.98467307094838,1.00000000494638,0.70172512123783
12600.0000000283,7.00762965132783,1.00000000486296,0.684954645833022
12700.0000000287,7.03240945688441,1.00000000447301,0.6904895830855
12800.000000029,7.0647472099491,1.00000000515972,0.668199677462214
12900.0000000294,7.1013849159643,1.00000000491363,0.679008966550177
13000.0000000298,7.14825536593542,1.00000000477735,0.689062099573337
13100.0000000301,7.18237417834883,1.0000000049257,0.710829640395967
13200.0000000305,7.21191265983367,1.00000000452717,0.70323148174851
13300.0000000309,7.23481138904407,1.00000000492056,0.711063138839512
13400.0000000312,7.26034806475204,1.00000000460928,0.701657510067253
13500.0000000316,7.2850870947117,1.00000000488748,0.705850266986436
13600.0000000319,7.30614888637279,1.00000000512437,0.700692064138102
13700.0000000323,7.32189685715078,1.00000000477034,0.697086824346629
13800.0000000327,7.34203026173335,1.00000000488377,0.698912908864932
13900.000000033,7.3628064192081,1.00000000486785,0.706850916030921
14000.0000000334,7.38080345527381,1.00000000484323,0.698885315538081
14100.0000000338,7.39922348859009,1.00000000493489,0.690687934650989
14200.0000000341,7.4133727000237,1.00000000468835,0.720526746843754
14300.0000000345,7.42287557547735,1.00000000577768,0.703322510481385
14400.0000000349,7.43130875804738,1.00000000505004,0.695492923748291
14500.0000000352,7.43796734288117,1.00000000478632,0.692849620457569
14600.0000000356,7.44073153565452,1.0000000054991,0.702924970330721
14700.0000000359,7.44347060056618,1.00000000499652,0.682313224951032
14800.0000000363,7.43911859407204,1.00000000539052,0.697855116660895
14900.0000000367,7.43054334938454,1.00000000479904,0.696588834410104
15000.000000037,7.41857106965322,1.0000000050394,0.68331907746497
15100.0000000374,7.3980170307225,1.00000000527315,0.695226324525983
15200.0000000378,7.37291817963197,1.00000000523987,0.701657260640115
15300.0000000381,7.34467214064342,1.00000000500374,0.696460136217527
15400.0000000385,7.31642532254249,1.00000000519721,0.705218217174249
15500.0000000389,7.2871414296414,1.00000000509224,0.698610181712735
15600.0000000392,7.25862446425866,1.00000000575864,0.692119927277266
15700.0000000396,7.23285771008597,1.00000000555819,0.694834596253269
15800.0000000399,7.20716944358926,1.00000000520847,0.712794228597883
15900.0000000403,7.18743705354174,1.00000000564549,0.715808244186934
16000.0000000407,7.16960063223303,1.00000000550936,0.701118487009072
16100.000000041,7.16147030458497,1.00000000539221,0.703563255832079
16200.0000000414,7.1520113194379,1.00000000510878,0.68975942067403
16300.0000000418,7.15528229163754,1.00000000500529,0.681175147124558
16400.0000000418,7.16732312365442,1.00000000476297,0.662080313111939
16500.0000000404,7.21127052230284,1.00000000530435,0.651980337079736
16600.0000000389,7.29772230263964,1.00000000466763,0.632930430309331
16700.0000000375,7.44245541917939,1.00000000474489,0.622668278513576
16800.000000036,7.63770234929657,1.00000000516033,0.616963582026231
16900.0000000346,7.89815788146722,1.00000000488175,0.619331816485836
17000.0000000331,8.18663426181129,1.00000000509556,0.630590381594825
17100.0000000317,8.50879653425933,1.00000000502319,0.636403762991916
17200.0000000302,8.81149604644248,1.0000000052094,0.645523778005876
17300.0000000287,9.12665132754722,1.00000000559849,0.642685318382543
17400.0000000273,9.42645070650233,1.00000000559447,0.644640930579397
17500.0000000258,9.73318212187127,1.00000000532559,0.635139164830094
17600.0000000244,10.0390860771257,1.00000000526248,0.641227269351637
17700.0000000229,10.3412472744183,1.0000000053764,0.646083659096389
17800.0000000215,10.6586872291004,1.0000000053452,0.64165291299149
17900.00000002,10.9632710470799,1.00000000545189,0.654779129046384
18000.0000000186,11.2876863580234,1.00000000532824,0.661527354328143
18100.0000000171,11.6051701486477,1.0000000054409,0.671616813126243
18200.0000000156,11.9097111548004,1.0000000058265,0.679331181999575
18300.0000000142,12.2059272497939,1.00000000517877,0.68729052608918
18400.0000000127,12.4939488954827,1.00000000611212,0.697594277150223
18500.0000000113,12.7838425340471,1.00000000538636,0.696833598369187
18600.0000000098,13.0508827377963,1.0000000060015,0.706869282825541
18700.0000000084,13.3033053298498,1.00000000558693,0.707284692265161
18800.0000000069,13.5480913041871,1.00000000525674,0.694555906156425
18900.0000000055,13.7994285707342,1.00000000657678,0.70148376014372
19000.000000004,14.0239491423244,1.00000000576752,0.71434131282464
19100.0000000026,14.2299073194496,1.00000000620895,0.705880954778343
19200.0000000011,14.4360418522041,1.00000000504461,0.698291217861306
19299.9999999996,14.6358823641011,1.00000000606904,0.718088200393077
19399.9999999982,14.8493077700249,1.0000000050533,0.707479744215664
19499.9999999967,15.0581011645457,1.00000000564525,0.706886024158973
19599.9999999953,15.2557659582295,1.00000000534914,0.708419264556882
19699.9999999938,15.4450654795711,1.00000000557826,0.705121031216499
19799.9999999924,15.6330804366653,1.00000000540961,0.702382016396317
19899.9999999909,15.8255519121907,1.00000000540002,0.716489495026914
19999.9999999895,16.0141960834452,1.00000000570254,0.717785701306929
20099.999999988,16.2148484309003,1.00000000547187,0.715069036865843
20199.9999999865,16.4376892706582,1.00000000562165,0.724948169105269
20299.9999999851,16.6580397156444,1.00000000578204,0.728880988825754
20399.9999999836,16.8665588186542,1.00000000524866,0.717788050226706
20499.9999999822,17.0622385098848,1.00000000607402,0.727016331532612
20599.9999999807,17.2472684623115,1.00000000634874,0.716137708224793
20699.9999999793,17.4300308282036,1.00000000560565,0.720354202240598
20799.9999999778,17.6300493099656,1.00000000579677,0.706739739955253
20899.9999999764,17.839001729733,1.00000000529905,0.714863325053945
20999.9999999749,18.0448790672763,1.00000000571905,0.720761454022272
21099.9999999734,18.2464387574376,1.00000000593404,0.721518175348483
21199.999999972,18.4425810222511,1.00000000540459,0.71920615872568
21299.9999999705,18.6440776287733,1.00000000617195,0.705780996693549
21399.9999999691,18.850072080533,1.00000000545102,0.711613341111204
21499.9999999676,19.0574812012702,1.00000000612058,0.716311771058653
21599.9999999662,19.2571639386634,1.00000000639087,0.730042322769153
21699.9999999647,19.4602976155459,1.00000000621314,0.696411529782777
21799.9999999633,19.6828933415567,1.00000000627264,0.710391547239359
21899.9999999618,19.8951454459091,1.00000000696094,0.731340961464569
21999.9999999603,20.1041965070314,1.00000000670309,0.718737731886558
22099.9999999589,20.3114956661967,1.00000000651969,0.720126282995682
22199.9999999574,20.5177488207295,1.00000000643441,0.714704753679281
22299.999999956,20.7346098679454,1.00000000571812,0.723369634166152
22399.9999999545,20.957113922694,1.00000000613494,0.722806108705542
22499.9999999531,21.1785262807373,1.00000000673973,0.720329464094092
22599.9999999516,21.4031102402801,1.00000000596149,0.713574390058214
22699.9999999502,21.6373163735095,1.00000000651536,0.72658733932842
22799.9999999487,21.8682534207131,1.00000000608991,0.722325269044148
22899.9999999473,22.0910787906048,1.00000000663119,0.715229418925076
22999.9999999458,22.3163197121152,1.00000000651272,0.707324414618971
23099.9999999443,22.5450921532535,1.00000000659595,0.733951796946779
23199.9999999429,22.7789134853047,1.00000000659157,0.7201457342785
23299.9999999414,23.0287313332268,1.00000000630749,0.718179083087257
23399.99999994,23.2720393456418,1.00000000623793,0.715383377388768
23499.9999999385,23.5096715671801,1.00000000591168,0.716788006433369
23599.9999999371,23.7577958532162,1.00000000642496,0.712400976175033
23699.9999999356,24.0209871731415,1.00000000619451,0.718734775768007
23799.9999999342,24.2874018048465,1.00000000684485,0.727224285534236
23899.9999999327,24.5438602709156,1.0000000067534,0.724803425594572
23999.9999999312,24.7855365980853,1.00000000694736,0.720884963747141
24099.9999999298,25.0271447419947,1.00000000634917,0.729271461806169
24199.9999999283,25.272848225884,1.00000000650631,0.736954760355073
24299.9999999269,25.5321461533115,1.00000000611747,0.726352698639634
24399.9999999254,25.8110359558222,1.0000000065967,0.719263634496639
24499.999999924,26.1081490416649,1.00000000627095,0.716055270677122
24599.9999999225,26.424603247867,1.00000000629131,0.708875772962171
24699.9999999211,26.7391804855208,1.00000000676838,0.709375411047962
24799.9999999196,27.0515298302802,1.00000000713585,0.71763420410388
24899.9999999181,27.3588725174845,1.00000000632174,0.728160432313609
24999.9999999167,27.6516989359464,1.00000000755923,0.728160036059616
25099.9999999152,27.929146955795,1.00000000682432,0.73211722082236
25199.9999999138,28.2061037313993,1.00000000681073,0.717784270585269
25299.9999999123,28.4868974472944,1.00000000673624,0.721655679019624
25399.9999999109,28.7747488097855,1.00000000652693,0.732157525768653
25499.9999999094,29.072662623809,1.00000000670271,0.714675116733212
25599.999999908,29.3846808176998,1.00000000691113,0.710121705445982
25699.9999999065,29.7109173915322,1.00000000616073,0.704667580086538
25799.9999999051,30.0454480825803,1.00000000676788,0.703301713881009
25899.9999999036,30.3923780546734,1.00000000646186,0.687133797356807
25999.9999999021,30.7514147567284,1.00000000692452,0.706128730164744
26099.9999999007,31.1052007198931,1.00000000739848,0.71883172333918
26199.9999998992,31.4417205210965,1.00000000709168,0.721293643987929
26299.9999998978,31.7684468671455,1.00000000750317,0.730215342461357
26399.9999998963,32.1028822683537,1.00000000690355,0.72479744581068
26499.9999998949,32.4499803071486,1.00000000661971,0.727138445930205
26599.9999998934,32.8106071683775,1.00000000670971,0.73124675938463
26699.999999892,33.1804608651798,1.00000000705877,0.731705659870504
26799.9999998905,33.5482026438044,1.00000000738685,0.729603540846062
26899.999999889,33.9246413395865,1.00000000734562,0.725906173225468
26999.9999998876,34.3166178443344,1.00000000667338,0.730256306658165
27099.9999998861,34.7048724777231,1.0000000070939,0.729498347002219
27199.9999998847,35.0809097960442,1.0000000075115,0.726975372092949
27299.9999998832,35.4531048943784,1.00000000763352,0.735655072795507
27399.9999998818,35.8178807207403,1.00000000732928,0.722179719872494
27499.9999998803,36.1787296734114,1.00000000701504,0.714943098239018
27599.9999998789,36.5403931532634,1.00000000711314,0.714082816391779
27699.9999998774,36.9078468169615,1.0000000063345,0.712500014840316
27799.9999998759,37.2826294024557,1.00000000757911,0.720557462521892
27899.9999998745,37.668472830917,1.00000000735699,0.719003110149302
27999.999999873,38.068680092576,1.00000000760367,0.733036761327736
28099.9999998716,38.4728053972486,1.00000000720947,0.738619524274099
28199.9999998701,38.8728750882301,1.00000000736717,0.739569447838101
28299.9999998687,39.2720460742329,1.00000000716836,0.733611831512871
28399.9999998672,39.6736817779825,1.00000000739546,0.747170403897185
28499.9999998658,40.0821348652774,1.00000000726932,0.735975840337136
28599.9999998643,40.4912446041552,1.00000000738837,0.740631116340897
28699.9999998629,40.8972578665451,1.00000000739698,0.739246200492489
28799.9999998614,41.2998039601081,1.00000000783066,0.733723377915441
28899.9999998599,41.7019268025476,1.00000000721417,0.738823514686076
28999.9999998585,42.1060192661854,1.00000000755388,0.734903347870697
29099.999999857,42.5155536332679,1.00000000743135,0.739634293433569
