Time,AGPnorm,Energy,Entropy
0,0,1,-1.28537488465573e-17
99.9999999999986,4.66344436122369e-05,0.999999999998642,0.0017671338404282
199.999999999993,0.00417055548489419,0.999999999997945,0.0029180425394926
300,0.010351902859856,1.00000000000048,0.00503350136694277
400.000000000022,0.0143429707667067,0.999999999997333,0.00855575130531898
500.000000000045,0.0172072528788322,0.999999999999462,0.0116621770217161
600.000000000068,0.0246825022365709,0.999999999999362,0.0159183413510649
700.000000000091,0.0310812390682389,0.999999999997426,0.0205176391836733
800.000000000113,0.0390348748925015,1.0000000000006,0.0252148350119973
900.000000000136,0.0480374215904719,0.999999999997656,0.030824621023516
1000.00000000016,0.0555870064750021,0.999999999998753,0.0364925013212096
1100.0000000001,0.0665050396604685,1.0000000000001,0.0425305322509853
1200,0.0784317467155205,0.999999999997148,0.0492789330584891
1299.99999999991,0.0889977121638627,1.00000000000028,0.0561070276647812
1399.99999999982,0.100573229447068,0.999999999998239,0.0634897182346339
1499.99999999973,0.112340550438911,0.999999999998156,0.071393646125431
1599.99999999964,0.125409862674726,1.00000000000066,0.0795511157695392
1699.99999999955,0.139296908355624,0.999999999997101,0.0885674753134075
1799.99999999946,0.15153094648206,0.999999999999594,0.0979397470571091
1899.99999999937,0.1648454674782,0.999999999999004,0.107832402936443
1999.99999999928,0.17935893097295,0.999999999997747,0.118862641435223
2099.99999999919,0.193034461557296,1.00000000000088,0.130495037778121
2199.99999999909,0.206581703310228,0.999999999997721,0.143460392131478
2299.999999999,0.219313436138986,1.00000000000066,0.157814348468082
2399.99999999891,0.233456545629631,1.00000000000559,0.173802471112911
2499.99999999882,0.247236892638454,1.00000000001557,0.192383829933938
2599.99999999873,0.261401043524012,1.00000000004493,0.212291953235781
2699.99999999864,0.275017914184033,1.00000000008465,0.233348741536616
2799.99999999855,0.287023666473785,1.00000000014512,0.254943913908825
2899.99999999846,0.31510914866355,1.00000000022518,0.276160879209653
2999.99999999837,0.340471579784414,1.00000000030545,0.29753559952349
3099.99999999828,0.389335940527417,1.00000000040092,0.318006042722282
3199.99999999819,0.475892875152546,1.00000000050231,0.337466534516532
3299.99999999809,0.58816624096451,1.00000000060024,0.356980803069416
3399.999999998,0.781269883021008,1.00000000068412,0.375033636400235
3499.99999999791,1.04631406760402,1.00000000077322,0.392495698954184
3599.99999999782,1.40193659897732,1.00000000084502,0.409263945506557
3699.99999999773,1.90070520560116,1.00000000096604,0.424337559846163
3799.99999999764,2.52198703340488,1.00000000100074,0.439782604830714
3899.99999999755,3.30554850669511,1.00000000109941,0.453497585659203
3999.99999999746,4.2838897840886,1.00000000115545,0.466042908370492
4099.99999999738,5.43015491201252,1.0000000012264,0.478562186868005
4199.99999999775,6.79543687812784,1.00000000129318,0.489368642063854
4299.99999999811,8.38128942303421,1.00000000130483,0.499940038667285
4399.99999999848,10.1613582699133,1.00000000129103,0.510027952266316
4499.99999999884,12.1940218812019,1.00000000129928,0.518324742855635
4599.9999999992,14.4339499037825,1.00000000137612,0.527044659877876
4699.99999999957,16.881790959545,1.00000000131543,0.53469058243738
4799.99999999993,19.5784912581572,1.00000000143488,0.541024429642428
4900.00000000029,22.4447899767007,1.00000000141613,0.548063425640051
5000.00000000066,25.5257150829293,1.00000000140369,0.553452975283816
5100.00000000102,28.8006073133929,1.00000000140509,0.559078022025753
5200.00000000139,32.2111868157458,1.0000000014193,0.564211112121156
5300.00000000175,35.8214602161047,1.00000000144861,0.567962444539646
5400.00000000211,39.5460166612208,1.00000000141065,0.572621008510427
5500.00000000248,43.3902297879599,1.00000000143582,0.576174519141061
5600.00000000284,47.3729166275502,1.00000000143372,0.579131805796429
5700.00000000321,51.4034696097708,1.00000000139463,0.582794402174293
5800.00000000357,55.5411168236619,1.00000000143811,0.584710736521679
5900.00000000393,59.7286287210543,1.00000000136856,0.587683956370321
6000.0000000043,63.9328357840038,1.00000000137872,0.589765007752927
6100.00000000466,68.1992548337033,1.00000000133966,0.591131083773619
6200.00000000502,72.4376045984758,1.00000000134465,0.593225064508583
6300.00000000539,76.6858225942615,1.00000000133302,0.594075815873447
6400.00000000575,80.9217172372524,1.00000000128684,0.59516330920949
6500.00000000612,85.0923854735996,1.00000000131221,0.596500234143231
6600.00000000648,89.2493670309353,1.00000000129669,0.596638458131048
6700.00000000684,93.3231195420845,1.0000000012458,0.598074026647014
6800.00000000721,97.3288483590031,1.00000000123499,0.598351905180661
6900.00000000757,101.270486645598,1.00000000122765,0.598519660065099
7000.00000000793,105.092452863414,1.0000000011906,0.599318030451721
7100.0000000083,108.840969392033,1.00000000121273,0.59888199298883
7200.00000000866,112.471588851879,1.00000000114352,0.599303095377776
7300.00000000903,115.982924993896,1.00000000113453,0.599666068733322
7400.00000000939,119.392690185897,1.00000000112896,0.598945317549806
7500.00000000975,122.654704834281,1.00000000110821,0.599063496974625
7600.00000001012,125.80471924558,1.00000000109728,0.598928383508213
7700.00000001048,128.818337731687,1.00000000108789,0.598120380751344
7800.00000001084,131.686551043712,1.00000000105885,0.598908567602699
7900.00000001121,134.43319569038,1.00000000104611,0.596834991579446
8000.00000001157,137.024167115572,1.0000000010555,0.598558504026132
8100.00000001194,139.483839948285,1.00000000100056,0.596279091618764
8200.0000000123,141.804900182118,1.00000000102281,0.597309795510979
8300.00000001266,143.972477213671,1.00000000097964,0.595751792101695
8400.00000001303,146.014768310644,1.00000000097666,0.596112120507186
8500.00000001339,147.903124193634,1.00000000094365,0.59467431771882
8600.00000001376,149.65971991027,1.00000000093501,0.595432743783277
8700.00000001412,151.280522670477,1.00000000090389,0.59327607896406
8800.00000001448,152.75595988903,1.00000000090651,0.594948120144977
8900.00000001485,154.108923857986,1.0000000008665,0.592445764265728
9000.00000001521,155.322323629966,1.0000000009014,0.593168754966372
9100.00000001557,156.410387596294,1.00000000086729,0.592386590123001
9200.00000001594,157.37670005044,1.00000000085491,0.591926690579719
9300.0000000163,158.212194373892,1.00000000081035,0.591417911861458
9400.00000001667,158.937327880756,1.00000000083087,0.592637444404623
9500.00000001703,159.543651785303,1.00000000080169,0.589499128994772
9600.00000001739,160.036697773949,1.00000000077079,0.59138635020748
9700.00000001776,160.430459889291,1.00000000082602,0.592159707363528
9800.00000001812,160.714005189132,1.00000000078367,0.587239019679872
9900.00000001848,160.903973440006,1.0000000007957,0.59273828859214
10000.0000000188,161.003426086776,1.00000000082028,0.591304414389022
10100.0000000192,161.012322091686,1.00000000075302,0.584728549982993
10200.0000000196,160.938066548911,1.00000000080749,0.591616038751158
10300.0000000199,160.788036320717,1.00000000080755,0.589915489236074
10400.0000000203,160.565869578264,1.00000000073801,0.579250216237207
10500.0000000207,160.266938640702,1.00000000080324,0.589429103948661
10600.000000021,159.914258350602,1.00000000079244,0.58899513724048
10700.0000000214,159.503557997571,1.00000000070421,0.574139555846337
10800.0000000218,159.025888705623,1.00000000077912,0.583714301324909
10900.0000000221,158.512152653849,1.00000000084598,0.588089481326007
11000.0000000225,157.955424664513,1.00000000074809,0.573928399398746
11100.0000000229,157.345967820759,1.00000000073524,0.571911523453836
11200.0000000232,156.704270739584,1.00000000083767,0.586224301144088
11300.0000000236,156.03431734809,1.00000000079428,0.578798278811491
11400.0000000239,155.331509373517,1.0000000007382,0.565464818146052
11500.0000000243,154.589268074484,1.00000000080079,0.575100446249356
11600.0000000247,153.828959548492,1.00000000083085,0.581972519509514
11700.000000025,153.056139329331,1.00000000080679,0.573124909752694
11800.0000000254,152.251832178964,1.00000000070697,0.556035034088244
11900.0000000258,151.425264870856,1.00000000084673,0.575072438219668
12000.0000000261,150.593407095662,1.00000000087666,0.578368754449055
12100.0000000265,149.753382646674,1.00000000080459,0.568359185583895
12200.0000000269,148.894752078205,1.00000000070336,0.549191436610846
12300.0000000272,148.015628702332,1.00000000084734,0.571283002486779
12400.0000000276,147.140161674893,1.00000000088906,0.575270334188736
12500.0000000279,146.264437603482,1.00000000082161,0.563484876324132
12600.0000000283,145.376406261402,1.00000000071543,0.549167045138772
12700.0000000287,144.476580008753,1.00000000079653,0.556704896999832
12800.000000029,143.57811445,1.00000000095352,0.577248072779447
12900.0000000294,142.685821803177,1.00000000087472,0.556743301560331
13000.0000000298,141.792502182718,1.00000000077105,0.553187260021212
13100.0000000301,140.889586254994,1.00000000072888,0.547375741701559
13200.0000000305,139.987682489596,1.00000000086708,0.56423213518629
13300.0000000309,139.091834540961,1.000000000899,0.564020266193323
13400.0000000312,138.202056655853,1.0000000008222,0.547989058294253
13500.0000000316,137.313498569351,1.00000000077237,0.549161644765103
13600.0000000319,136.422391509386,1.00000000082845,0.551960898256553
13700.0000000323,135.537061884767,1.00000000089668,0.557920933364798
13800.0000000327,134.657919949477,1.00000000088465,0.557096609656936
13900.000000033,133.785300852232,1.00000000081323,0.540871391294299
14000.0000000334,132.91767895242,1.00000000082302,0.54594136384266
14100.0000000338,132.052119095539,1.00000000081644,0.555302020468235
14200.0000000341,131.193633198623,1.0000000008697,0.553600514257334
14300.0000000345,130.34145396703,1.00000000083305,0.550140805261787
14400.0000000349,129.495688787986,1.00000000085769,0.541983019856863
14500.0000000352,128.657226252359,1.00000000084785,0.537839485652945
14600.0000000356,127.823925304619,1.00000000079645,0.549182706609332
14700.0000000359,126.99809726426,1.00000000088503,0.558389182880078
14800.0000000363,126.179431861866,1.00000000085748,0.548390572284124
14900.0000000367,125.367792557761,1.00000000082365,0.54106641380386
15000.000000037,124.563291286368,1.00000000083045,0.538461349722351
15100.0000000374,123.765142217468,1.00000000088023,0.536419934991919
15200.0000000378,122.975434695539,1.00000000081952,0.5480141829351
15300.0000000381,122.193130290816,1.00000000086337,0.559426056335746
15400.0000000385,121.418864971742,1.00000000084529,0.550349534289917
15500.0000000389,120.652650784304,1.00000000078748,0.536103626537444
15600.0000000392,119.893002471718,1.00000000081868,0.53614225312924
15700.0000000396,119.141147271681,1.00000000081405,0.539602545821262
15800.0000000399,118.39728049634,1.00000000082014,0.538571116621182
15900.0000000403,117.661597323834,1.0000000008663,0.553710845556802
16000.0000000407,116.934697474731,1.00000000084603,0.558286529221313
16100.000000041,116.215483376257,1.00000000078878,0.545943987259465
16200.0000000414,115.50442512017,1.0000000008322,0.537410690480323
16300.0000000418,114.801494410961,1.00000000079135,0.533987709733912
16400.0000000418,114.106479921954,1.00000000079086,0.542018967782844
16500.0000000404,113.419925564028,1.00000000081197,0.54612066047008
16600.0000000389,112.74139866301,1.00000000085791,0.548000736825743
16700.0000000375,112.071517310139,1.00000000085538,0.55631712297015
16800.000000036,111.410101477819,1.00000000078915,0.551122901430327
16900.0000000346,110.75696803919,1.00000000081729,0.542341762535807
17000.0000000331,110.112601061842,1.00000000079366,0.533410821190021
17100.0000000317,109.477044341466,1.00000000076926,0.53439513771914
17200.0000000302,108.849730015832,1.00000000086502,0.547726763348022
17300.0000000287,108.230185758559,1.00000000084008,0.551949158655768
17400.0000000273,107.618598361059,1.00000000080095,0.545779520361934
17500.0000000258,107.014929252341,1.00000000086302,0.553893914300578
17600.0000000244,106.419697247214,1.00000000081633,0.551564664426087
17700.0000000229,105.833769280856,1.00000000073335,0.539291543194717
17800.0000000215,105.257029954615,1.00000000079746,0.533713647656299
17900.00000002,104.688937223584,1.0000000007919,0.534551793289544
18000.0000000186,104.128959122863,1.00000000084142,0.537704464226612
18100.0000000171,103.576291079961,1.00000000087482,0.547521532896617
18200.0000000156,103.030182343292,1.00000000080442,0.555500018003934
18300.0000000142,102.491158621533,1.00000000083947,0.549987459592572
18400.0000000127,101.959144293051,1.00000000085416,0.549580158657962
18500.0000000113,101.435602503805,1.0000000007896,0.547315288603585
18600.0000000098,100.92195053109,1.0000000007633,0.537323147833664
18700.0000000084,100.418125542323,1.00000000074855,0.531243023507104
18800.0000000069,99.9226324429189,1.00000000082558,0.534213309276373
18900.0000000055,99.4340072478609,1.0000000008151,0.53583824676546
19000.000000004,98.9526435491163,1.00000000080653,0.5345234816487
19100.0000000026,98.476781437132,1.00000000091065,0.549070541972423
19200.0000000011,98.0047613594253,1.00000000086755,0.563129899026647
19299.9999999996,97.538235846244,1.0000000008424,0.550572780968738
19399.9999999982,97.0789329872901,1.00000000086076,0.54613742379461
19499.9999999967,96.6278221598017,1.0000000007928,0.542644288381616
19599.9999999953,96.1870515886356,1.00000000077298,0.537454574809289
19699.9999999938,95.7559765075447,1.00000000079293,0.535339967070143
19799.9999999924,95.3327704971865,1.00000000082167,0.532402376365352
19899.9999999909,94.9160337271243,1.00000000086344,0.532232102268294
19999.9999999895,94.5053487959288,1.00000000081876,0.53138406970531
20099.999999988,94.100324297459,1.0000000008656,0.536853837287708
20199.9999999865,93.6973565009679,1.00000000094987,0.550484754915322
20299.9999999851,93.2961857791027,1.0000000008856,0.561292069185711
20399.9999999836,92.8993965658748,1.00000000083189,0.552143661861308
20499.9999999822,92.5089986300387,1.00000000081387,0.542306795332483
20599.9999999807,92.1270754657209,1.00000000079365,0.540655116764892
20699.9999999793,91.7549062379071,1.00000000079119,0.539331911123138
20799.9999999778,91.3908989963799,1.00000000081076,0.542589214425847
20899.9999999764,91.0349909596478,1.00000000078243,0.536779406938477
20999.9999999749,90.685971075834,1.00000000078583,0.530251336279567
21099.9999999734,90.3433513559923,1.00000000080333,0.529198619303512
21199.999999972,90.0059208306467,1.00000000084753,0.533711589989343
21299.9999999705,89.6713616047107,1.00000000090044,0.537502408413931
21399.9999999691,89.3371580366116,1.00000000092352,0.544980630161823
21499.9999999676,89.0022795857108,1.00000000090395,0.554374348912467
21599.9999999662,88.6701245275005,1.00000000084522,0.554610639556244
21699.9999999647,88.3433570577439,1.00000000080317,0.546704688399415
21799.9999999633,88.0234918972998,1.00000000080398,0.541879841944802
21899.9999999618,87.7113029821861,1.00000000079084,0.545180941116916
21999.9999999603,87.4069158127344,1.00000000079116,0.547075669770192
22099.9999999589,87.1102414041706,1.00000000080005,0.543705297565753
22199.9999999574,86.8207403494425,1.00000000082027,0.544311296883173
22299.999999956,86.5376481363331,1.00000000080031,0.538663400573436
22399.9999999545,86.2613273887976,1.00000000080267,0.535794633404444
22499.9999999531,85.9899302781625,1.00000000083116,0.535257252034515
22599.9999999516,85.7221211384207,1.00000000082204,0.538986731748596
22699.9999999502,85.4553470158267,1.0000000009172,0.544815722200008
22799.9999999487,85.1873096382912,1.00000000091576,0.545089496408507
22899.9999999473,84.9186015857857,1.0000000009225,0.550741647405527
22999.9999999458,84.6506470872809,1.00000000086701,0.562229427758783
23099.9999999443,84.386464431668,1.00000000082391,0.557332217753804
23199.9999999429,84.1284672072292,1.00000000080048,0.550485854482941
23299.9999999414,83.8771480953863,1.00000000080407,0.550318811904543
23399.99999994,83.6331913965414,1.00000000079624,0.552273264546232
23499.9999999385,83.3966646224574,1.00000000081233,0.553699828273863
23599.9999999371,83.1669947626812,1.00000000079561,0.550677749620644
23699.9999999356,82.9439569607992,1.00000000083171,0.550732571232203
23799.9999999342,82.7258746026124,1.00000000084812,0.548966702036771
23899.9999999327,82.5127007328868,1.00000000082791,0.545073726718507
23999.9999999312,82.3043955271861,1.0000000007932,0.542916567540541
24099.9999999298,82.1003189182293,1.00000000081536,0.543527856017729
24199.9999999283,81.8991500793431,1.00000000082897,0.549078565551897
24299.9999999269,81.6982491376452,1.0000000009131,0.549037921993115
24399.9999999254,81.4954251996051,1.00000000092936,0.54933410625831
24499.999999924,81.2889606706056,1.00000000092359,0.556655529109017
24599.9999999225,81.0817542692521,1.00000000086178,0.563510342313346
24699.9999999211,80.8768401415527,1.00000000084086,0.564664725853015
24799.9999999196,80.6763286650911,1.00000000082787,0.557332295585864
24899.9999999181,80.4819535175227,1.00000000080861,0.554211063294525
24999.9999999167,80.2939202869643,1.00000000080473,0.554673083276522
25099.9999999152,80.1116435436535,1.00000000080404,0.556636298116903
25199.9999999138,79.9363415483576,1.00000000081184,0.554827278289414
25299.9999999123,79.7671832257088,1.00000000081572,0.555450936632759
25399.9999999109,79.6029288119873,1.00000000084331,0.556172876088754
25499.9999999094,79.4418846456231,1.00000000085585,0.556288761020144
25599.999999908,79.2838006802528,1.0000000008371,0.549145561901201
25699.9999999065,79.131211148643,1.00000000077427,0.545695131354766
25799.9999999051,78.9830029405399,1.00000000081766,0.549381218398512
25899.9999999036,78.8374386955464,1.00000000086113,0.553352329222374
25999.9999999021,78.6923788542311,1.00000000084155,0.560779766291645
26099.9999999007,78.5462743913975,1.00000000088297,0.559463668509633
26199.9999998992,78.3980934575927,1.00000000090433,0.556218639520151
26299.9999998978,78.246239373366,1.00000000092383,0.560508646000866
26399.9999998963,78.0922713777931,1.00000000086467,0.562344305910896
26499.9999998949,77.9377878961185,1.00000000084083,0.571028961423846
26599.9999998934,77.7848671746837,1.0000000008349,0.57190195237764
26699.999999892,77.6362501935469,1.00000000080223,0.56607474569382
26799.9999998905,77.4922327068771,1.00000000079935,0.561782217444855
26899.999999889,77.3536261583231,1.00000000080703,0.557116955075138
26999.9999998876,77.2204604392126,1.00000000084188,0.557055136068299
27099.9999998861,77.0915254554656,1.000000000829,0.558017390419241
27199.9999998847,76.9677017182464,1.0000000008287,0.55881729514636
27299.9999998832,76.8478410146992,1.0000000008603,0.56117125633555
27399.9999998818,76.7313581775407,1.00000000082241,0.557877547799184
27499.9999998803,76.6189514671097,1.00000000081009,0.554905431706171
27599.9999998789,76.5096248893266,1.00000000082514,0.554246989898966
27699.9999998774,76.404142047345,1.00000000082445,0.55190539640019
27799.9999998759,76.3010195365459,1.00000000084243,0.558572745362087
27899.9999998745,76.1989315032273,1.00000000088727,0.562785638348345
27999.999999873,76.0954601090127,1.00000000089078,0.566657398639351
28099.9999998716,75.9904054109576,1.00000000088473,0.571268636067824
28199.9999998701,75.8844749302514,1.00000000087389,0.568207506834684
28299.9999998687,75.7773754151095,1.0000000008928,0.563693929049151
28399.9999998672,75.668295229238,1.00000000089534,0.564196683349971
28499.9999998658,75.557611866026,1.00000000088757,0.568220503685867
28599.9999998643,75.4456474143294,1.00000000087607,0.566488666791592
28699.9999998629,75.3345286547256,1.000000000845,0.56771845821391
28799.9999998614,75.224599825554,1.00000000085085,0.574031788055971
28899.9999998599,75.1182420153916,1.0000000008016,0.572297608423882
28999.9999998585,75.0160696228818,1.0000000008254,0.570261523130453
