Time,AGPnorm,Energy,Entropy
0,0,1,-1.28737702622061e-17
99.9999999999986,4.02235298507539e-05,0.999999999996998,0.00159274578775107
199.999999999993,0.00362860883866717,0.999999999999144,0.00259420677670601
300,0.00910233377476372,0.999999999998953,0.00443836455258142
400.000000000022,0.0124673829368726,0.999999999997124,0.00765465317147453
500.000000000045,0.0147592631149079,0.999999999999975,0.0102849714737346
600.000000000068,0.0214486946035402,0.999999999997482,0.0141354053645827
700.000000000091,0.0269111471456421,0.999999999998481,0.0182190220163715
800.000000000113,0.0338266126198217,0.999999999999514,0.0222672678902113
900.000000000136,0.0417601670627001,0.999999999996904,0.0273935731219366
1000.00000000016,0.0483522840325336,0.999999999999664,0.0322545125155821
1100.0000000001,0.0582306321264601,0.999999999998194,0.0376263551099078
1200,0.0682724659333822,0.999999999997847,0.0436481208484585
1299.99999999991,0.0773436107179249,0.999999999999738,0.0494754982593842
1399.99999999982,0.0878905907186089,0.999999999997039,0.056105899253004
1499.99999999973,0.0985304260954879,0.99999999999923,0.0629048684186444
1599.99999999964,0.110449005214851,0.999999999998899,0.0699443098549193
1699.99999999955,0.122541518879227,0.999999999997298,0.0778544848841146
1799.99999999946,0.133242949305465,0.999999999999669,0.0856609085069145
1899.99999999937,0.145684479709611,0.999999999997541,0.0941934860336532
1999.99999999928,0.158891758642319,0.999999999998732,0.103413487298046
2099.99999999919,0.171429536262147,0.999999999999339,0.1128764895809
2199.99999999909,0.183800910801895,0.99999999999707,0.12349426594144
2299.999999999,0.195691206514658,0.999999999999562,0.134552267973305
2399.99999999891,0.208981277973475,0.999999999998698,0.146764030192314
2499.99999999882,0.222462567235479,1.00000000000004,0.160721207460795
2599.99999999873,0.23469328039213,1.00000000000534,0.175681486300805
2699.99999999864,0.246615904977424,1.00000000001322,0.192807971600565
2799.99999999855,0.257869717075854,1.00000000003701,0.211237658871313
2899.99999999846,0.274818614171045,1.00000000006897,0.230631870046534
2999.99999999837,0.285789105707669,1.00000000011556,0.250961362746941
3099.99999999828,0.304731615599818,1.00000000018102,0.270414307360056
3199.99999999819,0.336886206617597,1.00000000023,0.290050376649107
3299.99999999809,0.369646698706901,1.00000000032029,0.309294726776053
3399.999999998,0.448052069614669,1.0000000003888,0.327625208872016
3499.99999999791,0.547734181395908,1.00000000046456,0.345863841353343
3599.99999999782,0.695811541272229,1.00000000054262,0.362890809708569
3699.99999999773,0.935457245243802,1.00000000059573,0.379298223345656
3799.99999999764,1.22987878787502,1.00000000071093,0.395583119919824
3899.99999999755,1.65162093322277,1.00000000078746,0.410165900571066
3999.99999999746,2.19961077718697,1.00000000081313,0.424581908470692
4099.99999999738,2.86618355714574,1.00000000088501,0.438264702002075
4199.99999999775,3.72924726537868,1.00000000093289,0.45062644005237
4299.99999999811,4.74541975488608,1.0000000009827,0.463042051063342
4399.99999999848,5.95343646573101,1.00000000102108,0.474047623936518
4499.99999999884,7.3905032208993,1.00000000108443,0.484217827790964
4599.9999999992,9.00446408418979,1.00000000109954,0.494513686815472
4699.99999999957,10.8624008762322,1.00000000115132,0.503239236757349
4799.99999999993,12.9455997216912,1.00000000116088,0.51174143372862
4900.00000000029,15.2287791903717,1.00000000114983,0.519950456632224
5000.00000000066,17.7692013981467,1.0000000011977,0.526704194662733
5100.00000000102,20.5048951582396,1.00000000123726,0.53379555335638
5200.00000000139,23.4548989060479,1.00000000120476,0.539961073534108
5300.00000000175,26.6357461767819,1.00000000125351,0.545309762131627
5400.00000000211,29.9793486910689,1.00000000123612,0.551133625817424
5500.00000000248,33.530740458818,1.000000001268,0.555610097230785
5600.00000000284,37.252712237727,1.00000000125131,0.560121559303444
5700.00000000321,41.1141831875506,1.00000000122634,0.564446084436571
5800.00000000357,45.1514531714822,1.00000000125423,0.567744983805538
5900.00000000393,49.2919592728637,1.00000000119061,0.571693977390727
6000.0000000043,53.551106717733,1.00000000124396,0.574462951162032
6100.00000000466,57.9239544104978,1.00000000122914,0.577117981469423
6200.00000000502,62.3517457702131,1.00000000120882,0.579925149408121
6300.00000000539,66.8697350365231,1.00000000122928,0.581736330493118
6400.00000000575,71.4272225494549,1.00000000114826,0.5840992588696
6500.00000000612,76.0095406848489,1.00000000113999,0.586147397165292
6600.00000000648,80.6343986796719,1.00000000115558,0.587304779363097
6700.00000000684,85.2406517747587,1.00000000115175,0.588933926779092
6800.00000000721,89.8511683130099,1.0000000011151,0.589940993782863
6900.00000000757,94.4413883398213,1.00000000111175,0.590967485013568
7000.00000000793,98.9791138360769,1.00000000110475,0.592301422809019
7100.0000000083,103.491604899103,1.00000000111149,0.592210347463161
7200.00000000866,107.930481922137,1.00000000108108,0.593130897947154
7300.00000000903,112.302805657358,1.00000000108005,0.593856648059907
7400.00000000939,116.604949261973,1.00000000106082,0.593863710195167
7500.00000000975,120.801282168137,1.00000000103598,0.594389620934719
7600.00000001012,124.919088918016,1.00000000101418,0.593911735629093
7700.00000001048,128.925124216635,1.00000000102283,0.594718683502554
7800.00000001084,132.81665574229,1.00000000099957,0.594365005273179
7900.00000001121,136.602782580632,1.00000000101009,0.594358480345496
8000.00000001157,140.25287852442,1.00000000098996,0.594151093037386
8100.00000001194,143.788327522614,1.00000000095864,0.594596258842488
8200.0000000123,147.190332267924,1.00000000091553,0.593523711314881
8300.00000001266,150.45259773609,1.00000000096434,0.594191785874493
8400.00000001303,153.588959236872,1.00000000090257,0.592655975145198
8500.00000001339,156.576684206211,1.00000000091217,0.59353357374758
8600.00000001376,159.430239101074,1.00000000090655,0.591853930784528
8700.00000001412,162.1429682384,1.00000000089065,0.592511402065633
8800.00000001448,164.705535716557,1.00000000088507,0.591050330532426
8900.00000001485,167.134646014422,1.00000000086605,0.591707807906329
9000.00000001521,169.4149809401,1.00000000081885,0.590133439859843
9100.00000001557,171.554427313711,1.00000000084272,0.590845312142403
9200.00000001594,173.557469609096,1.00000000080009,0.589407010862382
9300.0000000163,175.41066989716,1.00000000079333,0.589285791374958
9400.00000001667,177.135473235653,1.00000000082159,0.58903385835309
9500.00000001703,178.717778183705,1.00000000076808,0.587943423831194
9600.00000001739,180.166073647456,1.00000000077099,0.588589632220866
9700.00000001776,181.485688065472,1.00000000077065,0.587512158111668
9800.00000001812,182.668798956605,1.00000000075653,0.586882441827097
9900.00000001848,183.730509510363,1.00000000071985,0.587107518008613
10000.0000000188,184.666784422056,1.00000000073401,0.587130459432007
10100.0000000192,185.481194691637,1.00000000071304,0.584912702016007
10200.0000000196,186.180227139587,1.00000000069691,0.58699226465881
10300.0000000199,186.764074019231,1.00000000070818,0.587127826841955
10400.0000000203,187.241334605765,1.0000000006844,0.583328905818909
10500.0000000207,187.60916087241,1.00000000067755,0.586640082347203
10600.000000021,187.877989907312,1.00000000067798,0.586987134244899
10700.0000000214,188.052990998671,1.00000000065975,0.581664526866586
10800.0000000218,188.128695160238,1.00000000066763,0.583752341407772
10900.0000000221,188.123196081571,1.00000000067151,0.585954892958928
11000.0000000225,188.037511644266,1.00000000065944,0.581880181369381
11100.0000000229,187.868929247424,1.00000000064441,0.578080422520449
11200.0000000232,187.626396539382,1.00000000070202,0.582758703941061
11300.0000000236,187.318412478839,1.00000000069153,0.58430381625287
11400.0000000239,186.950907971303,1.00000000064482,0.575322954208354
11500.0000000243,186.51153740487,1.00000000061639,0.572965307847375
11600.0000000247,186.016878185637,1.0000000007182,0.585748866732067
11700.000000025,185.485911026605,1.00000000069721,0.579703337601575
11800.0000000254,184.899377851826,1.00000000058888,0.563248443502814
11900.0000000258,184.258312041267,1.00000000065706,0.573723356742217
12000.0000000261,183.586933494783,1.00000000076039,0.584934076912896
12100.0000000265,182.888542156101,1.00000000069109,0.572696662845479
12200.0000000269,182.148506262162,1.00000000057937,0.556468412938169
12300.0000000272,181.362086000172,1.00000000068599,0.571142833942123
12400.0000000276,180.560197536384,1.00000000078676,0.584048048786081
12500.0000000279,179.747020749831,1.0000000007155,0.570039015405448
12600.0000000283,178.90213117693,1.00000000059868,0.552670257967533
12700.0000000287,178.023654653153,1.0000000006374,0.557266494685822
12800.000000029,177.129957420904,1.00000000081233,0.584474530995297
12900.0000000294,176.238003932338,1.00000000079387,0.571747965573671
13000.0000000298,175.332751440501,1.00000000060881,0.554576756804539
13100.0000000301,174.39795277589,1.00000000059439,0.541428557793921
13200.0000000305,173.446858183956,1.00000000077668,0.569177105745025
13300.0000000309,172.500640103084,1.0000000008897,0.58313675850397
13400.0000000312,171.558071259188,1.00000000072489,0.556242301530065
13500.0000000316,170.604606392244,1.00000000062518,0.544785593321687
13600.0000000319,169.629793520891,1.00000000059528,0.53723796842244
13700.0000000323,168.650234132661,1.00000000077394,0.572861666354876
13800.0000000327,167.682938093075,1.00000000085322,0.577168462664001
13900.000000033,166.720722231222,1.00000000071524,0.547882123093518
14000.0000000334,165.75432485707,1.00000000064553,0.541340375608285
14100.0000000338,164.774505821711,1.00000000061074,0.534732294665241
14200.0000000341,163.792802707825,1.00000000076964,0.560173714052896
14300.0000000345,162.822265501999,1.00000000087475,0.576332431242601
14400.0000000349,161.861206122025,1.00000000072616,0.547256816486188
14500.0000000352,160.902872419585,1.00000000069431,0.538934167405998
14600.0000000356,159.939403058835,1.00000000060493,0.537602657989444
14700.0000000359,158.974209829472,1.00000000070471,0.542546526909259
14800.0000000363,158.01427735174,1.0000000008228,0.561389397279632
14900.0000000367,157.065747849812,1.00000000084207,0.562772858683567
15000.000000037,156.126245746606,1.00000000070907,0.53630490184811
15100.0000000374,155.188897890387,1.00000000067271,0.534430075440073
15200.0000000378,154.253979704991,1.00000000067452,0.542271509851672
15300.0000000381,153.321420430659,1.00000000071455,0.542518757269661
15400.0000000385,152.394713982381,1.00000000074861,0.549092674575111
15500.0000000389,151.478035563242,1.00000000078935,0.553403942625185
15600.0000000392,150.56962051122,1.00000000075511,0.539758756137876
15700.0000000396,149.66807339711,1.00000000066496,0.528596487652059
15800.0000000399,148.771179308236,1.00000000069949,0.542213029312047
15900.0000000403,147.879616379777,1.00000000072793,0.548006949294378
16000.0000000407,146.995101025611,1.00000000072617,0.538473206318149
16100.000000041,146.117091542456,1.00000000072701,0.538618550278446
16200.0000000414,145.247372366384,1.00000000077719,0.545497104268423
16300.0000000418,144.386396342951,1.00000000071285,0.534781947188455
16400.0000000418,143.532247187786,1.0000000006952,0.533328258717806
16500.0000000404,142.686150937307,1.00000000070022,0.545595009330977
16600.0000000389,141.846933572322,1.00000000069224,0.547939620154514
16700.0000000375,141.015114242279,1.00000000069081,0.537958097547167
16800.000000036,140.190775447737,1.00000000071841,0.531618708549192
16900.0000000346,139.373860519999,1.00000000071558,0.534745002387844
17000.0000000331,138.565352721582,1.00000000073433,0.540325865645087
17100.0000000317,137.765004139276,1.00000000073225,0.539690931773846
17200.0000000302,136.973065940072,1.00000000071718,0.540085885641356
17300.0000000287,136.189658105668,1.0000000007105,0.548776760193941
17400.0000000273,135.413935211298,1.00000000065892,0.545589273723291
17500.0000000258,134.646402068484,1.00000000067091,0.534795737820651
17600.0000000244,133.886855154244,1.00000000067389,0.527714012224344
17700.0000000229,133.135562800908,1.00000000068524,0.531756956567112
17800.0000000215,132.39287853738,1.00000000073051,0.543307803669454
17900.00000002,131.658020800076,1.00000000075019,0.548251037804052
18000.0000000186,130.931568678006,1.00000000070555,0.542020095223483
18100.0000000171,130.213460616385,1.0000000007197,0.547076286874997
18200.0000000156,129.50390607402,1.00000000071041,0.550381593117443
18300.0000000142,128.803367962814,1.00000000061433,0.537112277962697
18400.0000000127,128.111821828569,1.0000000006402,0.526811127828418
18500.0000000113,127.429361499933,1.0000000006996,0.528878489154822
18600.0000000098,126.755492775558,1.00000000071979,0.5350934725566
18700.0000000084,126.089547956973,1.00000000069794,0.543392615916592
18800.0000000069,125.431437545231,1.00000000072454,0.550646767516808
18900.0000000055,124.78074465961,1.00000000069247,0.548184573918776
19000.000000004,124.137477482819,1.00000000073114,0.548857773935949
19100.0000000026,123.502196348489,1.00000000072344,0.549469319294083
19200.0000000011,122.876119567642,1.00000000063057,0.539996972086406
19299.9999999996,122.261113992346,1.00000000059774,0.524939751624135
19399.9999999982,121.656455461434,1.00000000065789,0.523586014909042
19499.9999999967,121.05980955775,1.00000000075219,0.531889989689848
19599.9999999953,120.47060972756,1.00000000071935,0.532573390842693
19699.9999999938,119.888911608885,1.00000000069413,0.538801051500911
19799.9999999924,119.313588565929,1.00000000073297,0.549894703815242
19899.9999999909,118.7441604922,1.00000000073032,0.553468497837942
19999.9999999895,118.180662329718,1.00000000075393,0.548693445071855
20099.999999988,117.623759602665,1.00000000073095,0.549530900075134
20199.9999999865,117.075556179691,1.00000000065516,0.537924379291749
20299.9999999851,116.538797435502,1.00000000063135,0.530061546037147
20399.9999999836,116.013801691661,1.00000000063139,0.521603577483302
20499.9999999822,115.498179517237,1.00000000071582,0.52161356065934
20599.9999999807,114.989429779062,1.0000000007567,0.528982430469849
20699.9999999793,114.486679420218,1.00000000073739,0.530166016669013
20799.9999999778,113.990000439231,1.00000000074707,0.529174593591816
20899.9999999764,113.497807474891,1.00000000074438,0.54057896388421
20999.9999999749,113.008794556649,1.00000000074358,0.555203985378137
21099.9999999734,112.524057296318,1.0000000007401,0.551004570747068
21199.999999972,112.044425359809,1.00000000071625,0.544455106052899
21299.9999999705,111.571546283376,1.00000000071013,0.541215707570124
21399.9999999691,111.108732245083,1.00000000066982,0.532318593431682
21499.9999999676,110.657587599011,1.00000000061773,0.527781238855338
21599.9999999662,110.217220084324,1.0000000006771,0.526598176860298
21699.9999999647,109.785625554812,1.00000000069195,0.520568972976525
21799.9999999633,109.360123178625,1.00000000071897,0.521245394268164
21899.9999999618,108.939580169436,1.00000000074727,0.52511037393078
21999.9999999603,108.523617734118,1.00000000070803,0.525253147748057
22099.9999999589,108.111135861334,1.00000000077904,0.531459045700432
22199.9999999574,107.699868519816,1.00000000079598,0.541340132561173
22299.999999956,107.289429559383,1.00000000076217,0.552916649424833
22399.9999999545,106.882353694316,1.00000000070491,0.548780784598188
22499.9999999531,106.480902213091,1.00000000072398,0.538429997832791
22599.9999999516,106.086258851169,1.0000000006646,0.536805628342311
22699.9999999502,105.700814819697,1.00000000063248,0.533986963640692
22799.9999999487,105.325259422546,1.00000000067533,0.5328888527394
22899.9999999473,104.959400815795,1.00000000067891,0.530859166561082
22999.9999999458,104.602078963018,1.00000000068152,0.52945690073936
23099.9999999443,104.252043450293,1.00000000070527,0.521978291735344
23199.9999999429,103.908607724362,1.00000000071352,0.521803023576413
23299.9999999414,103.569031418297,1.0000000007427,0.522904219161793
23399.99999994,103.232361273158,1.00000000074057,0.528485006056466
23499.9999999385,102.897159408574,1.00000000077371,0.533137144115098
23599.9999999371,102.561754915262,1.00000000078114,0.534279255990641
23699.9999999356,102.22598637422,1.00000000076391,0.540413433630127
23799.9999999342,101.891373702659,1.0000000007296,0.549287404196414
23899.9999999327,101.560534561254,1.0000000007172,0.545396876845031
23999.9999999312,101.236084197505,1.00000000068415,0.53651660929988
24099.9999999298,100.919057201387,1.00000000069159,0.538050167306394
24199.9999999283,100.609387677145,1.00000000069782,0.539765460150752
24299.9999999269,100.307454820187,1.00000000071402,0.538801239415485
24399.9999999254,100.013507604543,1.00000000067204,0.53395180418174
24499.999999924,99.7280967575351,1.00000000066326,0.532594368820329
24599.9999999225,99.4499448374887,1.00000000069666,0.531147641712051
24699.9999999211,99.1776699155451,1.00000000070675,0.529487369997965
24799.9999999196,98.9097435193443,1.00000000069045,0.528354311226811
24899.9999999181,98.646194531075,1.00000000071664,0.52804286198177
24999.9999999167,98.3849700837233,1.00000000070591,0.533386560526376
25099.9999999152,98.1248148956866,1.00000000075353,0.534771179737447
25199.9999999138,97.8648976003239,1.00000000079761,0.535069708706469
25299.9999999123,97.602981198425,1.00000000079791,0.53596306878923
25399.9999999109,97.3403514347877,1.00000000074227,0.540281869835628
25499.9999999094,97.0796948196316,1.00000000069737,0.546727840676885
25599.999999908,96.823064106466,1.00000000069258,0.546396141217139
25699.9999999065,96.5713169264062,1.0000000006968,0.544998820635193
25799.9999999051,96.3251891359605,1.00000000069338,0.544602902423171
25899.9999999036,96.0853229662818,1.00000000070977,0.545225822976014
25999.9999999021,95.8518946752936,1.00000000070923,0.542432963755857
26099.9999999007,95.6258395052317,1.00000000063669,0.538280284717704
26199.9999998992,95.4083996707069,1.000000000665,0.534074044983812
26299.9999998978,95.1978542616972,1.00000000069936,0.536442471960133
26399.9999998963,94.992109271166,1.00000000075009,0.538434516706014
26499.9999998949,94.789598305342,1.00000000072768,0.535447928354061
26599.9999998934,94.5902561379626,1.00000000072045,0.533860700025037
26699.999999892,94.3950797327762,1.00000000069726,0.533448308654384
26799.9999998905,94.2027600035607,1.00000000069105,0.53657917383864
26899.999999889,94.0124049012769,1.00000000072078,0.542026353193601
26999.9999998876,93.8226490405053,1.00000000074508,0.541108608889949
27099.9999998861,93.6315546808733,1.00000000076063,0.541336873257517
27199.9999998847,93.4381274424422,1.00000000077155,0.542215824724906
27299.9999998832,93.243173690069,1.00000000074206,0.544338101675632
27399.9999998818,93.0489437022636,1.00000000070921,0.548702749089789
27499.9999998803,92.8569744838274,1.00000000070577,0.552501901862565
27599.9999998789,92.6680396643965,1.00000000073255,0.553507986471165
27699.9999998774,92.4825909127065,1.00000000072397,0.551714818442259
27799.9999998759,92.300740752825,1.00000000071434,0.548898438382044
27899.9999998745,92.1237536666816,1.00000000069659,0.54762831566119
27999.999999873,91.9524436592277,1.00000000068438,0.543546393681018
28099.9999998716,91.7880107893735,1.00000000065718,0.541041529308954
28199.9999998701,91.6312650915726,1.00000000068565,0.539463576223215
28299.9999998687,91.4805597025751,1.00000000070334,0.540735819129532
28399.9999998672,91.3333638541086,1.00000000074102,0.542274312322457
28499.9999998658,91.1891256662254,1.0000000007421,0.540442931504535
28599.9999998643,91.0460749830919,1.00000000073588,0.539908579556052
28699.9999998629,90.9059024621596,1.00000000069249,0.536922448832757
28799.9999998614,90.7691317820963,1.00000000069851,0.540135145320997
28899.9999998599,90.6343454313355,1.00000000072678,0.543613344907184
