Time,AGPnorm,Energy,Entropy
0,0,1,3.49707393333127e-18
99.9999999999986,0.0162709633687825,1.00000000000113,0.0398167161166771
199.999999999993,0.039175531092848,1.00000000000126,0.118531137163819
300,0.0687523457806029,1.00000000026158,0.261929958150763
400.000000000022,0.175613149618367,1.00000000281685,0.446484875733626
500.000000000045,0.774481613448415,1.00000000516161,0.551051259214198
600.000000000068,2.1456650890112,1.00000000505651,0.597013546697728
700.000000000091,4.05079571506333,1.0000000052147,0.606956989589907
800.000000000113,5.95238827607162,1.00000000504258,0.606137574069467
900.000000000136,7.57553381882569,1.00000000464576,0.592007378381219
1000.00000000016,8.68287103067611,1.00000000397355,0.586428349560262
1100.0000000001,9.30542405034665,1.00000000379512,0.581226191873866
1200,9.50126515511282,1.00000000338351,0.571077306436395
1299.99999999991,9.40080345500312,1.00000000349981,0.567546506944806
1399.99999999982,9.12056421236702,1.00000000435768,0.581173012887837
1499.99999999973,8.74748165711985,1.00000000381834,0.530324255596932
1599.99999999964,8.37396666512104,1.00000000316408,0.489512742896091
1699.99999999955,7.9771777203864,1.0000000047677,0.568813850104393
1799.99999999946,7.60580300018934,1.00000000301261,0.473989238559589
1899.99999999937,7.23526053241331,1.00000000437868,0.556130601572555
1999.99999999928,6.90907171310486,1.00000000250122,0.458326581755607
2099.99999999919,6.59592591097696,1.00000000345877,0.52160490699128
2199.99999999909,6.30216405467828,1.00000000444252,0.549744948539275
2299.999999999,6.06640227184911,1.00000000270088,0.47354286523588
2399.99999999891,5.83566866392133,1.00000000381936,0.544795994440665
2499.99999999882,5.62656555061225,1.00000000426101,0.559206778555994
2599.99999999873,5.42547374210567,1.00000000367748,0.524692610706156
2699.99999999864,5.29294825311684,1.00000000304815,0.497119064674066
2799.99999999855,5.1597362105574,1.00000000388606,0.548384041035
2899.99999999846,5.03638591942328,1.00000000391317,0.560198218600395
2999.99999999837,4.90812740382832,1.00000000359389,0.580439581155066
3099.99999999828,4.7809249585618,1.00000000407284,0.542008114716549
3199.99999999819,4.71472597037958,1.00000000300747,0.501404586360859
3299.99999999809,4.67767144780877,1.00000000441825,0.562265382259001
3399.999999998,4.63412657553623,1.00000000379339,0.559015115723688
3499.99999999791,4.59128631719645,1.00000000391072,0.573192825424671
3599.99999999782,4.53789508746854,1.00000000447039,0.596187605326159
3699.99999999773,4.46834258244535,1.00000000398185,0.612629786004382
3799.99999999764,4.39806476030891,1.0000000047322,0.589400641979671
3899.99999999755,4.33376544481702,1.00000000417581,0.550659892027446
3999.99999999746,4.33432727351515,1.00000000331971,0.525830916083183
4099.99999999738,4.37368667469728,1.00000000482067,0.567587441809981
4199.99999999775,4.39959265172161,1.00000000438363,0.574133241460529
4299.99999999811,4.42408849232106,1.00000000442541,0.59239550356606
4399.99999999848,4.43643603392335,1.00000000490553,0.624302197194814
4499.99999999884,4.45180548058508,1.00000000420336,0.61267849664713
4599.9999999992,4.45489701952372,1.00000000480451,0.653951818694584
4699.99999999957,4.44679507440593,1.00000000467873,0.639844568591831
4799.99999999993,4.42262660398748,1.00000000450858,0.642516403517078
4900.00000000029,4.3897918563468,1.00000000442734,0.653403240827402
5000.00000000066,4.35387196366959,1.0000000048311,0.663668635991512
5100.00000000102,4.31701735040012,1.00000000488933,0.636049270725205
5200.00000000139,4.28872328079439,1.00000000463167,0.59509244561869
5300.00000000175,4.30867379746499,1.00000000384065,0.566901210709089
5400.00000000211,4.39521747771486,1.00000000453003,0.579942699440491
5500.00000000248,4.48503289834126,1.0000000047468,0.60117625938615
5600.00000000284,4.56633391002111,1.00000000477014,0.610570202027889
5700.00000000321,4.64605147549545,1.00000000460079,0.622587181868076
5800.00000000357,4.71418441949448,1.00000000491189,0.63504225617317
5900.00000000393,4.77572625334263,1.00000000459892,0.652746475807778
6000.0000000043,4.81667850953654,1.00000000510023,0.671044961704325
6100.00000000466,4.85074826543924,1.00000000478021,0.677417304956703
6200.00000000502,4.87873062815515,1.00000000515217,0.673647460318311
6300.00000000539,4.90349254854227,1.00000000514509,0.670946707750932
6400.00000000575,4.92921193110958,1.00000000501673,0.681530283029554
6500.00000000612,4.95020429965947,1.0000000051547,0.666202372942814
6600.00000000648,4.95927271853773,1.00000000504933,0.668980796354036
6700.00000000684,4.97564110710145,1.00000000508386,0.669160668439083
6800.00000000721,4.98849364203639,1.00000000500305,0.682391757859751
6900.00000000757,4.98729534817215,1.00000000481961,0.691843517143781
7000.00000000793,4.9857884590222,1.00000000486799,0.67036449704213
7100.0000000083,4.98282129472761,1.0000000049374,0.680009308706001
7200.00000000866,4.96873121170836,1.00000000508439,0.685714516111642
7300.00000000903,4.94498664218573,1.00000000551725,0.689717374042065
7400.00000000939,4.91260240299642,1.00000000522492,0.680962247695522
7500.00000000975,4.88320535683124,1.0000000051877,0.679414540794055
7600.00000001012,4.85544245906145,1.0000000055918,0.694190328176129
7700.00000001048,4.82913892061691,1.00000000495984,0.690338811487772
7800.00000001084,4.80946038482036,1.00000000514572,0.650941752820102
7900.00000001121,4.81705798577792,1.00000000490082,0.612654764935474
8000.00000001157,4.88556848667942,1.0000000043068,0.598695893815562
8100.00000001194,5.01071605543763,1.00000000495842,0.604471164215448
8200.0000000123,5.14872440805116,1.00000000547276,0.620036364328625
8300.00000001266,5.28244777622676,1.00000000543735,0.626688060514087
8400.00000001303,5.40792435670373,1.00000000567049,0.62864461146812
8500.00000001339,5.53194652708993,1.00000000593202,0.627084307351847
8600.00000001376,5.65060954186347,1.00000000532249,0.635231119260242
8700.00000001412,5.76373449256434,1.00000000570492,0.654465153437649
8800.00000001448,5.86268719758608,1.00000000552099,0.67899354583834
8900.00000001485,5.95613649324995,1.00000000561576,0.686353023973426
9000.00000001521,6.05098326801493,1.00000000522536,0.687590248101486
9100.00000001557,6.13131590145764,1.00000000623577,0.680359626732035
9200.00000001594,6.18952927852997,1.00000000633403,0.699627866031173
9300.0000000163,6.24637739813358,1.00000000520977,0.696955096344404
9400.00000001667,6.31638593029954,1.0000000059413,0.700903503885663
9500.00000001703,6.37424293003627,1.00000000625861,0.716194632728176
9600.00000001739,6.41998336269642,1.00000000597491,0.737304939551198
9700.00000001776,6.46476913581851,1.00000000492543,0.70927350876938
9800.00000001812,6.51756542171664,1.00000000544768,0.713876264774704
9900.00000001848,6.55578850096439,1.00000000607715,0.717363212627528
10000.0000000188,6.58877518165844,1.00000000612842,0.699568626512034
10100.0000000192,6.62260667791149,1.0000000057278,0.707163621788441
10200.0000000196,6.6566960538021,1.00000000586757,0.705254825623624
10300.0000000199,6.69923222334959,1.0000000063874,0.706508686517834
10400.0000000203,6.75035493776412,1.0000000063752,0.707155076579566
10500.0000000207,6.8144289212847,1.00000000577404,0.715016466578254
10600.000000021,6.89187799736333,1.00000000614679,0.717970675257154
10700.0000000214,6.96311654361755,1.00000000605062,0.717127876076744
10800.0000000218,7.02817355496458,1.0000000065323,0.725727935464911
10900.0000000221,7.08348238687754,1.00000000575418,0.704906840925658
11000.0000000225,7.15459178126435,1.00000000579506,0.703279248283043
11100.0000000229,7.22735451405806,1.00000000659412,0.700617223723399
11200.0000000232,7.30749234731334,1.00000000600661,0.710860968515398
11300.0000000236,7.387100168965,1.00000000571309,0.714186922218429
11400.0000000239,7.45518826379084,1.00000000633352,0.713940792572275
11500.0000000243,7.53120484427798,1.00000000655248,0.714825453762049
11600.0000000247,7.60810941626383,1.00000000642458,0.71012404000746
11700.000000025,7.69730359922337,1.0000000066646,0.710170964829663
11800.0000000254,7.79116846555846,1.00000000613412,0.702492623477068
11900.0000000258,7.8840737333376,1.00000000679821,0.708578329382429
12000.0000000261,7.97073074118641,1.000000006844,0.724280628699979
12100.0000000265,8.05193498426199,1.00000000676999,0.71968177591012
12200.0000000269,8.12727380524901,1.00000000674331,0.727688648491079
12300.0000000272,8.20254720231845,1.00000000643389,0.726743279477095
12400.0000000276,8.28259332701277,1.00000000710238,0.719335769795984
12500.0000000279,8.35939989979064,1.00000000658035,0.710583659004948
12600.0000000283,8.4502164416029,1.00000000643453,0.728499405727446
12700.0000000287,8.54223086361194,1.00000000746066,0.720203895467907
12800.000000029,8.63067376773659,1.00000000628461,0.722168203320877
12900.0000000294,8.71941678426953,1.00000000679086,0.722806194898387
13000.0000000298,8.8033742724851,1.00000000693051,0.720319245328998
13100.0000000301,8.88304316256414,1.00000000649991,0.721979373976079
13200.0000000305,8.96447272523908,1.00000000679371,0.732314924178482
13300.0000000309,9.04774716980065,1.00000000676032,0.7305923111181
13400.0000000312,9.13183101703889,1.00000000655323,0.715794252831462
13500.0000000316,9.22055194397697,1.00000000715663,0.728817305783087
13600.0000000319,9.29500423608386,1.00000000713314,0.728294091608339
13700.0000000323,9.3664868377612,1.00000000723703,0.721617622046092
13800.0000000327,9.4366683461582,1.00000000665808,0.723282012098059
13900.000000033,9.49995608786601,1.00000000691092,0.722267338025602
14000.0000000334,9.56642860609835,1.00000000681852,0.722222340233312
14100.0000000338,9.62893941877529,1.0000000072225,0.721090886103655
14200.0000000341,9.68287661488408,1.00000000713843,0.728785664951226
14300.0000000345,9.73133105657368,1.00000000716839,0.717590898869972
14400.0000000349,9.77281742636258,1.00000000756743,0.715988124305018
14500.0000000352,9.80230446930915,1.00000000683802,0.730619496036637
14600.0000000356,9.83129485823211,1.00000000715055,0.730980236182374
14700.0000000359,9.85386697932112,1.00000000692728,0.728468879105688
14800.0000000363,9.87417872477947,1.00000000755617,0.731220916203776
14900.0000000367,9.88777319934948,1.00000000718596,0.723904593873365
15000.000000037,9.90952128553955,1.00000000704296,0.730502418888129
15100.0000000374,9.93508156916478,1.00000000684743,0.72774656273998
15200.0000000378,9.96181450236992,1.00000000776863,0.744308805183529
15300.0000000381,9.98893253431721,1.00000000779182,0.749236344510868
15400.0000000385,10.0198878359643,1.00000000720666,0.737997520762694
15500.0000000389,10.0636345767523,1.00000000812275,0.725063799968291
15600.0000000392,10.1135838840639,1.00000000733167,0.71692490646535
15700.0000000396,10.1903749755645,1.00000000732486,0.709034805053327
15800.0000000399,10.3059680671335,1.00000000660206,0.690843699477418
15900.0000000403,10.4766658250325,1.00000000739811,0.684712754803941
16000.0000000407,10.7023856371766,1.00000000715902,0.675162072605896
16100.000000041,11.0097262445276,1.00000000644738,0.668258888713609
16200.0000000414,11.3653870106119,1.00000000738895,0.675017752506441
16300.0000000418,11.7808752176839,1.0000000078594,0.684594946071144
16400.0000000418,12.2017377001587,1.00000000800219,0.684181065493926
16500.0000000404,12.6395473249821,1.00000000845938,0.688579457469066
16600.0000000389,13.054067207055,1.00000000862124,0.682496053713438
16700.0000000375,13.4837695930988,1.00000000809824,0.678445751915058
16800.000000036,13.9051665957871,1.00000000889014,0.680990985852181
16900.0000000346,14.3375733912149,1.00000000783581,0.682698556804143
17000.0000000331,14.782444470904,1.00000000762467,0.681761372109432
17100.0000000317,15.2269276895109,1.00000000807551,0.683038059431794
17200.0000000302,15.7051796323645,1.00000000730602,0.67104643033631
17300.0000000287,16.1980450197179,1.00000000833464,0.686755495399898
17400.0000000273,16.7331000475503,1.00000000753579,0.698967674572546
17500.0000000258,17.2701640499546,1.00000000845667,0.712803185231147
17600.0000000244,17.8032545159589,1.00000000811794,0.714006532824774
17700.0000000229,18.3413807774898,1.00000000836097,0.730841750906195
17800.0000000215,18.8742651545913,1.00000000771402,0.726611467937443
17900.00000002,19.4139322094343,1.0000000083111,0.734486161714153
18000.0000000186,19.924997088494,1.00000000712118,0.737446489632983
18100.0000000171,20.4451920985522,1.00000000836119,0.738761138298204
18200.0000000156,20.9333036370704,1.0000000079324,0.747794436489799
18300.0000000142,21.4108361265386,1.00000000815443,0.739764427904882
18400.0000000127,21.8945321952957,1.00000000915595,0.751447287576149
18500.0000000113,22.3624176349756,1.00000000817461,0.750583049423501
18600.0000000098,22.8360801512872,1.00000000949498,0.756263508695312
18700.0000000084,23.2998077950199,1.00000000798284,0.754097614804243
18800.0000000069,23.7662079079666,1.00000000834846,0.739932418827314
18900.0000000055,24.2241800628065,1.00000000786438,0.761565542272163
19000.000000004,24.6850654914917,1.00000000766112,0.752483944380916
19100.0000000026,25.1655500440522,1.00000000816039,0.750194907949741
19200.0000000011,25.6327034899032,1.0000000084407,0.76777506563721
19299.9999999996,26.0990991063305,1.00000000884894,0.761294931468533
19399.9999999982,26.581531515581,1.00000000835453,0.759133639008618
19499.9999999967,27.0845814525337,1.00000000848185,0.763735642243825
19599.9999999953,27.5956345042459,1.0000000092464,0.756131961320104
19699.9999999938,28.0955177010808,1.00000000865321,0.755220001852503
19799.9999999924,28.5845041019057,1.00000000785909,0.752906567111284
19899.9999999909,29.0736472449086,1.00000000886876,0.758847414308222
19999.9999999895,29.5669072552996,1.00000000839143,0.757962572472888
20099.999999988,30.0536698989334,1.00000000930166,0.761776233144796
20199.9999999865,30.5440387755042,1.00000000937964,0.754304926550183
20299.9999999851,31.0509410726013,1.00000000852345,0.754689629224031
20399.9999999836,31.5588105825826,1.00000000852365,0.755551247408143
20499.9999999822,32.0740049316079,1.00000000887741,0.754895309526204
20599.9999999807,32.6044293755993,1.00000000867476,0.749057072952651
20699.9999999793,33.133475392643,1.0000000091738,0.743482957303924
20799.9999999778,33.6711354024823,1.00000000840494,0.748583855853175
20899.9999999764,34.210775031418,1.00000000864065,0.748744742169514
20999.9999999749,34.7578844701321,1.00000000839073,0.756357412446489
21099.9999999734,35.2961089558893,1.00000000887033,0.762556290891579
21199.999999972,35.8389621185134,1.00000000951531,0.750954441929994
21299.9999999705,36.3956246185232,1.00000000871219,0.748606434766527
21399.9999999691,36.9881015596612,1.00000000912817,0.74422359673724
21499.9999999676,37.5915123585182,1.00000000890247,0.759313452045966
21599.9999999662,38.1871765292116,1.00000000891563,0.757137356668977
21699.9999999647,38.7805578359045,1.00000000961871,0.755304202682385
21799.9999999633,39.3696106623042,1.00000000931242,0.754603385136651
21899.9999999618,39.9563495879447,1.00000001022584,0.764661420597122
21999.9999999603,40.5446523064408,1.00000000934699,0.768674620297393
22099.9999999589,41.1348151672651,1.00000000916609,0.760808769044313
22199.9999999574,41.7386293719453,1.00000000909342,0.76173431866448
22299.999999956,42.3528145530653,1.0000000101707,0.762440955407117
22399.9999999545,42.9800133025867,1.00000001003176,0.760959979812344
22499.9999999531,43.6063260308505,1.00000000980403,0.761658876314627
22599.9999999516,44.2430748328614,1.0000000091729,0.754503326001606
22699.9999999502,44.8969652839762,1.00000000922285,0.754037895307203
22799.9999999487,45.555714264201,1.00000000932419,0.759392160831705
22899.9999999473,46.1996593523778,1.00000001049892,0.769375829967819
22999.9999999458,46.8206193632477,1.00000001028647,0.770106001461226
23099.9999999443,47.4417874075539,1.00000000996195,0.754513062749269
23199.9999999429,48.084539377833,1.00000000970023,0.745576994825913
23299.9999999414,48.7549491537091,1.00000000944516,0.752707742275133
23399.99999994,49.4511510192315,1.00000000949167,0.753837322540342
23499.9999999385,50.1807190319577,1.00000000964358,0.755058003488852
23599.9999999371,50.931660164984,1.00000000912904,0.752252550211077
23699.9999999356,51.675983720324,1.00000001004523,0.758644760050759
23799.9999999342,52.414745304743,1.00000000946455,0.762146626073922
23899.9999999327,53.1470508543155,1.00000000888595,0.768545615382171
23999.9999999312,53.8715458710908,1.00000001059591,0.771966825879065
24099.9999999298,54.5803721306179,1.00000000953269,0.768330805844287
24199.9999999283,55.287768022024,1.00000000972168,0.762834482430801
24299.9999999269,56.0114139691995,1.00000000997055,0.737170334169059
24399.9999999254,56.7735189695716,1.00000000960017,0.742186121991466
24499.999999924,57.5592659330271,1.000000010139,0.749862062349517
24599.9999999225,58.3504462303663,1.00000001021411,0.757057708491215
24699.9999999211,59.1366088950282,1.00000000998836,0.761929770178804
24799.9999999196,59.9224572998837,1.00000001101501,0.753033377795363
24899.9999999181,60.7060821500976,1.00000001011242,0.760470764142992
24999.9999999167,61.4799694053549,1.00000001068537,0.763962054534824
25099.9999999152,62.2380616699278,1.0000000099071,0.771008485179003
25199.9999999138,63.0094222084608,1.00000000957252,0.757306390750444
25299.9999999123,63.798759032809,1.00000001051988,0.766057349518974
25399.9999999109,64.5931755092822,1.00000001004958,0.768882554197813
25499.9999999094,65.3900484532493,1.0000000104247,0.758574667768201
25599.999999908,66.1952498921094,1.00000000995885,0.747996947123414
25699.9999999065,67.0119639896704,1.00000001007601,0.755599315071424
25799.9999999051,67.8371918232487,1.00000001037074,0.763643956561058
25899.9999999036,68.6516064352545,1.0000000099262,0.763827220072524
25999.9999999021,69.4731674281145,1.00000001044485,0.767574593526154
26099.9999999007,70.3044594494756,1.0000000100385,0.768110409792001
26199.9999998992,71.1427181805277,1.00000001128196,0.767965448668049
26299.9999998978,71.9945813511475,1.00000001031986,0.768477474324005
26399.9999998963,72.8507365549462,1.00000001022168,0.774069963917464
26499.9999998949,73.7046448610214,1.00000000982409,0.766371748965021
26599.9999998934,74.5704382456235,1.00000001049008,0.76769760371426
26699.999999892,75.4513178963997,1.00000001014668,0.767746775393832
26799.9999998905,76.3452066890149,1.0000000105185,0.768486819719705
26899.999999889,77.2497273317409,1.00000001055307,0.768565762192618
26999.9999998876,78.1601110986677,1.00000001163754,0.770920893539725
27099.9999998861,79.080604602247,1.00000001109763,0.770335418400076
27199.9999998847,80.0145317856611,1.0000000107213,0.768192706857848
27299.9999998832,80.9611716244495,1.00000001055938,0.772752245656104
27399.9999998818,81.9119539227754,1.000000011443,0.773524613616201
27499.9999998803,82.8617094412891,1.00000001089781,0.775148623672485
27599.9999998789,83.804168269603,1.00000001052127,0.769199341181226
27699.9999998774,84.747291819186,1.00000000945662,0.766456153721119
27799.9999998759,85.6985225891139,1.0000000104268,0.770758147182647
27899.9999998745,86.6534496522719,1.00000001097225,0.772614213565956
27999.999999873,87.6092442463574,1.00000001005204,0.767190423397705
28099.9999998716,88.5801384470324,1.00000001088404,0.774252667233509
28199.9999998701,89.5593296355221,1.0000000113762,0.773709439897907
28299.9999998687,90.5508321443169,1.00000001093258,0.772828373330444
28399.9999998672,91.5417493921064,1.00000001065236,0.774205132777218
28499.9999998658,92.5335964196469,1.00000001021853,0.77230098005049
28599.9999998643,93.5376703328718,1.00000001148512,0.771055725225321
28699.9999998629,94.5468247658919,1.00000001175901,0.776560304223786
28799.9999998614,95.5619357315174,1.00000001188071,0.773302198972072
28899.9999998599,96.5829698289041,1.00000001061028,0.773587202585001
28999.9999998585,97.6103541326066,1.00000001079278,0.774293999606888
29099.999999857,98.6307997081691,1.00000001190036,0.768766622252595
