Time,AGPnorm,Energy,Entropy
0,0,1,-1.34543913160226e-17
99.9999999999986,7.43006548516115e-06,0.999999999998266,0.0003825921960929
199.999999999993,0.000677072683157195,0.999999999999965,0.000610359338831196
300,0.00170342946319884,0.999999999999114,0.00106447948426642
400.000000000022,0.00239294707701843,0.999999999998725,0.00185795515407521
500.000000000045,0.00285418830276607,1.00000000000014,0.00248497333884749
600.000000000068,0.00406991705248277,0.999999999998359,0.00350473204506386
700.000000000091,0.00506349707381473,0.999999999999684,0.00451718561691126
800.000000000113,0.0065646280333996,0.99999999999947,0.00554363408428657
900.000000000136,0.00818964112428127,0.999999999998472,0.00689019994313097
1000.00000000016,0.00944414811581872,1.00000000000015,0.00810440085964587
1100.0000000001,0.0114720480499994,0.999999999998583,0.00953706958756934
1200,0.0135938035331126,0.999999999999367,0.0110582422115002
1299.99999999991,0.0156976220021808,0.999999999999758,0.0125166411734102
1399.99999999982,0.0179374728549077,0.999999999998317,0.0142620979758025
1499.99999999973,0.0200795473104442,1.00000000000005,0.0159248246022587
1599.99999999964,0.0229822762641152,0.999999999998911,0.017690459196216
1699.99999999955,0.0259677525481069,0.999999999999036,0.0196162761581803
1799.99999999946,0.0286263489848499,0.999999999999934,0.0214495630874451
1899.99999999937,0.0315375048533114,0.999999999998304,0.0235126375315781
1999.99999999928,0.0346018522513286,0.99999999999988,0.0255600430059821
2099.99999999919,0.0382085647609806,0.999999999999268,0.0276343857730383
2199.99999999909,0.0417770125188155,0.999999999998712,0.0299083637693875
2299.999999999,0.0449853357827805,0.999999999999983,0.0320874973826442
2399.99999999891,0.0486678642932737,0.999999999998456,0.0344313498656604
2499.99999999882,0.0526227152435719,0.999999999999662,0.0368367872711389
2599.99999999873,0.0566935541490428,0.99999999999957,0.0392194805761354
2699.99999999864,0.0606334213085397,0.999999999998443,0.0418085214124655
2799.99999999855,0.0644217986461679,0.999999999999954,0.0443253926916069
2899.99999999846,0.06887889457878,0.999999999998749,0.0469534032287286
2999.99999999837,0.0735509244225677,0.999999999999387,0.0497109114484632
3099.99999999828,0.0779150130499074,0.999999999999746,0.0524139451908743
3199.99999999819,0.082174915456383,0.999999999998308,0.0553044025569321
3299.99999999809,0.0865923339922807,0.999999999999894,0.058174080018244
3399.999999998,0.0916563900821439,0.999999999999115,0.0611196872326317
3499.99999999791,0.0967473353385605,0.99999999999905,0.0642372301392395
3599.99999999782,0.101325721047537,0.999999999999789,0.0672855267298017
3699.99999999773,0.105988828539224,0.999999999998357,0.0704938964690765
3799.99999999764,0.11104672450586,0.999999999999815,0.0737595180433136
3899.99999999755,0.116438133300604,0.999999999999463,0.0770694646611226
3999.99999999746,0.121647973300447,0.999999999998698,0.0805746843409884
4099.99999999738,0.126430216278832,0.999999999999755,0.0840185100893807
4199.99999999775,0.131594309979153,0.999999999998577,0.0876063923836189
4299.99999999811,0.137180818064597,0.999999999999673,0.0913392522340492
4399.99999999848,0.142654148028762,0.999999999999674,0.0950859070667188
4499.99999999884,0.147816521502518,0.99999999999843,0.0990358233970321
4599.9999999992,0.152851099109674,0.999999999999734,0.102972999063805
4699.99999999957,0.158489261115938,0.999999999998905,0.107058784491295
4799.99999999993,0.164344896982535,0.999999999999423,0.111365820358664
4900.00000000029,0.16973456818315,0.999999999999721,0.115675341897671
5000.00000000066,0.174863439921469,0.999999999998362,0.120196465218177
5100.00000000102,0.180205714678045,0.999999999999777,0.124801629417566
5200.00000000139,0.186122940488649,0.99999999999934,0.129586634970542
5300.00000000175,0.19191819440763,0.999999999999143,0.134666575572175
5400.00000000211,0.197134890425557,0.999999999999764,0.139770783496485
5500.00000000248,0.202397870519596,0.999999999998676,0.145144818075135
5600.00000000284,0.207998059806675,1.00000000000004,0.150750676509593
5700.00000000321,0.214016327287925,1.00000000000012,0.156575930754956
5800.00000000357,0.21952929358652,0.999999999999444,0.162787156592487
5900.00000000393,0.224587538771417,1.0000000000007,0.169097171164343
6000.0000000043,0.230408039682444,1.00000000000046,0.175759951781935
6100.00000000466,0.236029461259607,1.00000000000229,0.182785431569029
6200.00000000502,0.242388827023725,1.00000000000337,0.190013731981695
6300.00000000539,0.248157348985976,1.00000000000354,0.197607536394247
6400.00000000575,0.253514704241104,1.00000000000692,0.205294790614232
6500.00000000612,0.261813212609637,1.00000000000837,0.213265646509252
6600.00000000648,0.268743796415582,1.00000000001195,0.22152671224859
6700.00000000684,0.278329429773031,1.00000000001485,0.229751406156764
6800.00000000721,0.289993955625182,1.0000000000174,0.238118539314422
6900.00000000757,0.301663230724909,1.00000000002311,0.246465881160953
7000.00000000793,0.322913262042549,1.00000000002766,0.254808065209128
7100.0000000083,0.344939712765291,1.00000000003163,0.263299077307793
7200.00000000866,0.375460404234961,1.00000000003864,0.271473988665961
7300.00000000903,0.419481658910806,1.00000000004442,0.279611540159011
7400.00000000939,0.468806785921156,1.00000000005082,0.287694875462266
7500.00000000975,0.542823741199639,1.00000000005449,0.295595366033877
7600.00000001012,0.631742726876526,1.000000000062,0.3034799577003
7700.00000001048,0.742727386971575,1.00000000006959,0.311018099602042
7800.00000001084,0.892479812305545,1.0000000000751,0.318468225905205
7900.00000001121,1.06495254671277,1.00000000008227,0.325889707859597
8000.00000001157,1.28767885818554,1.0000000000884,0.333011542052854
8100.00000001194,1.55709415864967,1.0000000000962,0.340066804950658
8200.0000000123,1.87252843038412,1.00000000010203,0.346902037989123
8300.00000001266,2.26488410071521,1.00000000010934,0.353544081883368
8400.00000001303,2.71350379647824,1.00000000011527,0.360280439582934
8500.00000001339,3.24611519752656,1.00000000012785,0.366546931997441
8600.00000001376,3.8719832896602,1.00000000013196,0.372795861325182
8700.00000001412,4.57769462540938,1.00000000013605,0.378942848767976
8800.00000001448,5.40478349697109,1.00000000013732,0.384829876224857
8900.00000001485,6.3353160974552,1.00000000014915,0.390723541362645
9000.00000001521,7.38667463080209,1.00000000015051,0.396299970309741
9100.00000001557,8.58334698470444,1.0000000001587,0.401705883381458
9200.00000001594,9.90037631052373,1.00000000016128,0.407205577979869
9300.0000000163,11.3810965858059,1.00000000017555,0.412237128053633
9400.00000001667,13.0179455094988,1.0000000001802,0.417341146829517
9500.00000001703,14.810258798039,1.00000000017073,0.422287706858064
9600.00000001739,16.7951365728856,1.00000000018356,0.426896628613613
9700.00000001776,18.9426522793073,1.00000000018803,0.431734480827446
9800.00000001812,21.2875826878294,1.0000000001933,0.436084031971452
9900.00000001848,23.8364271606076,1.00000000019804,0.440423663200423
10000.0000000188,26.5694981302074,1.00000000019599,0.44475677861994
10100.0000000192,29.5296915512164,1.00000000020785,0.448647545708092
10200.0000000196,32.6913083096133,1.00000000020578,0.452827515010645
10300.0000000199,36.0714287004716,1.00000000021289,0.456527478801682
10400.0000000203,39.6900157278322,1.00000000020847,0.460251068326069
10500.0000000207,43.5142051823955,1.00000000021683,0.463961598014352
10600.000000021,47.5838463973934,1.00000000021969,0.467310891962046
10700.0000000214,51.8842971787451,1.00000000022149,0.470771781083503
10800.0000000218,56.4109477862141,1.00000000023287,0.473976863347991
10900.0000000221,61.1931151877793,1.00000000022749,0.477050489788552
11000.0000000225,66.1942531841524,1.0000000002299,0.480338618381688
11100.0000000229,71.4420024364218,1.00000000022367,0.483161664414833
11200.0000000232,76.936350948975,1.00000000023631,0.485924887776709
11300.0000000236,82.6531399594307,1.00000000023256,0.48882179392964
11400.0000000239,88.6246332774802,1.00000000023135,0.491237113245827
11500.0000000243,94.8192308049291,1.00000000024057,0.494032011762549
11600.0000000247,101.247848525099,1.00000000022873,0.496445159637203
11700.000000025,107.922662671443,1.00000000023909,0.49855071773174
11800.0000000254,114.807037478725,1.00000000023223,0.501226895650352
11900.0000000258,121.929766967383,1.00000000024156,0.50312922275487
12000.0000000261,129.270636959689,1.00000000023498,0.505267164805685
12100.0000000265,136.821278943108,1.00000000024756,0.507410247755295
12200.0000000269,144.603112297006,1.00000000024586,0.509043603764689
12300.0000000272,152.57543751871,1.0000000002423,0.511152607104189
12400.0000000276,160.757964999126,1.00000000025053,0.51290930683326
12500.0000000279,169.143717258885,1.00000000024684,0.51432589568097
12600.0000000283,177.708246171968,1.00000000024465,0.516250781815984
12700.0000000287,186.47563350366,1.00000000025414,0.517622119474692
12800.000000029,195.410852032755,1.00000000024923,0.519123014190204
12900.0000000294,204.519066998097,1.00000000025094,0.520715350601146
13000.0000000298,213.80718346397,1.00000000024563,0.521832175176985
13100.0000000301,223.240448280712,1.00000000024559,0.523192809856309
13200.0000000305,232.83916849993,1.00000000025115,0.524457269215692
13300.0000000309,242.579721860259,1.00000000024417,0.525578681164807
13400.0000000312,252.453240490518,1.00000000024555,0.526752952923251
13500.0000000316,262.473916580535,1.00000000024754,0.527594835190183
13600.0000000319,272.606495983441,1.00000000024294,0.528729852086348
13700.0000000323,282.861495416875,1.00000000024146,0.529805054260856
13800.0000000327,293.229614562183,1.00000000023804,0.530470893385661
13900.000000033,303.68989097887,1.00000000024526,0.531359630977879
14000.0000000334,314.260496410525,1.00000000024019,0.532060606728276
14100.0000000338,324.908865531568,1.00000000023941,0.532792694397744
14200.0000000341,335.636920345971,1.00000000024166,0.533679341746146
14300.0000000345,346.445625196715,1.00000000023503,0.534176724190297
14400.0000000349,357.308774404172,1.00000000023749,0.534728091066109
14500.0000000352,368.240284439175,1.0000000002314,0.535352520348539
14600.0000000356,379.218304173534,1.00000000024331,0.535783068432159
14700.0000000359,390.233919644883,1.0000000002261,0.536428491505305
14800.0000000363,401.296846012738,1.00000000023823,0.536898547798789
14900.0000000367,412.379448105982,1.00000000023564,0.537129821060376
15000.000000037,423.489780637876,1.00000000023911,0.537249665985725
15100.0000000374,434.615462593066,1.00000000022298,0.538007925380719
15200.0000000378,445.743265032541,1.00000000023496,0.538281976305926
15300.0000000381,456.884017503089,1.00000000022642,0.538427210897722
15400.0000000385,468.012047534577,1.00000000022506,0.538740975325221
15500.0000000389,479.131831025328,1.00000000022616,0.53891672362057
15600.0000000392,490.237541958032,1.00000000022287,0.538835768635298
15700.0000000396,501.310807291064,1.0000000002222,0.539309987083467
15800.0000000399,512.365160717879,1.00000000021513,0.539731305613111
15900.0000000403,523.380160870951,1.00000000022974,0.539557769145237
16000.0000000407,534.351062006024,1.00000000022095,0.53953622806722
16100.000000041,545.281420420259,1.0000000002202,0.539394598612652
16200.0000000414,556.153379753689,1.00000000022095,0.539661570528142
16300.0000000418,566.974524408604,1.00000000022288,0.539717644078747
16400.0000000418,577.731794665343,1.0000000002209,0.53998034135356
16500.0000000404,588.418129983639,1.00000000021165,0.539905181679922
16600.0000000389,599.039159328479,1.00000000021914,0.539608516521641
16700.0000000375,609.578412475755,1.00000000019888,0.539695959233473
16800.000000036,620.040344891153,1.00000000021355,0.539585282850059
16900.0000000346,630.42002720135,1.00000000020952,0.539641107901754
17000.0000000331,640.703003779912,1.00000000020364,0.539641538910003
17100.0000000317,650.90189247374,1.0000000002046,0.539709380968622
17200.0000000302,660.999348645426,1.0000000002057,0.539321383351982
17300.0000000287,670.997515158172,1.00000000020346,0.539277880787384
17400.0000000273,680.893921036005,1.0000000002038,0.538701388508313
17500.0000000258,690.677088733366,1.00000000020622,0.538817637991845
17600.0000000244,700.355571542504,1.00000000019433,0.538526137684846
17700.0000000229,709.917529577551,1.00000000020555,0.538525262699107
17800.0000000215,719.359989494959,1.00000000019922,0.538413495263553
17900.00000002,728.686630631399,1.00000000019593,0.538189377196883
18000.0000000186,737.884685047825,1.00000000019167,0.537852003768881
18100.0000000171,746.962313158974,1.000000000199,0.537506428935744
18200.0000000156,755.911516149134,1.00000000018482,0.537268692129196
18300.0000000142,764.727070124084,1.00000000019489,0.53706936243071
18400.0000000127,773.413957755908,1.00000000018814,0.536751980450595
18500.0000000113,781.962429710668,1.00000000018669,0.53679773395055
18600.0000000098,790.376960792442,1.00000000019334,0.536546328056648
18700.0000000084,798.654041156772,1.0000000001892,0.536194523043792
18800.0000000069,806.78603241957,1.00000000018561,0.535854702316578
18900.0000000055,814.780903184395,1.00000000018243,0.535412100673128
19000.000000004,822.629985170736,1.00000000018312,0.535189614834086
19100.0000000026,830.335687881705,1.00000000018004,0.534826503883415
19200.0000000011,837.897149997177,1.00000000017597,0.534736855684946
19299.9999999996,845.307628496896,1.00000000017894,0.534493265782472
19399.9999999982,852.574346277671,1.00000000018083,0.534370781687025
19499.9999999967,859.69151632051,1.00000000017886,0.533892439773283
19599.9999999953,866.657483525942,1.00000000017463,0.533605471036343
19699.9999999938,873.476341427675,1.00000000016984,0.533147256756039
19799.9999999924,880.140367257625,1.00000000017558,0.532744861763504
19899.9999999909,886.657440448582,1.00000000016904,0.53256443579609
19999.9999999895,893.022491257199,1.00000000016746,0.532218073656235
20099.999999988,899.233713238689,1.00000000017371,0.532283828453895
20199.9999999865,905.296398484496,1.00000000017017,0.531852726858263
20299.9999999851,911.203696669803,1.00000000016917,0.531651167074934
20399.9999999836,916.961969032465,1.00000000016373,0.531212180334387
20499.9999999822,922.568413722453,1.00000000016364,0.530615990124166
20599.9999999807,928.02044778731,1.00000000016723,0.530421523926829
20699.9999999793,933.324318858301,1.00000000015867,0.530053244996913
20799.9999999778,938.474987012905,1.00000000016422,0.530171117864965
20899.9999999764,943.477306995397,1.00000000016384,0.53003517833155
20999.9999999749,948.330800625276,1.00000000016245,0.529922318333119
21099.9999999734,953.032369569824,1.00000000016159,0.529638087448395
21199.999999972,957.587831582473,1.00000000015455,0.528774673810476
21299.9999999705,961.993809563227,1.00000000016013,0.528168109272281
21399.9999999691,966.251890938345,1.00000000015904,0.527456834014931
21499.9999999676,970.364109194982,1.00000000015783,0.5272058336311
21599.9999999662,974.327536110382,1.00000000015324,0.527447705666175
21699.9999999647,978.148931478083,1.00000000015525,0.527880024546875
21799.9999999633,981.827290179784,1.00000000015099,0.528751641031903
21899.9999999618,985.363990745589,1.00000000015209,0.528815989134033
21999.9999999603,988.762461448417,1.00000000015354,0.528386899495318
22099.9999999589,992.020694489741,1.00000000014711,0.527304749482667
22199.9999999574,995.141340433694,1.00000000014692,0.525380033825464
22299.999999956,998.123371370155,1.00000000014926,0.523900976137054
22399.9999999545,1000.96427147715,1.00000000014255,0.522928319838774
22499.9999999531,1003.66846226301,1.0000000001424,0.523245040626119
22599.9999999516,1006.23561954927,1.00000000013998,0.524752894427741
22699.9999999502,1008.67145146742,1.00000000014349,0.527033933608447
22799.9999999487,1010.98031684651,1.00000000014332,0.529186884020195
22899.9999999473,1013.16369627967,1.00000000014663,0.530093051670433
22999.9999999458,1015.22767318393,1.00000000014506,0.529415047769423
23099.9999999443,1017.17076239984,1.00000000014275,0.527137466531779
23199.9999999429,1018.99179543518,1.00000000014029,0.523332657980712
23299.9999999414,1020.68807150551,1.00000000013284,0.519521355892036
23399.99999994,1022.25335128488,1.00000000013307,0.516825168664599
23499.9999999385,1023.68993238112,1.00000000013077,0.516552585132841
23599.9999999371,1024.9984484621,1.00000000012979,0.519155252727013
23699.9999999356,1026.18476441306,1.00000000012832,0.523893351459949
23799.9999999342,1027.25948208537,1.00000000013341,0.529013005094326
23899.9999999327,1028.22992487683,1.00000000014372,0.532822987781211
23999.9999999312,1029.10649366441,1.00000000014276,0.534396085507729
24099.9999999298,1029.89217917863,1.00000000014214,0.532794563071242
24199.9999999283,1030.58375062328,1.00000000013507,0.527975615815239
24299.9999999269,1031.1771538984,1.00000000013033,0.520773600662941
24399.9999999254,1031.66101722113,1.00000000012656,0.513039002931219
24499.999999924,1032.02885884512,1.00000000011747,0.507623650835277
24599.9999999225,1032.27591752229,1.00000000011308,0.506308519029461
24699.9999999211,1032.40243762174,1.0000000001136,0.510402204807622
24799.9999999196,1032.42110192959,1.00000000011733,0.518142688380975
24899.9999999181,1032.34450123212,1.00000000013119,0.526987891668717
24999.9999999167,1032.19133884013,1.00000000013687,0.53492211987872
25099.9999999152,1031.97544189349,1.00000000014733,0.539609116160086
25199.9999999138,1031.70311245504,1.00000000014899,0.54014170729848
25299.9999999123,1031.37761211708,1.0000000001496,0.535699575156529
25399.9999999109,1030.99049547714,1.0000000001387,0.526759131349997
25499.9999999094,1030.52983136737,1.00000000012233,0.514574485061441
25599.999999908,1029.97973023115,1.00000000010863,0.502303607587024
25699.9999999065,1029.32470791478,1.00000000009992,0.493210222635335
25799.9999999051,1028.56055300875,1.00000000009424,0.491017118643483
25899.9999999036,1027.68946188154,1.00000000009912,0.497122544383514
25999.9999999021,1026.72587983376,1.0000000001093,0.509052885258367
26099.9999999007,1025.69000850608,1.00000000012156,0.522891496709733
26199.9999998992,1024.60185728357,1.00000000014447,0.535048582836729
26299.9999998978,1023.48221817558,1.00000000015304,0.543258558128157
26399.9999998963,1022.34232328891,1.00000000015762,0.546206970601626
26499.9999998949,1021.18678546986,1.00000000016743,0.544016361414729
26599.9999998934,1020.01143579998,1.00000000015225,0.535425618967466
26699.999999892,1018.80081088867,1.00000000013502,0.521686081345712
26799.9999998905,1017.53773622907,1.00000000011879,0.504105294888917
26899.999999889,1016.20081704042,1.00000000009703,0.48641040210827
26999.9999998876,1014.77383949977,1.00000000008495,0.474116370151461
27099.9999998861,1013.25181723963,1.00000000007864,0.471244302864564
27199.9999998847,1011.63760798403,1.00000000008506,0.479829031937848
27299.9999998832,1009.94837201338,1.00000000010153,0.496575094019254
27399.9999998818,1008.2055972836,1.00000000012228,0.515880421862415
27499.9999998803,1006.43203371482,1.00000000014747,0.532387073749873
27599.9999998789,1004.65076179514,1.00000000015913,0.544581334149613
27699.9999998774,1002.87544811089,1.00000000017712,0.550261071202679
27799.9999998759,1001.11397572306,1.00000000017776,0.551424278695123
27899.9999998745,999.365842173433,1.00000000017585,0.545483868031228
27999.999999873,997.618632524913,1.0000000001636,0.533825786004617
28099.9999998716,995.858647203368,1.00000000014261,0.516262279440865
28199.9999998701,994.061664987259,1.00000000010989,0.493615923369486
28299.9999998687,992.208035252127,1.00000000009411,0.471457989035388
28399.9999998672,990.281130483382,1.00000000007459,0.454436935599183
28499.9999998658,988.27233396514,1.0000000000694,0.44950928529732
28599.9999998643,986.188474507973,1.00000000007182,0.458254058974398
28699.9999998629,984.041687967129,1.00000000009312,0.478460056498637
