Time,AGPnorm,Energy,Entropy
0,0,1,-7.44339029779291e-17
99.9999999999986,0.00110981579842981,0.999999999997835,0.00372512207695099
199.999999999993,0.00767031303005435,0.999999999996433,0.0108522508227419
300,0.0156013934440709,0.999999999998368,0.020038239795342
400.000000000022,0.0232661654077474,1.00000000000026,0.031777772293754
500.000000000045,0.0329955485699014,0.999999999998652,0.0460333632083584
600.000000000068,0.0458022842456354,0.99999999999652,0.0622284376884449
700.000000000091,0.0588749081579615,0.999999999997472,0.0802423998176483
800.000000000113,0.0719627861671343,0.999999999999975,0.100810553647936
900.000000000136,0.085582321789423,0.999999999999654,0.124705149483628
1000.00000000016,0.100775618457503,0.999999999998187,0.152513763683059
1100.0000000001,0.115474031000027,1.0000000000049,0.185757600160178
1200,0.131565852566378,1.00000000004529,0.226331064905295
1299.99999999991,0.147899615073309,1.00000000015662,0.273050267624977
1399.99999999982,0.170389088464563,1.00000000033858,0.320444417176317
1499.99999999973,0.24633416265315,1.00000000056637,0.363766569927886
1599.99999999964,0.441370627824535,1.00000000077944,0.401639714990307
1699.99999999955,0.799157408856082,1.00000000102873,0.435045458991263
1799.99999999946,1.40489144121779,1.00000000114199,0.463935125001872
1899.99999999937,2.3732494492583,1.00000000125318,0.487740023145578
1999.99999999928,3.75316018353227,1.00000000146133,0.507111952994407
2099.99999999919,5.53605620940855,1.00000000147831,0.524383179036494
2199.99999999909,7.74648201162668,1.0000000016166,0.538370426828525
2299.999999999,10.4087468258843,1.00000000161607,0.549208921463828
2399.99999999891,13.4617550835416,1.00000000161785,0.557470424943588
2499.99999999882,16.8082175058633,1.00000000162995,0.564936987160614
2599.99999999873,20.4055994174466,1.00000000155089,0.570419921499169
2699.99999999864,24.2238580180877,1.00000000152758,0.573921599091299
2799.99999999855,28.1806833254459,1.00000000154996,0.575728647332392
2899.99999999846,32.1669925971895,1.00000000152677,0.577563215785287
2999.99999999837,36.1228254534023,1.00000000146422,0.578608898173419
3099.99999999828,40.0251902498436,1.00000000142102,0.578204544290199
3199.99999999819,43.824532799131,1.00000000140946,0.576846880941671
3299.99999999809,47.4506455778498,1.00000000134773,0.575191763495017
3399.999999998,50.8591150991605,1.00000000126892,0.574048864825527
3499.99999999791,54.0408407924101,1.00000000131283,0.5727822406361
3599.99999999782,56.9846267222126,1.00000000123196,0.572179945008215
3699.99999999773,59.663741180553,1.00000000120911,0.567583719810641
3799.99999999764,62.0625761663893,1.00000000118339,0.565811446655697
3899.99999999755,64.169914263964,1.00000000108225,0.566766786296549
3999.99999999746,65.9997834534539,1.00000000105405,0.56318578041784
4099.99999999738,67.5664631891806,1.00000000103114,0.559412458345241
4199.99999999775,68.8578219711563,1.00000000103971,0.560356624426358
4299.99999999811,69.8880741782106,1.00000000098651,0.559799248094745
4399.99999999848,70.6654456316329,1.00000000089598,0.551686604283967
4499.99999999884,71.2205413382076,1.0000000009248,0.564790314632839
4599.9999999992,71.576888242507,1.00000000084518,0.546313968233888
4699.99999999957,71.7148750060374,1.00000000084498,0.553773902857425
4799.99999999993,71.7064246388708,1.00000000098497,0.567505646328086
4900.00000000029,71.5437251722851,1.0000000008042,0.531687647909346
5000.00000000066,71.2194083797209,1.00000000088636,0.557000517210352
5100.00000000102,70.8378437992982,1.0000000010387,0.567049452724017
5200.00000000139,70.3504468892487,1.00000000066768,0.513463590346404
5300.00000000175,69.7304099244634,1.00000000087341,0.545034746639461
5400.00000000211,69.1020322910526,1.00000000113691,0.576613190379836
5500.00000000248,68.445206083948,1.00000000074956,0.51351877879465
5600.00000000284,67.6822720211517,1.00000000065036,0.494814359171223
5700.00000000321,66.8904339005551,1.00000000116549,0.574784921167699
5800.00000000357,66.1376315602854,1.0000000011531,0.556770658752425
5900.00000000393,65.3540924914539,1.00000000064103,0.477132663901714
6000.0000000043,64.5021572225621,1.00000000072617,0.485090705116039
6100.00000000466,63.6542794950595,1.00000000122774,0.569178637715872
6200.00000000502,62.8569596383388,1.00000000115987,0.553092329089788
6300.00000000539,62.0603027649462,1.00000000073012,0.475491916523472
6400.00000000575,61.2236867607547,1.00000000060434,0.449036991560394
6500.00000000612,60.3759090226016,1.00000000106888,0.521099159537948
6600.00000000648,59.5644937152088,1.00000000129327,0.563311428266706
6700.00000000684,58.790515525779,1.00000000107374,0.525621019918079
6800.00000000721,58.0191229159855,1.00000000069258,0.461200791491843
6900.00000000757,57.2348281893908,1.00000000066341,0.450754295572029
7000.00000000793,56.4515186380305,1.00000000094844,0.495307241207131
7100.0000000083,55.6901674307805,1.00000000117432,0.543713123057807
7200.00000000866,54.9592782932365,1.00000000114074,0.538701384437754
7300.00000000903,54.2475184016396,1.00000000087772,0.489935580915942
7400.00000000939,53.543417884584,1.00000000073037,0.463752645697116
7500.00000000975,52.8479963693575,1.00000000078875,0.471454450969301
7600.00000001012,52.1636733037497,1.00000000088004,0.488920765303466
7700.00000001048,51.4950606395585,1.00000000103385,0.51951380031062
7800.00000001084,50.8444927923093,1.00000000114837,0.531541978059332
7900.00000001121,50.2108813420079,1.00000000101079,0.520792115303472
8000.00000001157,49.5937239490394,1.00000000078781,0.479157796887211
8100.00000001194,48.9947704044292,1.00000000076645,0.474825301102108
8200.0000000123,48.4132422036615,1.00000000090669,0.487977411357723
8300.00000001266,47.8470373366305,1.00000000083585,0.498962308658146
8400.00000001303,47.2979894252932,1.00000000078902,0.491869436930162
8500.00000001339,46.7633904430992,1.00000000094477,0.513696842836008
8600.00000001376,46.2372760575122,1.00000000121387,0.531784606110581
8700.00000001412,45.7199803035919,1.00000000100778,0.520309484561831
8800.00000001448,45.221293631652,1.00000000075015,0.485299070725785
8900.00000001485,44.7471855670803,1.00000000071616,0.473665148715926
9000.00000001521,44.2916221497527,1.00000000099184,0.49242272171145
9100.00000001557,43.8453718315614,1.00000000105389,0.50726599493871
9200.00000001594,43.4111254398811,1.00000000086781,0.502338864452714
9300.0000000163,42.9968515556361,1.00000000076135,0.481349817938263
9400.00000001667,42.5978487120596,1.00000000092614,0.505074005110808
9500.00000001703,42.2027895560495,1.00000000109439,0.529360504380376
9600.00000001739,41.8061036563539,1.00000000113592,0.532260713487659
9700.00000001776,41.416163816324,1.00000000094606,0.512563865471331
9800.00000001812,41.0465598938989,1.00000000074583,0.489138347082346
9900.00000001848,40.7017605452775,1.00000000077601,0.483353543155847
10000.0000000188,40.3751804265411,1.0000000009573,0.493568385533222
10100.0000000192,40.0546429289235,1.00000000108213,0.503664875481092
10200.0000000196,39.7365371962352,1.00000000098552,0.508278810919039
10300.0000000199,39.4278778334087,1.00000000082455,0.510388882224472
10400.0000000203,39.1355286099059,1.00000000079288,0.499984590598248
10500.0000000207,38.8553256613405,1.00000000088719,0.509754715253217
10600.000000021,38.579868219239,1.00000000094496,0.524652337612478
10700.0000000214,38.3043246222325,1.00000000107638,0.532656505079065
10800.0000000218,38.0264471210918,1.00000000112449,0.53659032867776
10900.0000000221,37.7526173380183,1.00000000086991,0.524017574736872
11000.0000000225,37.4957777728759,1.00000000077514,0.504125342191893
11100.0000000229,37.260556182775,1.00000000080478,0.497235362945678
11200.0000000232,37.0407384817335,1.00000000089137,0.506957802749145
11300.0000000236,36.8324560746427,1.00000000089531,0.504218670684378
11400.0000000239,36.6334587080535,1.00000000091053,0.51121812884704
11500.0000000243,36.4411029108415,1.00000000089054,0.504833389855322
11600.0000000247,36.2542590108326,1.00000000094228,0.513063485607278
11700.000000025,36.066422889153,1.00000000100885,0.534430750040146
11800.0000000254,35.8784323566413,1.00000000099859,0.543903743621861
11900.0000000258,35.6922900595021,1.00000000088509,0.538806169375966
12000.0000000261,35.5117436629931,1.00000000084777,0.534323330759089
12100.0000000265,35.3388467976646,1.00000000089334,0.526642584107401
12200.0000000269,35.1694241673566,1.00000000098633,0.529976977725892
12300.0000000272,34.9978475693946,1.00000000106106,0.537949968683611
12400.0000000276,34.8226555871078,1.00000000103897,0.53871190220178
12500.0000000279,34.6535573860302,1.00000000091674,0.531318740707657
12600.0000000283,34.5032351182669,1.00000000080792,0.519377677886736
12700.0000000287,34.3722154741999,1.00000000082159,0.505394154554696
12800.000000029,34.2534069929031,1.0000000009539,0.513833437030686
12900.0000000294,34.1345851471859,1.00000000096101,0.524285589428378
13000.0000000298,34.0183027644443,1.00000000088552,0.51790147526452
13100.0000000301,33.9121110147975,1.00000000085303,0.504808161695703
13200.0000000305,33.8172362091949,1.00000000084045,0.519209958247734
13300.0000000309,33.7301679984575,1.00000000089391,0.529323978803389
13400.0000000312,33.6451724304292,1.00000000096286,0.531730459357061
13500.0000000316,33.5545943141803,1.00000000099765,0.540920418287449
13600.0000000319,33.4531742468749,1.00000000100577,0.548616515871025
13700.0000000323,33.3419525097261,1.00000000099709,0.556295305384945
13800.0000000327,33.226179961155,1.00000000097222,0.562535478020853
13900.000000033,33.109516233638,1.00000000091833,0.560274487475751
14000.0000000334,32.9964942284383,1.00000000087155,0.55503222297331
14100.0000000338,32.8892057443783,1.00000000091672,0.545021951834796
14200.0000000341,32.7861649905562,1.00000000095692,0.536230176328409
14300.0000000345,32.6852883188041,1.0000000010151,0.537112488187112
14400.0000000349,32.5844878194727,1.0000000010609,0.543756150103789
14500.0000000352,32.4828483677386,1.00000000097075,0.546404414045308
14600.0000000356,32.3888899457326,1.00000000085188,0.544748009860638
14700.0000000359,32.3103828662494,1.0000000008478,0.538087362825167
14800.0000000363,32.2469114097716,1.00000000088228,0.531015189240227
14900.0000000367,32.1922640766014,1.00000000090865,0.530955527461279
15000.000000037,32.143877379071,1.00000000097947,0.529232283112709
15100.0000000374,32.100076760787,1.00000000095843,0.525027870908656
15200.0000000378,32.0582302211758,1.0000000009219,0.519983435121907
15300.0000000381,32.0229322662692,1.0000000008258,0.520202118179096
15400.0000000385,31.9953128529046,1.00000000088048,0.529130411507293
15500.0000000389,31.9704763209523,1.00000000093244,0.54123585509981
15600.0000000392,31.9424145441851,1.0000000010314,0.554341787488468
15700.0000000396,31.9102242128122,1.00000000099028,0.560058091712316
15800.0000000399,31.876557879796,1.00000000092667,0.560651724656415
15900.0000000403,31.8457009339819,1.00000000089631,0.561093701243909
16000.0000000407,31.8177788806596,1.00000000088158,0.557541138863789
16100.000000041,31.7876919589473,1.00000000091066,0.563996165816485
16200.0000000414,31.7492867527058,1.00000000099559,0.567873191409719
16300.0000000418,31.6991167799941,1.00000000105038,0.561733058535313
16400.0000000418,31.6343368186646,1.00000000104974,0.567114762743069
16500.0000000404,31.5574658649668,1.0000000010371,0.576070484857789
16600.0000000389,31.4741234351695,1.00000000092998,0.581434832889639
16700.0000000375,31.3915243272581,1.00000000086417,0.574853465456932
16800.000000036,31.315074718881,1.00000000087265,0.564108403926357
16900.0000000346,31.2459311678589,1.00000000084258,0.557524152379369
17000.0000000331,31.1830184859382,1.00000000097417,0.555783703999791
17100.0000000317,31.123381329843,1.00000000096222,0.551416560737037
17200.0000000302,31.0655000015992,1.00000000100653,0.555992547378085
17300.0000000287,31.0079630745966,1.00000000101441,0.55885129199588
17400.0000000273,30.9502463353282,1.00000000099182,0.561251222530372
17500.0000000258,30.8983981922296,1.0000000009141,0.562562039572516
17600.0000000244,30.8585610111521,1.00000000084068,0.560326189216348
17700.0000000229,30.830461105352,1.00000000089484,0.556666142625504
17800.0000000215,30.8119703491013,1.00000000091436,0.550246544896348
17900.00000002,30.8013857159438,1.00000000095547,0.543975021742224
18000.0000000186,30.7944322995869,1.00000000099553,0.540579985903585
18100.0000000171,30.7883414939597,1.00000000098793,0.541099148483828
18200.0000000156,30.7874944169766,1.00000000088521,0.540170387733142
18300.0000000142,30.7948594691147,1.00000000083692,0.538895158087878
18400.0000000127,30.8072366234102,1.00000000095154,0.540712145018618
18500.0000000113,30.8193622908854,1.00000000098452,0.54661621316491
18600.0000000098,30.8302061413388,1.00000000096582,0.545790341535933
18700.0000000084,30.8403370131347,1.0000000009818,0.542088934059104
18800.0000000069,30.8481282797115,1.00000000096371,0.548741933699163
18900.0000000055,30.8539808456747,1.00000000097041,0.563784786018669
19000.000000004,30.8581291536527,1.00000000095314,0.568742052711944
19100.0000000026,30.8608330243454,1.00000000092077,0.571725760809068
19200.0000000011,30.864436620103,1.00000000091422,0.580822143002084
19299.9999999996,30.8683529041538,1.00000000095555,0.585752829316909
19399.9999999982,30.8685863260029,1.00000000103675,0.591376917905215
19499.9999999967,30.8615278164986,1.00000000102772,0.597095883670979
19599.9999999953,30.8497879690149,1.00000000097488,0.603638613041103
19699.9999999938,30.834890154938,1.00000000097768,0.606526174225862
19799.9999999924,30.8166083465613,1.00000000100271,0.609798456329295
19899.9999999909,30.7929469038835,1.00000000095943,0.609963901596694
19999.9999999895,30.7653370249882,1.00000000094357,0.604207485362562
20099.999999988,30.7333831576802,1.00000000097417,0.599838817236381
20199.9999999865,30.6946126636677,1.00000000100584,0.592361063211685
20299.9999999851,30.6495153385211,1.00000000101758,0.591274746797523
20399.9999999836,30.5975042318063,1.00000000106103,0.596587755244317
20499.9999999822,30.537390437025,1.00000000107075,0.605076347924655
20599.9999999807,30.4700803290279,1.00000000104688,0.605972104851604
20699.9999999793,30.3983917736023,1.00000000101107,0.605969896609696
20799.9999999778,30.3277991518415,1.00000000094542,0.607033989117592
20899.9999999764,30.2604815620036,1.00000000089517,0.60476661174053
20999.9999999749,30.1980384656305,1.00000000086824,0.606664072459358
21099.9999999734,30.1406199967841,1.00000000089752,0.606987176106274
21199.999999972,30.0869692578908,1.00000000094922,0.598318695324364
21299.9999999705,30.0378876115466,1.00000000093996,0.59779357116506
21399.9999999691,29.9918256710031,1.00000000096795,0.597720377136174
21499.9999999676,29.9489154855965,1.00000000104653,0.593287564467748
21599.9999999662,29.9079268891715,1.00000000101333,0.582271308410448
21699.9999999647,29.8680326540875,1.00000000101196,0.572298947815525
21799.9999999633,29.8308893910649,1.00000000096133,0.575639271033271
21899.9999999618,29.8002229156857,1.0000000009189,0.574885632376392
21999.9999999603,29.7786036691512,1.00000000093734,0.576658831961696
22099.9999999589,29.7667304551467,1.00000000095074,0.581844381637269
22199.9999999574,29.7643037117508,1.00000000089891,0.575586606798702
22299.999999956,29.7687478904962,1.00000000094839,0.571554107557719
22399.9999999545,29.7773976790616,1.0000000009644,0.572689536664276
22499.9999999531,29.7890253152177,1.00000000095199,0.563783963259725
22599.9999999516,29.8035196399423,1.0000000009526,0.560445331865076
22699.9999999502,29.8233283156436,1.00000000090015,0.554922959139811
22799.9999999487,29.8482549540499,1.00000000090635,0.555887258192453
22899.9999999473,29.8770625227434,1.00000000099343,0.562290114952019
22999.9999999458,29.9068295404009,1.00000000100368,0.562367044698425
23099.9999999443,29.9375889538115,1.00000000093756,0.560886037529276
23199.9999999429,29.9701001134602,1.00000000097372,0.563388282965631
23299.9999999414,30.002772380758,1.00000000100262,0.563427045092406
23399.99999994,30.0323544762939,1.00000000105548,0.566111820100021
23499.9999999385,30.0571555295602,1.00000000105932,0.57090313568752
23599.9999999371,30.0777686265477,1.00000000104032,0.577733133890199
23699.9999999356,30.096699396069,1.00000000097351,0.582115076390994
23799.9999999342,30.1150268310652,1.00000000097811,0.594883013374141
23899.9999999327,30.1325852558826,1.00000000100808,0.60011694310848
23999.9999999312,30.1481305947731,1.0000000010038,0.607849702175938
24099.9999999298,30.1614436249634,1.0000000010161,0.605735781715848
24199.9999999283,30.1719110326175,1.00000000104845,0.608082690198492
24299.9999999269,30.1806626673832,1.0000000010042,0.612002754132813
24399.9999999254,30.188515190489,1.00000000103049,0.614532211713761
24499.999999924,30.1948209492311,1.00000000101183,0.612376946607545
24599.9999999225,30.2000344809664,1.00000000099065,0.606583683718258
24699.9999999211,30.2036747927975,1.00000000103814,0.605663161731321
24799.9999999196,30.2027686870403,1.00000000107248,0.602726390130226
24899.9999999181,30.1975022156377,1.00000000105396,0.614747341551343
24999.9999999167,30.1897507559595,1.00000000107664,0.620007255049071
25099.9999999152,30.179792262383,1.00000000099849,0.615489174291768
25199.9999999138,30.1695066723166,1.0000000010081,0.615868770602919
25299.9999999123,30.1569402576146,1.00000000104687,0.621597999645896
25399.9999999109,30.1420253600719,1.0000000010098,0.622736200339875
25499.9999999094,30.1269552689751,1.00000000094766,0.611900328251431
25599.999999908,30.1119575378469,1.00000000099265,0.607725378358505
25699.9999999065,30.0951823833405,1.00000000101614,0.608033485479387
25799.9999999051,30.0750849977701,1.00000000101717,0.609637644387097
25899.9999999036,30.050080683679,1.00000000108765,0.617025801899717
25999.9999999021,30.0204625405135,1.0000000010632,0.613503662020121
26099.9999999007,29.988680624165,1.00000000101369,0.617251521671696
26199.9999998992,29.9562496039429,1.00000000098706,0.622984637167774
26299.9999998978,29.9217037168519,1.00000000101198,0.618665227609935
26399.9999998963,29.8869206555285,1.00000000096406,0.618502555367878
26499.9999998949,29.8510989980825,1.00000000103596,0.626650644644147
26599.9999998934,29.8127646115285,1.00000000099067,0.619403267502639
26699.999999892,29.7731556409402,1.00000000096682,0.607722865104603
26799.9999998905,29.7326576769877,1.00000000100863,0.609448956602796
26899.999999889,29.6895744689873,1.00000000106355,0.614032010946997
26999.9999998876,29.6428026960243,1.00000000107544,0.619321178972411
27099.9999998861,29.5922492417631,1.00000000108218,0.618457444188632
27199.9999998847,29.5390572633665,1.00000000102597,0.619157584855901
27299.9999998832,29.4826291767886,1.00000000113124,0.618620616653151
27399.9999998818,29.4227714811462,1.00000000109895,0.622832789207093
27499.9999998803,29.360327071399,1.00000000108806,0.62559024553323
27599.9999998789,29.2962077098102,1.00000000103652,0.62696970345608
27699.9999998774,29.2310679670922,1.00000000101076,0.624600136443695
27799.9999998759,29.166084173184,1.00000000099076,0.619396812706641
27899.9999998745,29.1026999320978,1.00000000097267,0.61533171711282
27999.999999873,29.0418177140115,1.00000000094831,0.603051975951919
28099.9999998716,28.984145447255,1.00000000094681,0.595868236947467
28199.9999998701,28.9305189717911,1.00000000097145,0.600418098019731
28299.9999998687,28.8808970645281,1.00000000098223,0.603545953399309
28399.9999998672,28.8351486597732,1.00000000101138,0.606402654791682
28499.9999998658,28.7925090808262,1.00000000107167,0.610034780189815
28599.9999998643,28.7520375254589,1.00000000105201,0.605874605975202
28699.9999998629,28.7146541554225,1.00000000102799,0.603927707301086
28799.9999998614,28.6792873151935,1.00000000111458,0.599484602642706
28899.9999998599,28.6462808480323,1.00000000097871,0.588222695440243
28999.9999998585,28.6159117684343,1.00000000101642,0.584916182881438
