Time,AGPnorm,Energy,Entropy
0,0,1,-3.20342650381519e-19
99.9999999999986,0.00720219057053365,0.999999999999333,0.0207201574483661
199.999999999993,0.0193411218442153,1.00000000000031,0.0602254841387917
300,0.0388946484339385,0.999999999999747,0.119561100036175
400.000000000022,0.0584853336294209,1.00000000002832,0.204172693971667
500.000000000045,0.0781563607588885,1.00000000042157,0.327352781559896
600.000000000068,0.248037262877052,1.00000000146694,0.444087133858156
700.000000000091,0.869498140110509,1.00000000231629,0.518868731407003
800.000000000113,2.28302529581784,1.00000000265488,0.558882434083147
900.000000000136,4.4893637345513,1.00000000283274,0.576710553557764
1000.00000000016,7.20920476207278,1.00000000281377,0.581824234816065
1100.0000000001,10.1514599406875,1.00000000248846,0.579586293190218
1200,12.9546599687549,1.00000000226082,0.571145252980727
1299.99999999991,15.4188385248254,1.00000000225801,0.564815621041658
1399.99999999982,17.3974663675308,1.00000000213744,0.557256000041395
1499.99999999973,18.8342797412591,1.00000000188609,0.551517956530501
1599.99999999964,19.7477007750114,1.00000000175474,0.52900069612993
1699.99999999955,20.2245946981196,1.00000000179125,0.54581390532169
1799.99999999946,20.2819423074366,1.00000000156711,0.538943755787757
1899.99999999937,20.1447565143051,1.0000000014464,0.508352529476154
1999.99999999928,19.719998390633,1.00000000174688,0.535424275671308
2099.99999999919,19.2971738049406,1.0000000016681,0.524169172732999
2199.99999999909,18.6995259567671,1.00000000120202,0.440176652871391
2299.999999999,18.1168891008312,1.00000000232916,0.584880222645333
2399.99999999891,17.5727216977291,1.00000000124946,0.422532654098535
2499.99999999882,16.9543626128339,1.00000000135733,0.444469784619008
2599.99999999873,16.3638988253514,1.00000000227341,0.567803962085236
2699.99999999864,15.8483809219227,1.00000000156431,0.499661661954458
2799.99999999855,15.3363608577468,1.00000000104994,0.367222240977489
2899.99999999846,14.8315119085113,1.00000000166096,0.49154215297301
2999.99999999837,14.342935552776,1.00000000203732,0.533702557380356
3099.99999999828,13.8933064699115,1.00000000212967,0.568459852900629
3199.99999999819,13.4864413764321,1.00000000097385,0.41587439254767
3299.99999999809,13.1446098861783,1.00000000121139,0.395260042963224
3399.999999998,12.8136219615229,1.00000000207912,0.517045103135469
3499.99999999791,12.4842897126111,1.00000000162027,0.527320019470666
3599.99999999782,12.1660015797689,1.0000000019634,0.523257166213997
3699.99999999773,11.8406138016221,1.00000000229153,0.574205252686912
3799.99999999764,11.5469583308948,1.00000000126628,0.482804707181824
3899.99999999755,11.3402302653943,1.00000000100463,0.387744417908706
3999.99999999746,11.2107132297463,1.00000000170973,0.445904108286733
4099.99999999738,11.067778183525,1.00000000189584,0.521076972283767
4199.99999999775,10.9075721611511,1.00000000195472,0.550115677668754
4299.99999999811,10.7356545969433,1.00000000165176,0.545488158964174
4399.99999999848,10.5641272685594,1.00000000157584,0.547288129136254
4499.99999999884,10.381716937123,1.00000000204675,0.533375829606742
4599.9999999992,10.1805000511165,1.00000000214879,0.57370744007205
4699.99999999957,9.9805867737758,1.00000000162321,0.555465937474655
4799.99999999993,9.83986925499987,1.00000000101865,0.441172013957512
4900.00000000029,9.81527950020309,1.00000000112262,0.403415641250855
5000.00000000066,9.86019606950059,1.00000000187017,0.452607892592459
5100.00000000102,9.8920463635483,1.00000000185145,0.515761815450902
5200.00000000139,9.88616259078262,1.00000000180044,0.552917507637052
5300.00000000175,9.86721403772255,1.00000000164333,0.556317768444652
5400.00000000211,9.83130916737756,1.00000000188465,0.577656419208768
5500.00000000248,9.77393827019164,1.00000000193385,0.563219085089356
5600.00000000284,9.69945840003466,1.00000000199308,0.562015480309664
5700.00000000321,9.61001546938265,1.00000000175281,0.580056591124097
5800.00000000357,9.52355157455414,1.00000000142148,0.572948172354002
5900.00000000393,9.43206952049661,1.00000000175032,0.58153622772349
6000.0000000043,9.32609329164725,1.00000000199896,0.587108478737465
6100.00000000466,9.20437948007759,1.00000000218623,0.586809849213562
6200.00000000502,9.07248230597278,1.00000000217267,0.588615886864697
6300.00000000539,8.94913194277945,1.0000000016179,0.542436283702269
6400.00000000575,8.88216865038753,1.000000001075,0.463894062814358
6500.00000000612,8.9230721045253,1.00000000106432,0.424842854863117
6600.00000000648,9.060212145497,1.00000000147822,0.448428577038064
6700.00000000684,9.22435359893443,1.00000000190411,0.48614795262574
6800.00000000721,9.36439313138436,1.00000000196667,0.520472741079109
6900.00000000757,9.48135708979222,1.00000000179078,0.549038099193816
7000.00000000793,9.57284727307173,1.00000000196353,0.570221414679885
7100.0000000083,9.63864879941306,1.00000000189162,0.582912145488394
7200.00000000866,9.67988119742334,1.00000000187735,0.602497846960709
7300.00000000903,9.68993631734146,1.00000000200049,0.606364254081617
7400.00000000939,9.67539483701231,1.00000000173243,0.595017101449814
7500.00000000975,9.65555165165227,1.00000000189456,0.584857358598485
7600.00000001012,9.63402820627743,1.00000000165218,0.581901127039723
7700.00000001048,9.61219130438658,1.00000000191201,0.563194765886651
7800.00000001084,9.57925516994914,1.00000000195371,0.571443545568546
7900.00000001121,9.53975196254149,1.00000000181059,0.586164686119987
8000.00000001157,9.5058903633035,1.00000000181935,0.583775130535671
8100.00000001194,9.46945491429175,1.00000000192915,0.593020689541247
8200.0000000123,9.4315283260308,1.00000000181287,0.59515308769465
8300.00000001266,9.38795698309792,1.00000000199935,0.589152097109659
8400.00000001303,9.33907430075488,1.00000000186975,0.581587538095918
8500.00000001339,9.27935326404016,1.00000000199629,0.603518444444328
8600.00000001376,9.20954633016769,1.00000000191523,0.623108627706194
8700.00000001412,9.13611823595399,1.0000000015781,0.609186652907399
8800.00000001448,9.06445511411729,1.00000000184706,0.617311654153916
8900.00000001485,8.98991059150303,1.00000000195271,0.612665655570628
9000.00000001521,8.91220921277239,1.00000000219756,0.611668402245561
9100.00000001557,8.83418262240012,1.00000000234779,0.610862764427647
9200.00000001594,8.75735516088515,1.00000000232676,0.593869792420268
9300.0000000163,8.67668921942422,1.00000000248172,0.587222424502551
9400.00000001667,8.58939667516395,1.00000000187525,0.567147163846835
9500.00000001703,8.50952507677227,1.00000000155953,0.525166262583184
9600.00000001739,8.46953613808934,1.00000000117424,0.470828345495334
9700.00000001776,8.51091182572848,1.00000000122664,0.44491745786193
9800.00000001812,8.64820506043754,1.00000000131926,0.43845537159024
9900.00000001848,8.85874671534812,1.00000000171224,0.45849476592838
10000.0000000188,9.11126220180649,1.00000000187773,0.474488422294746
10100.0000000192,9.35090157206688,1.00000000211223,0.507003346521999
10200.0000000196,9.58013783753605,1.0000000018832,0.529331853221592
10300.0000000199,9.78144833518973,1.00000000193773,0.54644310116665
10400.0000000203,9.96441449610502,1.0000000020734,0.560111651562906
10500.0000000207,10.1278590828761,1.00000000187743,0.581279867049115
10600.000000021,10.2701258508056,1.00000000200606,0.604224292814384
10700.0000000214,10.3873859434221,1.00000000209787,0.604654988650597
10800.0000000218,10.4809011133343,1.00000000192365,0.611407532416559
10900.0000000221,10.5523650793866,1.00000000225126,0.633230147513184
11000.0000000225,10.5994659060786,1.00000000193087,0.636743669751122
11100.0000000229,10.6283720184817,1.00000000202097,0.640681019416234
11200.0000000232,10.6486940245159,1.00000000197099,0.637246063988326
11300.0000000236,10.6615544964547,1.00000000194264,0.63721502688655
11400.0000000239,10.6641994900045,1.00000000185306,0.633743312932845
11500.0000000243,10.6614988656501,1.0000000019911,0.635539979121825
11600.0000000247,10.6446603954058,1.00000000204681,0.633367206752677
11700.000000025,10.6228221816706,1.00000000191289,0.616563198614527
11800.0000000254,10.5989342569716,1.00000000204754,0.632380704762686
11900.0000000258,10.5636611332785,1.00000000195065,0.63289561826965
12000.0000000261,10.5241812889804,1.00000000195533,0.642013773780708
12100.0000000265,10.4800504350482,1.00000000198909,0.645111332921781
12200.0000000269,10.4313039540459,1.00000000211455,0.649304533608476
12300.0000000272,10.3807058274915,1.00000000205194,0.647820984031064
12400.0000000276,10.3347579670839,1.0000000019833,0.631350043283713
12500.0000000279,10.2956652316621,1.00000000184545,0.615356876391393
12600.0000000283,10.2657121073385,1.00000000197273,0.61694155263926
12700.0000000287,10.2416611754032,1.00000000198605,0.614320941449637
12800.000000029,10.223764150069,1.00000000197278,0.623455843046289
12900.0000000294,10.2070121613143,1.00000000207722,0.617049679689789
13000.0000000298,10.1865955747639,1.00000000219013,0.629849123201726
13100.0000000301,10.1616784222663,1.00000000202427,0.628053376686378
13200.0000000305,10.1381214957698,1.00000000198287,0.616904598197498
13300.0000000309,10.1138018770252,1.0000000019638,0.617494531737265
13400.0000000312,10.092291180409,1.00000000191838,0.616551281177005
13500.0000000316,10.073434588794,1.000000001919,0.605833698037067
13600.0000000319,10.0538448622581,1.00000000217864,0.600665841910331
13700.0000000323,10.0276047031099,1.00000000215138,0.607648752113165
13800.0000000327,10.0017549637572,1.00000000191298,0.609664692758665
13900.000000033,9.97776668821675,1.00000000220203,0.623207239034944
14000.0000000334,9.95454586516756,1.00000000195011,0.627777407724772
14100.0000000338,9.93762368443553,1.0000000020644,0.622982422227238
14200.0000000341,9.91952309974129,1.00000000200064,0.619239616304299
14300.0000000345,9.89698328937913,1.00000000210528,0.633747187047845
14400.0000000349,9.87737146422784,1.00000000196077,0.627209230401039
14500.0000000352,9.85829311288622,1.00000000207629,0.647248693210853
14600.0000000356,9.83150863511489,1.00000000209052,0.644748516329166
14700.0000000359,9.80853473544341,1.00000000170678,0.623360152288777
14800.0000000363,9.79041567900109,1.00000000212405,0.651998011454123
14900.0000000367,9.76365950393587,1.00000000222812,0.650706707780071
15000.000000037,9.73464751673769,1.00000000206207,0.632084086294704
15100.0000000374,9.70313230874577,1.00000000235262,0.629266335898487
15200.0000000378,9.67135584319822,1.00000000199315,0.654613868120662
15300.0000000381,9.64197336915765,1.00000000200431,0.657304911622925
15400.0000000385,9.61276394926792,1.00000000180936,0.645453468296209
15500.0000000389,9.57921478890314,1.00000000207426,0.647019396624891
15600.0000000392,9.54364425854826,1.00000000201697,0.635561906549147
15700.0000000396,9.51260275776603,1.00000000201782,0.633100433800091
15800.0000000399,9.47737325954524,1.00000000206204,0.648739635750317
15900.0000000403,9.43933921408208,1.00000000207242,0.642243623249225
16000.0000000407,9.40287446015468,1.00000000189501,0.642572046563445
16100.000000041,9.36800854231807,1.00000000198236,0.643712829857942
16200.0000000414,9.33197456055062,1.00000000201948,0.65614418083019
16300.0000000418,9.29421029385221,1.00000000200719,0.660033014442676
16400.0000000418,9.25343634981097,1.00000000206109,0.664463093136102
16500.0000000404,9.21203963521424,1.00000000201784,0.628891548388423
16600.0000000389,9.17039923302621,1.00000000215586,0.646099420370392
16700.0000000375,9.12330887342175,1.00000000240625,0.656685191807687
16800.000000036,9.07475871168915,1.00000000211336,0.642992234242593
16900.0000000346,9.02849062638706,1.00000000220913,0.651636699505562
17000.0000000331,8.97924864425811,1.00000000227146,0.663258407483144
17100.0000000317,8.92818594730438,1.00000000222604,0.660246276038536
17200.0000000302,8.8768516542912,1.00000000214875,0.652615192337538
17300.0000000287,8.82605996725105,1.00000000210539,0.652262972492138
17400.0000000273,8.77572850194228,1.00000000205632,0.661017737497315
17500.0000000258,8.72629690000849,1.00000000194866,0.651572210933851
17600.0000000244,8.67833448570373,1.00000000202801,0.653339445346342
17700.0000000229,8.63336354851262,1.00000000203172,0.659332993086392
17800.0000000215,8.59256076835696,1.0000000020315,0.66472107164901
17900.00000002,8.55793237001758,1.00000000207508,0.660647815108206
18000.0000000186,8.5322037137697,1.00000000230712,0.674249383896882
18100.0000000171,8.51431477362792,1.00000000250715,0.672955359546542
18200.0000000156,8.51198977699202,1.00000000202327,0.671566245914203
18300.0000000142,8.51457656870344,1.00000000267782,0.675528602182736
18400.0000000127,8.53470608647493,1.00000000252781,0.671988037450653
18500.0000000113,8.54955242472431,1.00000000238063,0.663733905940261
18600.0000000098,8.57095688398963,1.00000000252676,0.652616021661507
18700.0000000084,8.57353651038782,1.00000000250035,0.634645109854141
18800.0000000069,8.56582806225155,1.00000000212116,0.61369856262363
18900.0000000055,8.53799649483629,1.0000000023074,0.599955456608477
19000.000000004,8.49867738135494,1.00000000173845,0.572363922918281
19100.0000000026,8.46118549034393,1.00000000170015,0.539459563090713
19200.0000000011,8.44356723749917,1.0000000014048,0.516912624679924
19299.9999999996,8.47203985561728,1.00000000146652,0.496459584224848
19399.9999999982,8.56262837267822,1.00000000159938,0.485086231589421
19499.9999999967,8.73266232825065,1.00000000157144,0.478868966477215
19599.9999999953,8.97145043441016,1.00000000161709,0.481439678930964
19699.9999999938,9.2973825670855,1.00000000180754,0.490802437371657
19799.9999999924,9.66218022696737,1.00000000204941,0.494954565393649
19899.9999999909,10.0898205435128,1.00000000207513,0.509697406729791
19999.9999999895,10.5086312302768,1.00000000218001,0.519496535619594
20099.999999988,10.9473927367208,1.00000000240295,0.525288536697889
20199.9999999865,11.3580731244386,1.00000000224929,0.537799257923154
20299.9999999851,11.7596779733061,1.00000000247608,0.540239862600135
20399.9999999836,12.1511131019732,1.00000000218474,0.544747054743831
20499.9999999822,12.5242212174683,1.00000000222432,0.550862510239872
20599.9999999807,12.8953624046021,1.00000000237049,0.569784353060529
20699.9999999793,13.2382976405554,1.00000000258843,0.567384444208311
20799.9999999778,13.5761945910314,1.00000000240751,0.58601162395306
20899.9999999764,13.9003241605147,1.00000000232388,0.591403855672924
20999.9999999749,14.2245667855462,1.00000000221271,0.59030144794197
21099.9999999734,14.5447126908663,1.0000000023405,0.602197622222686
21199.999999972,14.8479797853672,1.00000000219417,0.612461599547754
21299.9999999705,15.1389500061871,1.00000000275283,0.630618904559802
21399.9999999691,15.4030811205155,1.00000000233985,0.643333105846896
21499.9999999676,15.6675301402353,1.00000000254587,0.648692496099
21599.9999999662,15.9050584387473,1.00000000244845,0.645288284454967
21699.9999999647,16.1354524852908,1.00000000223134,0.651943470354748
21799.9999999633,16.3489569507565,1.00000000268936,0.676508543553225
21899.9999999618,16.5403839923628,1.0000000025482,0.672613017709573
21999.9999999603,16.721052474636,1.00000000228631,0.669504869487458
22099.9999999589,16.8856635282519,1.0000000024685,0.676150789270206
22199.9999999574,17.0544070327773,1.00000000225976,0.673949632374558
22299.999999956,17.2038095035053,1.00000000222898,0.662507294192909
22399.9999999545,17.3449997008748,1.00000000232748,0.670391399531851
22499.9999999531,17.4761405314689,1.00000000238984,0.681664972249499
22599.9999999516,17.6051769031833,1.00000000263918,0.673113928057111
22699.9999999502,17.7302578035157,1.00000000243446,0.68757302125256
22799.9999999487,17.8425103071627,1.0000000024548,0.689409817775325
22899.9999999473,17.9577697184961,1.00000000236882,0.679045631886175
22999.9999999458,18.0673634562993,1.00000000250797,0.681034013593221
23099.9999999443,18.1723070591026,1.00000000294006,0.652119231976541
23199.9999999429,18.260649863678,1.00000000276056,0.656459391088073
23299.9999999414,18.3399423640564,1.00000000257828,0.674567029989898
23399.99999994,18.4258885944046,1.00000000233086,0.678854952561969
23499.9999999385,18.5149156126415,1.00000000229946,0.676881897294593
23599.9999999371,18.6087972771592,1.00000000246606,0.684419092080951
23699.9999999356,18.6955192178126,1.00000000254859,0.682707914314674
23799.9999999342,18.7765729714471,1.00000000274805,0.690290173317987
23899.9999999327,18.8390087768904,1.00000000242534,0.677043294227363
23999.9999999312,18.9010852014785,1.00000000301144,0.670399216001475
24099.9999999298,18.9650402203217,1.00000000252534,0.677605768740925
24199.9999999283,19.0313069588268,1.00000000314487,0.665217730169997
24299.9999999269,19.0947242447304,1.00000000255886,0.657127552898776
24399.9999999254,19.1494067266591,1.00000000314926,0.676556761522246
24499.999999924,19.1964713330493,1.00000000251789,0.670330990195571
24599.9999999225,19.2434975402905,1.00000000248593,0.641692871953682
24699.9999999211,19.3056923993969,1.0000000023265,0.637823389123199
24799.9999999196,19.3799350696966,1.00000000279262,0.681924398413152
24899.9999999181,19.4440782895241,1.00000000271954,0.681976993919066
24999.9999999167,19.5024261740169,1.00000000311931,0.664814799475767
25099.9999999152,19.5603208901156,1.00000000241674,0.671497349508847
25199.9999999138,19.6289501767856,1.00000000249219,0.658589694616654
25299.9999999123,19.6975315617872,1.00000000257706,0.667346483727869
25399.9999999109,19.7620965487362,1.00000000246032,0.669502052879781
25499.9999999094,19.8386381698725,1.00000000208999,0.654832399238791
25599.999999908,19.9258987775043,1.00000000263323,0.675210835568584
25699.9999999065,20.0070072292446,1.00000000262579,0.689521516597414
25799.9999999051,20.0791373230604,1.00000000329665,0.678181766184884
25899.9999999036,20.1458130082228,1.00000000300364,0.667231036070569
25999.9999999021,20.2158342668347,1.00000000229518,0.656905771671216
26099.9999999007,20.2971726690864,1.00000000261213,0.680381049813321
26199.9999998992,20.3706899040912,1.00000000297728,0.693707044155619
26299.9999998978,20.4305512316755,1.00000000265702,0.679376398502304
26399.9999998963,20.4926532364118,1.00000000251262,0.657676976084456
26499.9999998949,20.5645054723096,1.00000000245415,0.657325292694132
26599.9999998934,20.6433572399168,1.00000000244214,0.657106804381561
26699.999999892,20.7218978537096,1.00000000261203,0.654338505906185
26799.9999998905,20.7890841214846,1.00000000283037,0.651873137232519
26899.999999889,20.8505375694196,1.00000000287495,0.661363630778609
26999.9999998876,20.9104758817157,1.00000000282303,0.659172982701408
27099.9999998861,20.9724551335052,1.00000000275753,0.649773663220765
27199.9999998847,21.0323423222486,1.00000000274079,0.650220564654479
27299.9999998832,21.0904362838732,1.00000000248057,0.642666488316874
27399.9999998818,21.14203228266,1.00000000345854,0.636334108173583
27499.9999998803,21.1874191157372,1.00000000259351,0.663504644917695
27599.9999998789,21.2334597687432,1.00000000265015,0.673896884448207
27699.9999998774,21.2822402565433,1.00000000279889,0.661505065100583
27799.9999998759,21.3366507999051,1.00000000250361,0.652836615616701
27899.9999998745,21.3998833216389,1.0000000026969,0.658203254283599
27999.999999873,21.4730619547052,1.00000000261504,0.666542931451269
28099.9999998716,21.562570147054,1.00000000209402,0.655378453557771
28199.9999998701,21.6695745473145,1.0000000024007,0.670950033991797
28299.9999998687,21.7864147617745,1.00000000276683,0.682224011309501
28399.9999998672,21.9044532194746,1.00000000281705,0.680508826261131
28499.9999998658,22.0245930542871,1.00000000278474,0.681496097323412
28599.9999998643,22.1437792389842,1.00000000282196,0.689181287786279
28699.9999998629,22.2585867666138,1.00000000257717,0.674327656229836
28799.9999998614,22.3716243596614,1.0000000028508,0.67611944332619
28899.9999998599,22.4843489676306,1.00000000251552,0.684693745513233
28999.9999998585,22.5932316974182,1.00000000288441,0.674136991315978
