Time,AGPnorm,Energy,Entropy
0,0,1,-1.37146697194575e-17
99.9999999999986,3.48491908968187e-05,1.00000000000104,0.00138515312777681
199.999999999993,0.00308851822386274,0.999999999998758,0.00223875738068799
300,0.00755947989319328,1.0000000000013,0.00396874292193978
400.000000000022,0.0104510626341103,0.999999999999736,0.00668689374723567
500.000000000045,0.0129552772003459,0.999999999999506,0.00909178325698018
600.000000000068,0.0184104172044308,1.0000000000014,0.0125258650156794
700.000000000091,0.0227183249003199,0.999999999998679,0.0160635747162902
800.000000000113,0.0289005476269268,1.00000000000106,0.0198573834388641
900.000000000136,0.0363876048513593,1.00000000000023,0.0242372550219036
1000.00000000016,0.0425597037510991,0.999999999998995,0.0286337866496963
1100.0000000001,0.0502314764789318,1.00000000000161,0.0334940339226447
1200,0.0586178033679571,0.999999999998842,0.0386415344519753
1299.99999999991,0.0675045280931349,1.00000000000065,0.0440362856838268
1399.99999999982,0.0773792759250234,1.00000000000075,0.0497814542586192
1499.99999999973,0.0866139869876129,0.999999999998571,0.0557760364250642
1599.99999999964,0.0962890948550307,1.00000000000165,0.0620860611817893
1699.99999999955,0.107299847470783,0.999999999999237,0.0687546558483746
1799.99999999946,0.118127179558219,1.00000000000013,0.0758189820834907
1899.99999999937,0.129198583782066,1.00000000000118,0.0831639497889203
1999.99999999928,0.140309059492923,0.999999999998344,0.0909497280035177
2099.99999999919,0.151423519400217,1.00000000000146,0.099170463798829
2199.99999999909,0.163769086370177,0.99999999999978,0.107886165846153
2299.999999999,0.175610353264926,0.99999999999958,0.117276869842512
2399.99999999891,0.186944047743971,1.00000000000153,0.127165654061984
2499.99999999882,0.198677355740113,0.999999999998616,0.137896263070784
2599.99999999873,0.210492706035504,1.00000000000165,0.149663669959661
2699.99999999864,0.22285924104982,1.00000000000223,0.162582255934699
2799.99999999855,0.234433872230557,1.00000000000478,0.177046635910153
2899.99999999846,0.246197748445359,1.00000000001585,0.192820988914517
2999.99999999837,0.256623389623114,1.00000000003068,0.209983498882951
3099.99999999828,0.269815081471744,1.00000000005876,0.228138442622336
3199.99999999819,0.285006258921932,1.000000000095,0.246664850579936
3299.99999999809,0.297945223862726,1.00000000013574,0.265263801936589
3399.999999998,0.327096844459046,1.00000000018739,0.283478747136784
3499.99999999791,0.360288671975168,1.00000000024858,0.301268401511997
3599.99999999782,0.417127481194596,1.00000000030736,0.318905624635976
3699.99999999773,0.51118145794198,1.00000000037958,0.33561890669864
3799.99999999764,0.634755239091704,1.00000000042922,0.352073349840731
3899.99999999755,0.82859697744342,1.0000000005064,0.367800198049096
3999.99999999746,1.09181714489006,1.00000000057442,0.382693684522238
4099.99999999738,1.44270419404026,1.000000000631,0.39751477155158
4199.99999999775,1.91279902750769,1.00000000070336,0.411007473082455
4299.99999999811,2.50237117195658,1.00000000070419,0.424224817072126
4399.99999999848,3.23822761207029,1.000000000755,0.436850486723162
4499.99999999884,4.14147748965074,1.00000000081919,0.448256009030879
4599.9999999992,5.21803584997392,1.00000000085768,0.459644603841297
4699.99999999957,6.48397408944212,1.00000000092732,0.469994053471627
4799.99999999993,7.96099640755754,1.0000000008918,0.47969465273414
4900.00000000029,9.63862426504595,1.00000000098608,0.489187567133617
5000.00000000066,11.5401073682261,1.000000000985,0.497566172144596
5100.00000000102,13.6746607231675,1.00000000100131,0.505676237632735
5200.00000000139,16.0150375096641,1.00000000095279,0.513538410479688
5300.00000000175,18.6022364658452,1.00000000106599,0.519879827396262
5400.00000000211,21.403206270634,1.00000000109676,0.526826238862838
5500.00000000248,24.415049209877,1.00000000107366,0.53278224184157
5600.00000000284,27.6683854949485,1.00000000110446,0.538071473112376
5700.00000000321,31.0952846211427,1.00000000109409,0.543732986150257
5800.00000000357,34.7375104922759,1.0000000011086,0.548062361526608
5900.00000000393,38.5694190785877,1.00000000111109,0.552724279580224
6000.0000000043,42.5487306287587,1.00000000111116,0.556902506486432
6100.00000000466,46.7278309678984,1.00000000110486,0.560250343390399
6200.00000000502,51.0240887659234,1.00000000106653,0.564352953026633
6300.00000000539,55.4591119081967,1.00000000106096,0.567163251708449
6400.00000000575,60.0343473895223,1.00000000107053,0.569999101970088
6500.00000000612,64.6762294955577,1.00000000107269,0.572862747896328
6600.00000000648,69.4440231955594,1.00000000109278,0.574770751981942
6700.00000000684,74.26770389054,1.00000000106552,0.577465313727193
6800.00000000721,79.1398472646136,1.0000000010678,0.579308148970316
6900.00000000757,84.0889168638428,1.00000000101602,0.580631279939254
7000.00000000793,89.0300876250376,1.00000000102091,0.582860148332488
7100.0000000083,94.0132336443234,1.00000000104039,0.583622977340042
7200.00000000866,98.9955471727587,1.00000000098822,0.58509131879482
7300.00000000903,103.945425420674,1.00000000100692,0.586328257465505
7400.00000000939,108.906891170502,1.00000000098809,0.586658712631505
7500.00000000975,113.801720611064,1.00000000099473,0.587932965704856
7600.00000001012,118.6636785095,1.00000000094516,0.588341226425959
7700.00000001048,123.476142062219,1.000000000942,0.588936432869172
7800.00000001084,128.195354940065,1.00000000091804,0.589769270444173
7900.00000001121,132.869104519753,1.00000000090527,0.589348694707429
8000.00000001157,137.435841284756,1.00000000091923,0.590363315729762
8100.00000001194,141.912401330507,1.00000000088425,0.590072741178565
8200.0000000123,146.302404179919,1.00000000086563,0.590393123973883
8300.00000001266,150.560125246988,1.00000000087564,0.590144409497003
8400.00000001303,154.72973272343,1.00000000087301,0.590273626580852
8500.00000001339,158.767819776749,1.0000000008347,0.589690366472241
8600.00000001376,162.679183053746,1.00000000089143,0.590378600896519
8700.00000001412,166.478528803254,1.00000000080293,0.588683970646912
8800.00000001448,170.124843897985,1.00000000084399,0.590037270316826
8900.00000001485,173.655163508497,1.00000000078169,0.588236561946008
9000.00000001521,177.040712204044,1.00000000078789,0.589153320275694
9100.00000001557,180.280886729512,1.00000000077963,0.588186338668757
9200.00000001594,183.393519997542,1.00000000078624,0.587747136613218
9300.0000000163,186.348783406547,1.00000000077669,0.587808113454895
9400.00000001667,189.170803294552,1.00000000075897,0.586670230867073
9500.00000001703,191.849401126133,1.00000000075294,0.587046264650328
9600.00000001739,194.373163767339,1.00000000072059,0.58592220541618
9700.00000001776,196.768857198851,1.00000000070934,0.586272157943497
9800.00000001812,199.008414915746,1.00000000071778,0.584641651715039
9900.00000001848,201.112497941411,1.00000000072286,0.585423123208737
10000.0000000188,203.079463300578,1.00000000069288,0.583950825681977
10100.0000000192,204.895945183654,1.00000000066419,0.583527558172892
10200.0000000196,206.589268052299,1.00000000066541,0.583788067213349
10300.0000000199,208.138649241901,1.00000000066052,0.582323436311658
10400.0000000203,209.55767904137,1.00000000062971,0.582550775259896
10500.0000000207,210.850955404338,1.00000000064762,0.582754187323168
10600.000000021,212.007775610591,1.00000000063397,0.582313500374667
10700.0000000214,213.04875189743,1.00000000062578,0.581202125982777
10800.0000000218,213.961204047183,1.00000000063748,0.581934104284218
10900.0000000221,214.756560031594,1.00000000062913,0.581979640448759
11000.0000000225,215.440495711945,1.00000000060865,0.581074712781125
11100.0000000229,216.004242151107,1.0000000006036,0.580206846926261
11200.0000000232,216.465545580021,1.00000000059199,0.581270112441271
11300.0000000236,216.820041232025,1.00000000061454,0.582161576529474
11400.0000000239,217.075665742348,1.00000000057878,0.57828578372921
11500.0000000243,217.232953810662,1.00000000055858,0.577057135109548
11600.0000000247,217.293071124077,1.00000000060387,0.583147996776459
11700.000000025,217.27969178359,1.00000000057286,0.579538542205069
11800.0000000254,217.176322428363,1.00000000054401,0.570445353552922
11900.0000000258,216.986171871353,1.00000000057867,0.577599770515088
12000.0000000261,216.733113429311,1.00000000062952,0.582666139169343
12100.0000000265,216.413289218683,1.00000000059239,0.573801028427333
12200.0000000269,216.023398673331,1.000000000519,0.565445870111469
12300.0000000272,215.561118156902,1.00000000057705,0.575398775740298
12400.0000000276,215.051002756487,1.00000000062406,0.581739402023973
12500.0000000279,214.501242182794,1.00000000056861,0.571578436211239
12600.0000000283,213.889486351071,1.00000000052462,0.558714402608799
12700.0000000287,213.221630514044,1.00000000055615,0.567763142203288
12800.000000029,212.518249400675,1.00000000064828,0.58302877221674
12900.0000000294,211.790078787168,1.00000000062504,0.572425963823005
13000.0000000298,211.025297317501,1.00000000051918,0.555778875578068
13100.0000000301,210.204604098967,1.00000000050796,0.552241749943476
13200.0000000305,209.355838132643,1.00000000063532,0.579977279871283
13300.0000000309,208.49794372929,1.00000000070109,0.578047592291742
13400.0000000312,207.623494874827,1.00000000058796,0.560347085707366
13500.0000000316,206.713757020659,1.00000000049504,0.541322331168451
13600.0000000319,205.76299056218,1.00000000056797,0.555632794653164
13700.0000000323,204.805747575724,1.0000000007012,0.583171856211142
13800.0000000327,203.851798245088,1.00000000071405,0.572783720363354
13900.000000033,202.886811269722,1.00000000054049,0.549130369111395
14000.0000000334,201.894632658989,1.00000000049215,0.534248814808427
14100.0000000338,200.872562223436,1.00000000058104,0.550766098299439
14200.0000000341,199.851254949625,1.00000000072736,0.582020214847757
14300.0000000345,198.841140919878,1.00000000072252,0.571967337809324
14400.0000000349,197.828581082848,1.00000000055957,0.543388125859521
14500.0000000352,196.800052116524,1.00000000051818,0.532867563788651
14600.0000000356,195.748112281071,1.00000000054916,0.53442540671161
14700.0000000359,194.693492680369,1.00000000071411,0.570310675167856
14800.0000000363,193.6518183314,1.0000000007489,0.578779058227093
14900.0000000367,192.619953161612,1.00000000065515,0.550069814627774
15000.000000037,191.585555687399,1.00000000053,0.530708394713289
15100.0000000374,190.536175879896,1.00000000054046,0.528117843010463
15200.0000000378,189.478075834789,1.00000000055992,0.538503672905204
15300.0000000381,188.424761339327,1.00000000073081,0.568477247106555
15400.0000000385,187.384705224379,1.00000000074112,0.572719958831285
15500.0000000389,186.35681643693,1.0000000006442,0.540833842308242
15600.0000000392,185.328025646662,1.00000000055642,0.52549933826374
15700.0000000396,184.29356384709,1.00000000054776,0.528756132817336
15800.0000000399,183.255374943335,1.00000000058506,0.534288759805516
15900.0000000403,182.219937849377,1.00000000068335,0.5520777814029
16000.0000000407,181.1975981352,1.00000000077297,0.567464013691496
16100.000000041,180.18735186345,1.00000000069076,0.549432753366452
16200.0000000414,179.183251508079,1.0000000006066,0.523630717933435
16300.0000000418,178.180803236828,1.00000000055171,0.524073074166616
16400.0000000418,177.177393125088,1.00000000057554,0.534542688380349
16500.0000000404,176.177876386253,1.00000000063369,0.535730300944604
16600.0000000389,175.184266056048,1.00000000064423,0.543054158922873
16700.0000000375,174.200518478341,1.00000000072077,0.556678408160185
16800.000000036,173.228679454061,1.00000000067883,0.543652743183793
16900.0000000346,172.263222528251,1.00000000060173,0.522095178272141
17000.0000000331,171.303480330342,1.00000000057465,0.523601761783228
17100.0000000317,170.348002496933,1.00000000060345,0.53592326002157
17200.0000000302,169.397809198302,1.00000000061914,0.536239834759139
17300.0000000287,168.454199413438,1.00000000062117,0.530845015107634
17400.0000000273,167.517920549415,1.00000000066926,0.537117122731947
17500.0000000258,166.59105806059,1.00000000066337,0.543176420121499
17600.0000000244,165.673322242016,1.00000000065426,0.535356531349196
17700.0000000229,164.763006639184,1.00000000062483,0.524697602099389
17800.0000000215,163.860711080512,1.00000000058522,0.527577673791146
17900.00000002,162.965079664129,1.00000000061771,0.537674226352415
18000.0000000186,162.077012566632,1.00000000059751,0.536588101299878
18100.0000000171,161.19576922175,1.00000000061598,0.528552270713445
18200.0000000156,160.321799797356,1.00000000060445,0.524150739060535
18300.0000000142,159.456329803632,1.00000000063443,0.531655312384604
18400.0000000127,158.599152083332,1.00000000063521,0.53948616891126
18500.0000000113,157.750387682772,1.00000000062972,0.536134307315771
18600.0000000098,156.910165288271,1.00000000060398,0.529220055011824
18700.0000000084,156.078338285848,1.00000000063287,0.536036770127237
18800.0000000069,155.255308303094,1.00000000060421,0.542238163964789
18900.0000000055,154.439975884355,1.0000000005748,0.53324616244542
19000.000000004,153.632745458533,1.0000000005709,0.523186570504186
19100.0000000026,152.83362906537,1.00000000059613,0.520339166355454
19200.0000000011,152.042678852027,1.00000000060334,0.527388467271142
19299.9999999996,151.260233624054,1.0000000005986,0.535072731370775
19399.9999999982,150.4859722598,1.00000000062889,0.542784181709653
19499.9999999967,149.719760278624,1.00000000063035,0.538819230625217
19599.9999999953,148.961828720538,1.00000000063871,0.537961890076648
19699.9999999938,148.212302593993,1.00000000064473,0.543044807346571
19799.9999999924,147.471851188154,1.00000000060564,0.540799518657284
19899.9999999909,146.740477807499,1.00000000051559,0.527636669262195
19999.9999999895,146.018674135248,1.00000000052618,0.517267750894108
20099.999999988,145.305852329889,1.00000000060894,0.518322029584091
20199.9999999865,144.601540437331,1.00000000061438,0.524859202673899
20299.9999999851,143.905504290289,1.00000000061388,0.528731793585829
20399.9999999836,143.216947237167,1.00000000062653,0.541012534224341
20499.9999999822,142.535451148955,1.00000000061363,0.546972756392373
20599.9999999807,141.860981863612,1.0000000006246,0.541607521041237
20699.9999999793,141.193520441148,1.00000000064534,0.544717595937623
20799.9999999778,140.533232088949,1.00000000066879,0.545980088383742
20899.9999999764,139.881741328217,1.00000000059753,0.536385247491124
20999.9999999749,139.241520781428,1.00000000050664,0.520635313861676
21099.9999999734,138.612600092281,1.00000000052935,0.509718747572771
21199.999999972,137.993818384835,1.00000000059059,0.511415637123022
21299.9999999705,137.382746803629,1.0000000006443,0.521482544542553
21399.9999999691,136.778715911796,1.00000000061277,0.523608879568384
21499.9999999676,136.181231674879,1.00000000058383,0.53024928019887
21599.9999999662,135.589905239823,1.00000000064385,0.541472847910924
21699.9999999647,135.003776707254,1.00000000064725,0.548654355525795
21799.9999999633,134.422380243532,1.00000000066167,0.547625394668057
21899.9999999618,133.845640708314,1.00000000070366,0.549195223434799
21999.9999999603,133.274660942679,1.00000000061228,0.544370891821298
22099.9999999589,132.712294904059,1.00000000057557,0.530097317138921
22199.9999999574,132.162054660777,1.00000000052414,0.517426509583856
22299.999999956,131.624842495257,1.00000000050213,0.509662002181268
22399.9999999545,131.099014135028,1.00000000056816,0.50535087125482
22499.9999999531,130.581646975789,1.00000000062418,0.514028688722853
22599.9999999516,130.069864998356,1.00000000067699,0.519696134829056
22699.9999999502,129.563692410357,1.00000000063209,0.519780505898615
22799.9999999487,129.062651494713,1.00000000061611,0.523032106924095
22899.9999999473,128.565629943596,1.00000000066772,0.537848845568275
22999.9999999458,128.070877283396,1.00000000068754,0.550982878615936
23099.9999999443,127.577992953586,1.00000000068786,0.550715946777933
23199.9999999429,127.088307099276,1.00000000066121,0.545760600837596
23299.9999999414,126.602884582544,1.00000000066862,0.543064614316054
23399.99999994,126.124002109325,1.00000000062651,0.535688566338437
23499.9999999385,125.655385342972,1.00000000056647,0.521407171183802
23599.9999999371,125.199062396535,1.00000000050768,0.51568651666959
23699.9999999356,124.755443247996,1.00000000052923,0.511470863846674
23799.9999999342,124.322440393262,1.00000000058712,0.507904949136713
23899.9999999327,123.897883935266,1.00000000061248,0.50755777458426
23999.9999999312,123.479555385983,1.00000000064808,0.515603775448707
24099.9999999298,123.065154153419,1.00000000063926,0.518793296305638
24199.9999999283,122.654316411009,1.00000000064295,0.523138861119948
24299.9999999269,122.245351643582,1.00000000065332,0.532373152530385
24399.9999999254,121.836428978446,1.00000000068272,0.539465424801552
24499.999999924,121.427654191975,1.00000000068105,0.547277938317633
24599.9999999225,121.01983988178,1.00000000063516,0.547641237451126
24699.9999999211,120.614662302514,1.00000000065247,0.542851727328981
24799.9999999196,120.213331778925,1.00000000065644,0.539813367152276
24899.9999999181,119.817210842796,1.00000000062383,0.537968318082559
24999.9999999167,119.428619265023,1.00000000060431,0.53128383637661
25099.9999999152,119.049922409093,1.00000000055528,0.52275628344349
25199.9999999138,118.682687496522,1.00000000054878,0.516651640015316
25299.9999999123,118.326744972054,1.00000000057759,0.516048020181978
25399.9999999109,117.981212850777,1.00000000055003,0.509864872508901
25499.9999999094,117.645179330544,1.00000000058229,0.508863448352919
25599.999999908,117.315402527829,1.00000000063286,0.515435627084853
25699.9999999065,116.9894970234,1.00000000064041,0.522296467097651
25799.9999999051,116.664763297188,1.00000000064854,0.529746652833297
25899.9999999036,116.340090257038,1.00000000065039,0.532732394947283
25999.9999999021,116.015681235821,1.00000000064649,0.534398170362966
26099.9999999007,115.690364148709,1.00000000069007,0.539851243725931
26199.9999998992,115.364155534538,1.00000000065064,0.542965776244661
26299.9999998978,115.03892423747,1.00000000063722,0.545449701375562
26399.9999998963,114.715755020845,1.00000000063236,0.543601192634336
26499.9999998949,114.396211914708,1.00000000062239,0.54085104431022
26599.9999998934,114.081072161852,1.000000000601,0.53906238312061
26699.999999892,113.770750581024,1.00000000063434,0.539709392806872
26799.9999998905,113.466188072268,1.00000000061603,0.537488614951848
26899.999999889,113.169430907117,1.0000000005712,0.528587774674432
26999.9999998876,112.88384703928,1.0000000005481,0.517822890167516
27099.9999998861,112.610233463391,1.00000000052115,0.515429089199588
27199.9999998847,112.347863732802,1.0000000005524,0.51483711909475
27299.9999998832,112.093905398842,1.00000000061148,0.518564202785315
27399.9999998818,111.845790041869,1.00000000060121,0.521492197212179
27499.9999998803,111.602189264743,1.00000000061599,0.526487919154565
27599.9999998789,111.360250986737,1.00000000062958,0.5292714800511
27699.9999998774,111.118609461629,1.00000000064605,0.536383425676281
27799.9999998759,110.875763510421,1.00000000065422,0.542222647361143
27899.9999998745,110.63143769663,1.00000000064661,0.537424678424005
27999.999999873,110.385869382173,1.00000000066484,0.540246597915667
28099.9999998716,110.13844132636,1.00000000064353,0.543609445349536
28199.9999998701,109.890399078025,1.00000000067816,0.543597503002657
28299.9999998687,109.644147962046,1.00000000061908,0.544101573791835
28399.9999998672,109.400453578572,1.00000000061134,0.546004735751482
28499.9999998658,109.159820170117,1.00000000062877,0.546072066948391
28599.9999998643,108.920939534406,1.00000000067034,0.545969904207114
28699.9999998629,108.684017615608,1.00000000065798,0.543022643359511
28799.9999998614,108.450169050599,1.00000000066301,0.54107231011023
28899.9999998599,108.221043275944,1.00000000061308,0.536295992833307
