Time,AGPnorm,Energy,Entropy
0,0,1,5.89964381119247e-18
99.9999999999986,0.0101092800105107,1.00000000000016,0.027342231322419
199.999999999993,0.0263537410726843,1.00000000000132,0.0812478094496154
300,0.0515360790994019,1.00000000000497,0.165464195350429
400.000000000022,0.0785159982990611,1.0000000004055,0.301049171944118
500.000000000045,0.19159592794303,1.00000000194746,0.445670795562409
600.000000000068,0.805590728733776,1.00000000329038,0.533773555268012
700.000000000091,2.2417625331282,1.00000000356625,0.575147825208863
800.000000000113,4.30630247771583,1.00000000431864,0.591768843254151
900.000000000136,6.76045050993327,1.00000000365798,0.591145949317583
1000.00000000016,9.09722877145888,1.00000000328797,0.58643713935953
1100.0000000001,11.147586080826,1.0000000033349,0.576662464681798
1200,12.6855360795771,1.00000000265352,0.56668291101095
1299.99999999991,13.7080608037513,1.00000000241339,0.564717836192687
1399.99999999982,14.2380974806576,1.00000000256897,0.569661980579
1499.99999999973,14.3542605467562,1.00000000205312,0.539636487599554
1599.99999999964,14.2389029972335,1.00000000188676,0.508388877188312
1699.99999999955,13.9238849782241,1.00000000304252,0.583722604647275
1799.99999999946,13.4934011001699,1.00000000140126,0.45127621928422
1899.99999999937,13.0405043739044,1.00000000289379,0.572042716031735
1999.99999999928,12.5512042141957,1.00000000133094,0.416645078422688
2099.99999999919,12.0509385872164,1.00000000329106,0.569921205576876
2199.99999999909,11.6014531444581,1.00000000165917,0.433987665901843
2299.999999999,11.1384208960156,1.00000000218284,0.474890720371504
2399.99999999891,10.6951829516401,1.00000000289643,0.555187389618045
2499.99999999882,10.3008058916208,1.00000000170487,0.453248731313471
2599.99999999873,9.94168640104871,1.000000002058,0.451279692873891
2699.99999999864,9.58770182985225,1.00000000225193,0.515239049086129
2799.99999999855,9.2514912604189,1.00000000289555,0.547087068012774
2899.99999999846,8.94360399958372,1.000000001974,0.489982109090991
2999.99999999837,8.70940617148139,1.00000000160747,0.418052203500574
3099.99999999828,8.47949941296154,1.0000000027479,0.5219916307432
3199.99999999819,8.2541685232253,1.00000000212089,0.519403001991088
3299.99999999809,8.03348370135013,1.00000000256555,0.547083864315118
3399.999999998,7.80861800309837,1.00000000294797,0.557248994495265
3499.99999999791,7.61793821187073,1.00000000158786,0.473653655905573
3599.99999999782,7.51462950441728,1.0000000018579,0.449677905955671
3699.99999999773,7.42536057690185,1.0000000028614,0.518345246024378
3799.99999999764,7.31914553014825,1.00000000215414,0.539847837502092
3899.99999999755,7.21469436934102,1.00000000229747,0.5568483313122
3999.99999999746,7.09101494824058,1.00000000262107,0.58862167300548
4099.99999999738,6.9661243809092,1.00000000224285,0.568437683807863
4199.99999999775,6.8319827349727,1.00000000282181,0.573924147605064
4299.99999999811,6.69421948171715,1.00000000261827,0.56837880996523
4399.99999999848,6.60910476055444,1.00000000159709,0.471604017704509
4499.99999999884,6.61666997044473,1.0000000018022,0.471382981251804
4599.9999999992,6.63804017516804,1.0000000025818,0.521830480865946
4699.99999999957,6.64246474695105,1.00000000230284,0.547356025939946
4799.99999999993,6.62755175345706,1.00000000242654,0.573809291327549
4900.00000000029,6.59341176526955,1.00000000254937,0.589918099772397
5000.00000000066,6.5631042131731,1.00000000214815,0.590394474669947
5100.00000000102,6.52365401539021,1.00000000247737,0.594620320114974
5200.00000000139,6.46482305493918,1.00000000242213,0.586762209438407
5300.00000000175,6.39462905552388,1.00000000241256,0.601078538062636
5400.00000000211,6.32272968551641,1.0000000023498,0.607348407882213
5500.00000000248,6.24406017191002,1.00000000246518,0.607998805109629
5600.00000000284,6.15994649938364,1.00000000281205,0.608750305766618
5700.00000000321,6.07112748342576,1.00000000292444,0.590256704756946
5800.00000000357,5.99715293374712,1.00000000200715,0.541807954900565
5900.00000000393,5.99376495540885,1.00000000161722,0.482300974684524
6000.0000000043,6.07455492646047,1.00000000202973,0.489400545459025
6100.00000000466,6.17863563938886,1.00000000252822,0.528590681674052
6200.00000000502,6.26277219376909,1.00000000246178,0.555893955936233
6300.00000000539,6.33015745498542,1.00000000256289,0.573309072006315
6400.00000000575,6.38058236475857,1.00000000244293,0.593849930016014
6500.00000000612,6.40981072254971,1.00000000272904,0.617742420635304
6600.00000000648,6.42594714862061,1.00000000227771,0.618371176306955
6700.00000000684,6.430889671966,1.00000000265873,0.627811612551674
6800.00000000721,6.416909782293,1.00000000297087,0.630731328578665
6900.00000000757,6.39309326675138,1.00000000224988,0.623209221960651
7000.00000000793,6.37816790494452,1.00000000234989,0.616012304768594
7100.0000000083,6.37020664617641,1.00000000236857,0.607852671166584
7200.00000000866,6.34615412386956,1.00000000272385,0.6126822251751
7300.00000000903,6.31858255073262,1.00000000247637,0.622565435842619
7400.00000000939,6.29344296680424,1.00000000263179,0.627635461421122
7500.00000000975,6.26281082950049,1.00000000250418,0.637434762637959
7600.00000001012,6.2302491123191,1.00000000258936,0.631797097275019
7700.00000001048,6.19638139449922,1.00000000244483,0.611663342863375
7800.00000001084,6.15905601936694,1.00000000270911,0.630455146114256
7900.00000001121,6.10816354466738,1.00000000272088,0.6439193317392
8000.00000001157,6.05134080876907,1.00000000246948,0.646050423828834
8100.00000001194,5.99306786475415,1.00000000239468,0.647353612087615
8200.0000000123,5.93402473737114,1.00000000269231,0.650795357360704
8300.00000001266,5.87603054956758,1.00000000289394,0.65331127821716
8400.00000001303,5.8213432040981,1.00000000296766,0.67006783279086
8500.00000001339,5.76627948961569,1.00000000290043,0.646743393935762
8600.00000001376,5.70548026932295,1.00000000275796,0.612994414627001
8700.00000001412,5.65321179793561,1.00000000232761,0.568816323332257
8800.00000001448,5.64363314808253,1.00000000168563,0.521721639316394
8900.00000001485,5.70568829424196,1.00000000179542,0.50321148762416
9000.00000001521,5.83597034164904,1.00000000213272,0.510548089533775
9100.00000001557,5.99692052518952,1.00000000253161,0.531374035285665
9200.00000001594,6.15044520728703,1.00000000289679,0.553299027022897
9300.0000000163,6.29152374602621,1.00000000294526,0.557869717768402
9400.00000001667,6.42225778566466,1.00000000248895,0.574406555910247
9500.00000001703,6.53477829156128,1.000000002879,0.590019420417059
9600.00000001739,6.63104841544759,1.00000000278774,0.594970700970275
9700.00000001776,6.71360212416612,1.00000000296475,0.625044201083229
9800.00000001812,6.78090085347615,1.00000000282385,0.63449594230211
9900.00000001848,6.83732600063388,1.00000000285127,0.619377574025753
10000.0000000188,6.8831126819568,1.00000000278349,0.637684778498004
10100.0000000192,6.91445870232506,1.0000000032644,0.65737471358394
10200.0000000196,6.93591315110172,1.00000000259455,0.654757743371612
10300.0000000199,6.95346220331359,1.00000000256832,0.646204102219661
10400.0000000203,6.96978320383942,1.00000000271909,0.646280810806803
10500.0000000207,6.97602518249535,1.00000000296616,0.658909980080201
10600.000000021,6.97912243207591,1.00000000270373,0.660057928710835
10700.0000000214,6.97922626786458,1.00000000296422,0.659631174214166
10800.0000000218,6.9696352009898,1.00000000286897,0.663140627925937
10900.0000000221,6.95766251247956,1.00000000302009,0.662837046543512
11000.0000000225,6.94075241578794,1.00000000251357,0.649902711924476
11100.0000000229,6.92336287791352,1.00000000301736,0.671784929297973
11200.0000000232,6.90047187148759,1.00000000293618,0.659647590551345
11300.0000000236,6.87425920031059,1.00000000277596,0.667360154908908
11400.0000000239,6.85000588370412,1.00000000290193,0.656729431999779
11500.0000000243,6.8309414580965,1.00000000259389,0.640509465844902
11600.0000000247,6.82319108763955,1.00000000273771,0.623850153605567
11700.000000025,6.82851121180446,1.00000000263214,0.613834821631006
11800.0000000254,6.8431867139384,1.00000000307996,0.62072351290231
11900.0000000258,6.848879393606,1.00000000312636,0.622703170040641
12000.0000000261,6.85148441932469,1.00000000326585,0.628721993228636
12100.0000000265,6.85068576590628,1.00000000288342,0.6361418518876
12200.0000000269,6.85424347725445,1.00000000292382,0.642490109095741
12300.0000000272,6.85233989841531,1.00000000320808,0.630202043605308
12400.0000000276,6.85147990070073,1.00000000281789,0.647125565024474
12500.0000000279,6.85472294619121,1.00000000284455,0.656159597142964
12600.0000000283,6.85632982505182,1.00000000321576,0.663352080297104
12700.0000000287,6.85052110704405,1.0000000031843,0.659443035836434
12800.000000029,6.84804402826691,1.00000000320466,0.65437588277107
12900.0000000294,6.8491871168249,1.00000000312811,0.660136570468024
13000.0000000298,6.85349144636017,1.00000000294266,0.650465159935315
13100.0000000301,6.862729339591,1.00000000296269,0.641639278320787
13200.0000000305,6.86710187838542,1.00000000315597,0.663091437936298
13300.0000000309,6.86786329612413,1.00000000308923,0.662243936615606
13400.0000000312,6.87038523057997,1.00000000324267,0.667211293900512
13500.0000000316,6.87598774782193,1.00000000292871,0.664877620694794
13600.0000000319,6.8819217622845,1.00000000319683,0.656247766552534
13700.0000000323,6.88696909779228,1.00000000339316,0.678410212848208
13800.0000000327,6.88369034539512,1.00000000332509,0.675755470277
13900.000000033,6.88552359032065,1.00000000312351,0.669943176666936
14000.0000000334,6.88604963394993,1.00000000325206,0.678481301470616
14100.0000000338,6.88720505468751,1.00000000306069,0.678060070582271
14200.0000000341,6.88538352148904,1.00000000334232,0.677800327397281
14300.0000000345,6.88653110217865,1.00000000350824,0.668324632115737
14400.0000000349,6.87874855949711,1.00000000345257,0.659690937616302
14500.0000000352,6.86969997797209,1.00000000305823,0.670364656607677
14600.0000000356,6.86303441800077,1.00000000327598,0.668065279646647
14700.0000000359,6.85784491178262,1.00000000299517,0.666441689128923
14800.0000000363,6.85634424615981,1.0000000029494,0.66383349718697
14900.0000000367,6.84713917007363,1.00000000321152,0.683516252270938
15000.000000037,6.83369170156089,1.00000000315745,0.671958034556087
15100.0000000374,6.8193058581368,1.00000000310244,0.679770970514888
15200.0000000378,6.80431266892613,1.00000000332225,0.688424284831575
15300.0000000381,6.79106198487533,1.00000000289728,0.676842611481424
15400.0000000385,6.77282822973222,1.00000000356768,0.673063695497385
15500.0000000389,6.7507180050677,1.00000000294668,0.668737348717852
15600.0000000392,6.72754043756777,1.00000000336019,0.682506940718998
15700.0000000396,6.7015503762048,1.00000000330448,0.682638917345434
15800.0000000399,6.6707544406784,1.0000000033294,0.670726277070019
15900.0000000403,6.63582411412013,1.00000000320518,0.680212051328384
16000.0000000407,6.60013333969502,1.00000000309547,0.680551968207473
16100.000000041,6.56312192577041,1.00000000324615,0.679006505339499
16200.0000000414,6.52652013344293,1.0000000031162,0.68016158013892
16300.0000000418,6.49100769040453,1.00000000316969,0.675142213486366
16400.0000000418,6.4574289707457,1.0000000032015,0.674187354536812
16500.0000000404,6.42800365041485,1.00000000388868,0.67213505438682
16600.0000000389,6.40234053281821,1.00000000348652,0.668115404587338
16700.0000000375,6.38139971061339,1.00000000385545,0.674903449140288
16800.000000036,6.36496362840774,1.00000000350425,0.698013119037172
16900.0000000346,6.35108718699091,1.00000000378487,0.700048353643808
17000.0000000331,6.33667063476622,1.00000000350756,0.689904788755796
17100.0000000317,6.31703488811771,1.00000000346379,0.675834396108104
17200.0000000302,6.29054359964643,1.00000000361671,0.661884846051253
17300.0000000287,6.25922692307017,1.00000000311029,0.637061075942147
17400.0000000273,6.23186018120115,1.0000000029899,0.617424045811245
17500.0000000258,6.22616965390273,1.0000000030395,0.598086045073778
17600.0000000244,6.25902026812829,1.00000000294029,0.573764153337993
17700.0000000229,6.35204323137896,1.00000000246728,0.560543651462359
17800.0000000215,6.51083234922528,1.00000000266652,0.552720280770323
17900.00000002,6.75186275446833,1.00000000270621,0.553894800668654
18000.0000000186,7.03751726368827,1.00000000305837,0.550749448702131
18100.0000000171,7.38365196212443,1.00000000332938,0.553399103410601
18200.0000000156,7.72118394383781,1.00000000347233,0.555488282326536
18300.0000000142,8.08602104744711,1.00000000345945,0.56279040810122
18400.0000000127,8.42676567087216,1.00000000367554,0.576300076954733
18500.0000000113,8.77239086504747,1.00000000345732,0.573548709318896
18600.0000000098,9.09946023638392,1.00000000352651,0.579824155065092
18700.0000000084,9.42007226493189,1.00000000360238,0.571221495029253
18800.0000000069,9.73571532329577,1.0000000034078,0.590567369205642
18900.0000000055,10.035622894264,1.00000000332108,0.593733650584571
19000.000000004,10.3425928820003,1.0000000038277,0.610662807604996
19100.0000000026,10.6294432791864,1.00000000335605,0.619327060276181
19200.0000000011,10.9121323089709,1.0000000036637,0.644656171424945
19299.9999999996,11.1892313106144,1.00000000350581,0.649909060669908
19399.9999999982,11.4512258516046,1.00000000392043,0.653456396232493
19499.9999999967,11.7082425086472,1.00000000351636,0.661134019657624
19599.9999999953,11.9498587700443,1.00000000374357,0.65316191782727
19699.9999999938,12.1893169232603,1.000000003784,0.657422875835282
19799.9999999924,12.4034026636873,1.00000000334491,0.669744871177426
19899.9999999909,12.6111688500983,1.00000000407122,0.654629496121985
19999.9999999895,12.8027789307067,1.0000000035362,0.662279334922323
20099.999999988,12.991833620987,1.00000000422491,0.681978271758391
20199.9999999865,13.1763109050938,1.00000000352401,0.677230716595745
20299.9999999851,13.3422251848546,1.00000000371473,0.677575044852975
20399.9999999836,13.4985542342167,1.00000000412989,0.683717288731306
20499.9999999822,13.6402607530564,1.00000000361462,0.672706820266937
20599.9999999807,13.7807266590828,1.00000000365648,0.694008575089376
20699.9999999793,13.9168435629905,1.00000000358937,0.686582556651748
20799.9999999778,14.0486883023704,1.00000000377013,0.696303839352377
20899.9999999764,14.1714585746985,1.00000000392783,0.690431701925001
20999.9999999749,14.2764737826915,1.0000000040429,0.691047441090193
21099.9999999734,14.3811309860367,1.00000000346485,0.687748340923122
21199.999999972,14.4830798881857,1.00000000395993,0.707435625995559
21299.9999999705,14.5946736544002,1.00000000392259,0.699414835138001
21399.9999999691,14.7119546298344,1.00000000396973,0.697654165046113
21499.9999999676,14.8249939406312,1.00000000397361,0.69756335525031
21599.9999999662,14.932937097641,1.00000000346965,0.705753720524046
21699.9999999647,15.0329507858186,1.00000000374,0.690626846883085
21799.9999999633,15.1301003595408,1.00000000393564,0.686138129268052
21899.9999999618,15.2313469759719,1.00000000371941,0.685736373427955
21999.9999999603,15.3310096540353,1.00000000369455,0.689953585366345
22099.9999999589,15.4304474853116,1.00000000371957,0.692873432027958
22199.9999999574,15.5254024693057,1.0000000041906,0.690110992625364
22299.999999956,15.6191797554763,1.00000000380728,0.683376575247152
22399.9999999545,15.7186436708159,1.00000000360498,0.689860146706308
22499.9999999531,15.8243329059917,1.00000000410003,0.692010262358636
22599.9999999516,15.925763067995,1.00000000366871,0.704041235092251
22699.9999999502,16.0227970539132,1.00000000354473,0.69887119591706
22799.9999999487,16.1200946458365,1.00000000367866,0.679164529135617
22899.9999999473,16.2219834776952,1.00000000401363,0.685733754607758
22999.9999999458,16.3289170486275,1.00000000374649,0.700501136026038
23099.9999999443,16.4404458677775,1.00000000384336,0.698563188473927
23199.9999999429,16.5569549360709,1.00000000372205,0.682300208167076
23299.9999999414,16.6809505939066,1.00000000433893,0.684628154596403
23399.99999994,16.8065662016107,1.00000000392499,0.692263303224337
23499.9999999385,16.9298733024153,1.00000000377963,0.687892733953949
23599.9999999371,17.0489418738647,1.00000000452545,0.701643496431304
23699.9999999356,17.1623940838395,1.00000000372874,0.672822270168746
23799.9999999342,17.2693526732416,1.00000000462113,0.687663285079993
23899.9999999327,17.3697828197388,1.0000000046906,0.682080971899661
23999.9999999312,17.4787196843363,1.00000000367108,0.664934471488405
24099.9999999298,17.6047724675995,1.00000000377018,0.689389736239573
24199.9999999283,17.7312890446638,1.00000000409017,0.689557205603716
24299.9999999269,17.8622184734976,1.00000000428132,0.695586735073439
24399.9999999254,17.9936860695853,1.00000000398514,0.705898448751415
24499.999999924,18.1224892573836,1.00000000413935,0.685837762637809
24599.9999999225,18.2500277447168,1.00000000496369,0.709497550735102
24699.9999999211,18.3693469894418,1.00000000443749,0.719780752220601
24799.9999999196,18.4883224565983,1.00000000395311,0.68256112210167
24899.9999999181,18.6174361026283,1.00000000427117,0.683455935702377
24999.9999999167,18.7455567077437,1.00000000384457,0.692051824957405
25099.9999999152,18.8720657203347,1.00000000447063,0.680195399637744
25199.9999999138,18.9922439138606,1.00000000424814,0.698227535554858
25299.9999999123,19.0985338734853,1.0000000047385,0.69775688167395
25399.9999999109,19.2007112066679,1.00000000381692,0.70143620599321
25499.9999999094,19.3135062528441,1.00000000441307,0.69264260304698
25599.999999908,19.4386188825034,1.00000000390209,0.703884795692644
25699.9999999065,19.5736105477,1.00000000454975,0.688925926536672
25799.9999999051,19.7269659100479,1.00000000367225,0.675957037360548
25899.9999999036,19.8978357108856,1.00000000400741,0.688698441872226
25999.9999999021,20.0765574864111,1.00000000405206,0.691965485521222
26099.9999999007,20.2605580470724,1.00000000453684,0.68550873889887
26199.9999998992,20.4490449403964,1.00000000427076,0.677548777855816
26299.9999998978,20.6353641815946,1.0000000047284,0.690306224030075
26399.9999998963,20.8140450418904,1.00000000470202,0.687942218349722
26499.9999998949,20.9913987062054,1.00000000454935,0.698170052335836
26599.9999998934,21.1652587617966,1.0000000045423,0.691469550532655
26699.999999892,21.3306476534581,1.00000000437577,0.691872396583043
26799.9999998905,21.497689271611,1.00000000391322,0.699874466611122
26899.999999889,21.6639079639347,1.0000000046905,0.706798098892509
26999.9999998876,21.8360160935865,1.00000000434995,0.690452382433326
27099.9999998861,22.0167953045484,1.0000000045062,0.68468701169614
27199.9999998847,22.2045227754536,1.00000000453337,0.683590184124799
27299.9999998832,22.4026738640792,1.00000000453262,0.688209267599128
27399.9999998818,22.6122492327771,1.00000000405514,0.69020318577074
27499.9999998803,22.8231039444067,1.00000000451856,0.698024057031885
27599.9999998789,23.0280967260526,1.00000000401919,0.701240235410208
27699.9999998774,23.2256525161604,1.0000000044705,0.706858699606046
27799.9999998759,23.423599626771,1.00000000443792,0.696378521529898
27899.9999998745,23.6249708531847,1.00000000459842,0.688749047439421
27999.999999873,23.8227047421583,1.00000000459337,0.687523724001555
28099.9999998716,24.011442564852,1.00000000432555,0.697655369479998
28199.9999998701,24.2070429775552,1.0000000045022,0.69410591047968
28299.9999998687,24.4128548691597,1.000000004674,0.695216197250374
28399.9999998672,24.628407157838,1.00000000497793,0.702095310870729
28499.9999998658,24.8485621233502,1.00000000448144,0.706705379621374
28599.9999998643,25.0657932441676,1.00000000470181,0.709901273551771
28699.9999998629,25.2769040875875,1.00000000448844,0.696565385737652
28799.9999998614,25.4897815023713,1.00000000451434,0.699221026651178
28899.9999998599,25.7049706594182,1.00000000469809,0.701464682448463
28999.9999998585,25.9149999990133,1.00000000491584,0.699075952612584
29099.999999857,26.1274472582106,1.00000000463104,0.69774376407686
