Time,AGPnorm,Energy,Entropy
0,0,1,-1.20729136362524e-17
99.9999999999986,3.83412303252184e-05,0.999999999998745,0.00151211944206714
199.999999999993,0.00344361297384471,0.999999999998734,0.0024665804151338
300,0.00848289130333769,1.0000000000001,0.00427959664417116
400.000000000022,0.0117639299739002,0.999999999998057,0.00729531164182293
500.000000000045,0.0142429204069797,0.999999999999697,0.00986709384257494
600.000000000068,0.0203560526299234,0.999999999999223,0.0135599311892671
700.000000000091,0.0252963800593736,0.999999999998307,0.0174509059018498
800.000000000113,0.0320291017613748,1.0000000000003,0.0214318129353972
900.000000000136,0.0399058850813104,0.999999999998208,0.0262607683139794
1000.00000000016,0.0463253607807382,0.999999999999216,0.0309922759427523
1100.0000000001,0.0552250489670608,0.999999999999752,0.0361721324485963
1200,0.0648203769671115,0.999999999998046,0.0418674696687991
1299.99999999991,0.0740388251135213,1.00000000000021,0.0475756811604225
1399.99999999982,0.0842825100363378,0.999999999998553,0.0538722322492428
1499.99999999973,0.0941330004029054,0.999999999998731,0.0603993791693432
1599.99999999964,0.105200957337325,1.0000000000002,0.0671771247773884
1699.99999999955,0.117221867495509,0.999999999997971,0.0746170605635331
1799.99999999946,0.128251343514824,0.999999999999846,0.0822132685926908
1899.99999999937,0.139920499884701,0.999999999999062,0.0902836573600781
1999.99999999928,0.152117948774218,0.999999999998345,0.0989653745762517
2099.99999999919,0.164252375194763,1.00000000000042,0.107996821021269
2199.99999999909,0.17694063556863,0.999999999998111,0.117890077158144
2299.999999999,0.188873633774427,0.999999999999414,0.128369731652883
2399.99999999891,0.201142070068914,0.999999999999785,0.139655757039347
2499.99999999882,0.214075280534532,0.999999999998875,0.152337287837099
2599.99999999873,0.226374421199738,1.00000000000309,0.166120045631515
2699.99999999864,0.238616634523513,1.0000000000065,0.181695919030785
2799.99999999855,0.249878874589422,1.00000000001948,0.198843687751148
2899.99999999846,0.264228179915853,1.00000000004425,0.217154432576142
2999.99999999837,0.274911229199378,1.00000000007503,0.236576060322186
3099.99999999828,0.291052957368991,1.00000000012902,0.255970644764827
3199.99999999819,0.314421597223767,1.00000000018235,0.27521714978376
3299.99999999809,0.337507704806876,1.00000000024787,0.294341315205991
3399.999999998,0.393071220294767,1.00000000032702,0.312633163879447
3499.99999999791,0.463345067956934,1.00000000037881,0.330856364303443
3599.99999999782,0.57249522984312,1.00000000046619,0.348188520980527
3699.99999999773,0.750366928575765,1.00000000053632,0.364672328085922
3799.99999999764,0.976789081544305,1.00000000058875,0.381101258323087
3899.99999999755,1.30728644196389,1.0000000006835,0.396178375615485
3999.99999999746,1.74485186614721,1.00000000073619,0.410694908295814
4099.99999999738,2.29326942201343,1.00000000081326,0.424788629355586
4199.99999999775,3.00789134541972,1.00000000083982,0.437661891917987
4299.99999999811,3.87021057038489,1.00000000090926,0.450213814199503
4399.99999999848,4.90746593731055,1.00000000092348,0.462046086960112
4499.99999999884,6.15451766832572,1.00000000098145,0.472540680147874
4599.9999999992,7.58442840886276,1.00000000099717,0.483352985492069
4699.99999999957,9.23643652743166,1.00000000109644,0.49247664229289
4799.99999999993,11.1164901192428,1.00000000103224,0.501634047629029
4900.00000000029,13.1987564086697,1.00000000108671,0.510119413343166
5000.00000000066,15.5276612598738,1.0000000011192,0.517475168594592
5100.00000000102,18.0738648496567,1.00000000115999,0.524819735266792
5200.00000000139,20.8284756191095,1.00000000112551,0.531659061968671
5300.00000000175,23.8256687820204,1.00000000120118,0.537243006146814
5400.00000000211,27.0069425952906,1.00000000112223,0.543678552839534
5500.00000000248,30.3953035019638,1.00000000117237,0.548433475737792
5600.00000000284,33.9866536997715,1.00000000119657,0.553227140814909
5700.00000000321,37.7263640758858,1.00000000115839,0.558014156905606
5800.00000000357,41.6582569254082,1.00000000120863,0.5615401265019
5900.00000000393,45.7278819085219,1.00000000119688,0.565685109564665
6000.0000000043,49.9217307961244,1.00000000118974,0.568997919079592
6100.00000000466,54.2643367760279,1.00000000120512,0.571693618910938
6200.00000000502,58.6803207912931,1.00000000120423,0.574983185510004
6300.00000000539,63.2035091247183,1.00000000115045,0.577391679818411
6400.00000000575,67.8041342897262,1.00000000115774,0.579635577639257
6500.00000000612,72.4391379356328,1.00000000112831,0.582122358195856
6600.00000000648,77.148187331596,1.00000000114522,0.583418136979521
6700.00000000684,81.8614067253889,1.00000000115021,0.585424273108494
6800.00000000721,86.5915568388027,1.00000000103944,0.586901266882379
6900.00000000757,91.3367223367265,1.00000000113343,0.587659001129831
7000.00000000793,96.0397849641282,1.00000000111515,0.589421060830252
7100.0000000083,100.741162158408,1.00000000105515,0.589732223586083
7200.00000000866,105.390764106691,1.000000001043,0.590769455566659
7300.00000000903,109.982749220515,1.00000000105748,0.591527021526154
7400.00000000939,114.533471620899,1.0000000010405,0.591922136702643
7500.00000000975,118.987178839516,1.00000000102334,0.592484834573246
7600.00000001012,123.376970224842,1.00000000099835,0.592383929168773
7700.00000001048,127.673667791779,1.00000000098801,0.592917755168818
7800.00000001084,131.859999512667,1.00000000096578,0.593358455986387
7900.00000001121,135.960452880674,1.00000000096327,0.592844634367955
8000.00000001157,139.931193094564,1.00000000094668,0.593039531166691
8100.00000001194,143.792793104274,1.00000000096248,0.593462007105801
8200.0000000123,147.536512315333,1.00000000093173,0.592093923190573
8300.00000001266,151.137934273494,1.00000000093078,0.593354604102998
8400.00000001303,154.627803520941,1.00000000089445,0.591643690936414
8500.00000001339,157.968579496985,1.00000000088731,0.592782957827826
8600.00000001376,161.178334918297,1.00000000084341,0.591569935231242
8700.00000001412,164.253643535681,1.00000000087727,0.591491483755168
8800.00000001448,167.176857365256,1.00000000084173,0.591105625818461
8900.00000001485,169.969712245005,1.00000000084867,0.590268067279423
9000.00000001521,172.614180438085,1.00000000082257,0.590355744738776
9100.00000001557,175.112810417595,1.00000000080497,0.589687921312138
9200.00000001594,177.478449227738,1.00000000080472,0.589523462542098
9300.0000000163,179.687439781234,1.00000000079672,0.588359600838761
9400.00000001667,181.766265237013,1.00000000077189,0.589023300216536
9500.00000001703,183.69992728618,1.00000000074485,0.586905062027257
9600.00000001739,185.490949587549,1.00000000076961,0.587971461599095
9700.00000001776,187.153881338991,1.00000000075925,0.586556194123045
9800.00000001812,188.669956048675,1.00000000073651,0.586522656087079
9900.00000001848,190.061414883717,1.00000000072649,0.586702143981531
10000.0000000188,191.320116309846,1.00000000072063,0.585532108369598
10100.0000000192,192.447466273028,1.00000000072703,0.586053071336943
10200.0000000196,193.457212736324,1.0000000006949,0.584687597504414
10300.0000000199,194.33739081432,1.00000000070168,0.585027983930196
10400.0000000203,195.103976972561,1.00000000067567,0.585161743111717
10500.0000000207,195.755591600254,1.00000000066374,0.58394756113881
10600.000000021,196.290623124442,1.00000000064693,0.583645550833324
10700.0000000214,196.723436842918,1.00000000066425,0.585421485710782
10800.0000000218,197.050030550826,1.0000000006881,0.584094116942452
10900.0000000221,197.277443598519,1.0000000006284,0.580262293022582
11000.0000000225,197.407288159373,1.00000000065298,0.585678661407674
11100.0000000229,197.450131384978,1.00000000066627,0.585334733854084
11200.0000000232,197.409091557499,1.00000000060234,0.575157889206266
11300.0000000236,197.274583657682,1.00000000064197,0.582282364173052
11400.0000000239,197.074555977042,1.00000000068778,0.586410787873231
11500.0000000243,196.807981134322,1.00000000058618,0.574618568317894
11600.0000000247,196.459880403741,1.00000000056707,0.571643252833323
11700.000000025,196.052675492715,1.00000000066867,0.584355667046783
11800.0000000254,195.595146249278,1.0000000006848,0.579829173931105
11900.0000000258,195.082842199475,1.00000000058682,0.568847626570488
12000.0000000261,194.506993322355,1.00000000060021,0.568541711300514
12100.0000000265,193.88430782788,1.0000000007102,0.583427044330645
12200.0000000269,193.235011238311,1.00000000067339,0.577933651532156
12300.0000000272,192.54267972944,1.00000000060212,0.56252125640851
12400.0000000276,191.799444855167,1.00000000058586,0.5596816684347
12500.0000000279,191.024238828056,1.00000000073772,0.58330554276757
12600.0000000283,190.233572929632,1.00000000069055,0.577359934189837
12700.0000000287,189.42019080926,1.00000000060658,0.559765898861973
12800.000000029,188.561010766932,1.00000000054317,0.547946288005126
12900.0000000294,187.674570932307,1.00000000071636,0.577941069247557
13000.0000000298,186.786567163402,1.00000000077871,0.580502972431625
13100.0000000301,185.888559413792,1.00000000064557,0.561658252485195
13200.0000000305,184.965055943829,1.00000000055426,0.542780139513085
13300.0000000309,184.009393434216,1.00000000063496,0.554260010029755
13400.0000000312,183.049596737443,1.00000000077519,0.583570796875264
13500.0000000316,182.096997954068,1.00000000076623,0.570664445510185
13600.0000000319,181.136916317686,1.00000000058097,0.548049972667263
13700.0000000323,180.156826474032,1.00000000055674,0.537464469857306
13800.0000000327,179.158428962123,1.00000000066126,0.55526836299201
13900.000000033,178.163518113215,1.00000000077874,0.579981774634602
14000.0000000334,177.180499861301,1.00000000081343,0.565564773890218
14100.0000000338,176.195744392337,1.00000000063861,0.541392854167306
14200.0000000341,175.199155116966,1.0000000005855,0.535665408930768
14300.0000000345,174.190503027709,1.00000000064093,0.543867526337336
14400.0000000349,173.184507457526,1.00000000075988,0.572457568866345
14500.0000000352,172.191985159474,1.00000000083007,0.570000566702086
14600.0000000356,171.20667927524,1.00000000066569,0.541278439614102
14700.0000000359,170.217788509082,1.00000000059008,0.533183260286211
14800.0000000363,169.222220095894,1.00000000062436,0.53663598215941
14900.0000000367,168.225025088123,1.00000000067192,0.54880753299092
15000.000000037,167.237545985805,1.00000000082064,0.569123137172896
15100.0000000374,166.261000644823,1.0000000007984,0.55839696084499
15200.0000000378,165.292204211871,1.0000000006553,0.530639721862963
15300.0000000381,164.323242825129,1.00000000062784,0.533729257666322
15400.0000000385,163.353230657462,1.00000000063645,0.539225083830356
15500.0000000389,162.386698431691,1.00000000069707,0.542155202101441
15600.0000000392,161.426712802409,1.00000000075425,0.55599651669792
15700.0000000396,160.478077408691,1.00000000081288,0.556696517378432
15800.0000000399,159.538312944371,1.00000000066357,0.532481466308703
15900.0000000403,158.602678459846,1.00000000066834,0.530045169942979
16000.0000000407,157.671985002822,1.00000000063818,0.539313723839889
16100.000000041,156.744287946265,1.00000000067324,0.541977749003636
16200.0000000414,155.822992639704,1.00000000069396,0.539648440750616
16300.0000000418,154.910203507879,1.00000000070663,0.545231778119394
16400.0000000418,154.005894855343,1.00000000073821,0.546841996311801
16500.0000000404,153.110585122573,1.00000000072949,0.534066659097987
16600.0000000389,152.22206867668,1.00000000064815,0.528502951518006
16700.0000000375,151.340235046354,1.00000000066045,0.540484493915416
16800.000000036,150.464986249031,1.00000000066396,0.54458166426683
16900.0000000346,149.596166005617,1.00000000067468,0.536393816791362
17000.0000000331,148.735290951363,1.00000000068917,0.53175509749092
17100.0000000317,147.882399264327,1.00000000068901,0.540655751591698
17200.0000000302,147.037763263035,1.00000000070162,0.543197781595408
17300.0000000287,146.201917594519,1.00000000067428,0.532250581818633
17400.0000000273,145.373790834505,1.00000000067857,0.534461763999698
17500.0000000258,144.554249087468,1.00000000066557,0.545601544154087
17600.0000000244,143.74214671909,1.00000000067963,0.542930344987369
17700.0000000229,142.937718702013,1.00000000068142,0.533200847673534
17800.0000000215,142.141382345497,1.00000000065993,0.528504494128237
17900.00000002,141.352952732399,1.00000000067205,0.53426616742705
18000.0000000186,140.572999612911,1.00000000070762,0.544194799232605
18100.0000000171,139.801461986768,1.00000000069002,0.543139134708812
18200.0000000156,139.038219571654,1.00000000068351,0.536618335644978
18300.0000000142,138.283792778899,1.00000000071206,0.544551381081359
18400.0000000127,137.537930803444,1.00000000062758,0.546659879766409
18500.0000000113,136.801067681029,1.00000000063173,0.540394840206629
18600.0000000098,136.072562233395,1.00000000061259,0.529465249424056
18700.0000000084,135.352508667506,1.00000000067324,0.528647840794335
18800.0000000069,134.641363593951,1.00000000068446,0.530427988624421
18900.0000000055,133.938256114126,1.00000000067707,0.543355699994446
19000.000000004,133.24313555852,1.00000000068639,0.548534687439507
19100.0000000026,132.556057067634,1.00000000066661,0.542237459637856
19200.0000000011,131.876972602701,1.00000000072684,0.544742949709203
19299.9999999996,131.205996875195,1.00000000070421,0.551137735399608
19399.9999999982,130.544079766491,1.0000000006412,0.543702924634938
19499.9999999967,129.892159078073,1.00000000058709,0.529860543874985
19599.9999999953,129.250116470411,1.00000000061026,0.52156087806804
19699.9999999938,128.616662471502,1.00000000069135,0.527330476882785
19799.9999999924,127.991326013719,1.00000000067427,0.529162423269916
19899.9999999909,127.373513093269,1.00000000069737,0.536753776572143
19999.9999999895,126.762813142531,1.00000000064868,0.547786465451202
20099.999999988,126.15917366382,1.00000000068831,0.549243131858566
20199.9999999865,125.561951701147,1.00000000069966,0.548097374633565
20299.9999999851,124.970558069946,1.00000000075608,0.553297407108543
20399.9999999836,124.386506412906,1.00000000065931,0.545270924883213
20499.9999999822,123.813227642296,1.00000000059614,0.534719357105587
20599.9999999807,123.251658929372,1.00000000055773,0.52157665494959
20699.9999999793,122.700533342814,1.00000000064691,0.517814697895898
20799.9999999778,122.157084866689,1.00000000072144,0.524525656804279
20899.9999999764,121.620101704146,1.00000000073579,0.528496752396539
20999.9999999749,121.089760407792,1.00000000064653,0.526199051277894
21099.9999999734,120.566056834385,1.00000000065462,0.53750769036523
21199.999999972,120.046991800104,1.00000000072817,0.553228183760122
21299.9999999705,119.531438117703,1.0000000007394,0.556250577570027
21399.9999999691,119.019688018082,1.00000000073906,0.552151211579606
21499.9999999676,118.512927556434,1.00000000070981,0.548288021275938
21599.9999999662,118.014296903099,1.00000000064559,0.53799534213171
21699.9999999647,117.52710455897,1.00000000057442,0.527359974102257
21799.9999999633,117.051958168575,1.00000000058509,0.525197077650226
21899.9999999618,116.587077664479,1.00000000064526,0.516966659325579
21999.9999999603,116.130142786353,1.00000000068418,0.516978262044756
22099.9999999589,115.679122866661,1.0000000007014,0.521353568225846
22199.9999999574,115.233870826316,1.00000000066728,0.521028380213748
22299.999999956,114.793910686598,1.00000000068909,0.526941611296075
22399.9999999545,114.35681228224,1.00000000071236,0.541843180398421
22499.9999999531,113.920587089444,1.0000000007518,0.556784048462115
22599.9999999516,113.485316953932,1.00000000073763,0.556803593623638
22699.9999999502,113.053404494769,1.00000000069257,0.54804527329112
22799.9999999487,112.626384106391,1.00000000069045,0.544328654480387
22899.9999999473,112.206489924215,1.00000000064587,0.538425336331062
22999.9999999458,111.796970940048,1.0000000006138,0.53152641708038
23099.9999999443,111.397775938251,1.00000000063072,0.529601564356225
23199.9999999429,111.009078612423,1.000000000624,0.525072821974636
23299.9999999414,110.629379334776,1.00000000066253,0.515952531420904
23399.99999994,110.258504931121,1.00000000063461,0.510445873045061
23499.9999999385,109.894308722501,1.00000000069784,0.518849792596668
23599.9999999371,109.5339033746,1.00000000068089,0.524225393127584
23699.9999999356,109.176173628682,1.00000000070016,0.531359474032579
23799.9999999342,108.818582163658,1.0000000007459,0.540472710522104
23899.9999999327,108.46004280119,1.00000000076397,0.545926008589874
23999.9999999312,108.100723584405,1.00000000073588,0.552996110655548
24099.9999999298,107.74310549745,1.00000000068233,0.547883163268742
24199.9999999283,107.389937536965,1.00000000066371,0.541229498111309
24299.9999999269,107.042703981811,1.000000000684,0.542039163525598
24399.9999999254,106.701443932756,1.0000000006967,0.545814969716439
24499.999999924,106.366575530431,1.00000000068067,0.543779293369224
24599.9999999225,106.039614735648,1.00000000062938,0.537071754180449
24699.9999999211,105.722806483367,1.00000000060804,0.527738708621637
24799.9999999196,105.41652408242,1.00000000061464,0.521775662146426
24899.9999999181,105.120742136931,1.00000000062664,0.51447887309014
24999.9999999167,104.833661090945,1.00000000064616,0.517500497882079
25099.9999999152,104.551748849164,1.00000000070285,0.524770192137912
25199.9999999138,104.271979801328,1.0000000007236,0.533209219353791
25299.9999999123,103.991682062856,1.00000000073277,0.542738798527045
25399.9999999109,103.709928743872,1.00000000072493,0.543154847967333
25499.9999999094,103.426978728075,1.00000000077577,0.545587845955261
25599.999999908,103.142271354099,1.00000000073103,0.547295006065221
25699.9999999065,102.858895834942,1.000000000658,0.544928483666599
25799.9999999051,102.579717537464,1.00000000063913,0.544052479540665
25899.9999999036,102.305199462516,1.00000000066706,0.54733194772868
25999.9999999021,102.034576849308,1.00000000069523,0.550217008654969
26099.9999999007,101.767333637107,1.00000000071923,0.552623827992063
26199.9999998992,101.503275585469,1.00000000072475,0.553455240679705
26299.9999998978,101.244873135279,1.00000000065047,0.544372655933703
26399.9999998963,100.995373712506,1.00000000061117,0.532793870098915
26499.9999998949,100.757516515684,1.00000000060473,0.523862690420067
26599.9999998934,100.530991765176,1.00000000060712,0.523203257418232
26699.999999892,100.313806248528,1.00000000065837,0.523480648024268
26799.9999998905,100.103420917093,1.00000000064345,0.526671195035681
26899.999999889,99.8983077765147,1.00000000067117,0.532228004607693
26999.9999998876,99.6944524914849,1.00000000071885,0.539457718754715
27099.9999998861,99.4888499748292,1.00000000070566,0.548942906688917
27199.9999998847,99.2805401745859,1.00000000072716,0.553203320320578
27299.9999998832,99.0707124664457,1.00000000070567,0.545298594962977
27399.9999998818,98.8598838154832,1.00000000072289,0.545632806176745
27499.9999998803,98.6487219791359,1.00000000071043,0.544621969296902
27599.9999998789,98.4384409251466,1.00000000068161,0.546192161749181
27699.9999998774,98.2308216573561,1.00000000068903,0.550982770946263
27799.9999998759,98.025977040373,1.00000000065857,0.554595369728062
27899.9999998745,97.8233046833283,1.00000000070199,0.558693780192401
27999.999999873,97.6214776116835,1.00000000071689,0.556216968937833
28099.9999998716,97.4204724949406,1.00000000072769,0.552331253089667
28199.9999998701,97.2210659614572,1.00000000073119,0.55066193991085
28299.9999998687,97.0263086937599,1.00000000066076,0.54200578895932
28399.9999998672,96.8394421569174,1.00000000062916,0.532764083808746
28499.9999998658,96.6640956951286,1.00000000057502,0.524169054365661
28599.9999998643,96.5006259330029,1.00000000058339,0.523481288253281
28699.9999998629,96.3461040013337,1.00000000064154,0.526164189748887
28799.9999998614,96.1969172105099,1.00000000069597,0.531566921040204
28899.9999998599,96.0507757357952,1.00000000070065,0.535381164905985
