Time,AGPnorm,Energy,Entropy
0,0,1,-1.54164900496092e-17
99.9999999999986,1.37941343911781e-05,0.99999999999969,0.000645241883249536
199.999999999993,0.00130252473725349,0.999999999997235,0.00106177085332713
300,0.00321707426012647,1.00000000000134,0.00186605848550632
400.000000000022,0.00451675426953062,0.999999999997514,0.00319013750388639
500.000000000045,0.00548764350791351,0.99999999999923,0.00437743662149382
600.000000000068,0.00776736321657066,1.00000000000042,0.00604004133687695
700.000000000091,0.00967401645195957,0.999999999996888,0.00781720293532748
800.000000000113,0.0123562117175365,1.00000000000116,0.00965763441060878
900.000000000136,0.015513427379941,0.999999999998152,0.0118327105246137
1000.00000000016,0.0181553227947377,0.999999999998406,0.0140515932650942
1100.0000000001,0.0218178894904514,1.00000000000102,0.0164075233925327
1200,0.0257984276158816,0.999999999996838,0.0189901426532115
1299.99999999991,0.0295937186949158,1.00000000000068,0.0216215174236428
1399.99999999982,0.0338285485280901,0.999999999998909,0.0244161454789773
1499.99999999973,0.0381189245761777,0.999999999997684,0.0273908177896683
1599.99999999964,0.0432006261319256,1.00000000000138,0.0303732022737474
1699.99999999955,0.0487278368929312,0.999999999997062,0.0335820411148142
1799.99999999946,0.0536416626492264,0.999999999999948,0.0369109818425777
1899.99999999937,0.0588823807276199,0.999999999999717,0.0402572955518347
1999.99999999928,0.0646122475559872,0.999999999997194,0.0438844550216527
2099.99999999919,0.0706972561243772,1.00000000000145,0.0475170419998409
2199.99999999909,0.0771723312444998,0.999999999997501,0.0513018203261896
2299.999999999,0.0831773113600279,0.99999999999909,0.0553069579519906
2399.99999999891,0.0894707876443943,1.00000000000047,0.059239301625559
2499.99999999882,0.0964040279959967,0.999999999996976,0.063519397398462
2599.99999999873,0.103044938881743,1.00000000000119,0.0678609794693911
2699.99999999864,0.109963824967381,0.999999999998119,0.0722742699875027
2799.99999999855,0.116853341112464,0.9999999999983,0.0770045344192938
2899.99999999846,0.124108012505217,1.00000000000101,0.0816708019547823
2999.99999999837,0.131835476031841,0.999999999996997,0.0866926428830755
3099.99999999828,0.138856861200492,1.0000000000006,0.0918756518503367
3199.99999999819,0.145956328850317,0.999999999998922,0.0970745023130509
3299.99999999809,0.153492189564678,0.99999999999774,0.102704256394683
3399.999999998,0.161284661711698,1.00000000000128,0.10837492546952
3499.99999999791,0.169262214040217,0.999999999997214,0.114381699470799
3599.99999999782,0.176560307430559,0.999999999999789,0.120717166143011
3699.99999999773,0.183849494226944,0.999999999999833,0.127084010043025
3799.99999999764,0.191803212884819,0.999999999997496,0.13406480070079
3899.99999999755,0.199627346469376,1.00000000000149,0.141280239790155
3999.99999999746,0.20739714857069,0.999999999997906,0.148917391453465
4099.99999999738,0.214735436386992,0.999999999999635,0.157173302230809
4199.99999999775,0.222423236491165,1.00000000000183,0.165700816803227
4299.99999999811,0.23028288440781,0.999999999999973,0.175073883556925
4399.99999999848,0.238134278912559,1.00000000000576,0.184972009701274
4499.99999999884,0.245753531278682,1.00000000000618,0.195306002290426
4599.9999999992,0.25292300124141,1.00000000001094,0.206421587438123
4699.99999999957,0.262659681316036,1.00000000002012,0.217707798129633
4799.99999999993,0.271203716384362,1.00000000002567,0.229460015390311
4900.00000000029,0.282412812256319,1.0000000000381,0.241393039480603
5000.00000000066,0.297507279738184,1.00000000004734,0.253035005863536
5100.00000000102,0.313965924717355,1.00000000006335,0.26499817778525
5200.00000000139,0.342964508707517,1.00000000007797,0.276597606193538
5300.00000000175,0.379136075328071,1.00000000009204,0.288124322161579
5400.00000000211,0.429549021071162,1.00000000011052,0.299502045779218
5500.00000000248,0.505778100498038,1.00000000012447,0.310265074783186
5600.00000000284,0.602492664222184,1.0000000001368,0.321240930625119
5700.00000000321,0.73767601255486,1.00000000016663,0.331658232764896
5800.00000000357,0.917180617313332,1.00000000017691,0.34181954461367
5900.00000000393,1.14293144332842,1.00000000020492,0.351933866045027
6000.0000000043,1.43892798151244,1.00000000021513,0.36142249566751
6100.00000000466,1.80534785374571,1.00000000022955,0.370967636176512
6200.00000000502,2.25283053220449,1.00000000025019,0.380145964403492
6300.00000000539,2.80782225168283,1.00000000026912,0.388639330490976
6400.00000000575,3.46319116266781,1.00000000027034,0.3975005852098
6500.00000000612,4.24210166898877,1.00000000029598,0.405546495069031
6600.00000000648,5.16329726051863,1.00000000029938,0.413595728107627
6700.00000000684,6.21558143964268,1.00000000032736,0.421365442055548
6800.00000000721,7.43959597867147,1.00000000034082,0.428383879225618
6900.00000000757,8.82920855547656,1.00000000035533,0.435794806158433
7000.00000000793,10.3863116182971,1.0000000003591,0.442671983462858
7100.0000000083,12.1554641249053,1.00000000038367,0.44900125603874
7200.00000000866,14.1017958359983,1.00000000039208,0.4555880284061
7300.00000000903,16.2617367742269,1.00000000039198,0.461408101052016
7400.00000000939,18.646532069499,1.00000000041413,0.467356261619217
7500.00000000975,21.2230838197173,1.00000000041842,0.473059046515771
7600.00000001012,24.0561050846524,1.00000000041086,0.478030375648306
7700.00000001048,27.1009404772085,1.00000000042248,0.483489445759949
7800.00000001084,30.3690835504469,1.0000000004394,0.48813818263899
7900.00000001121,33.9004996569433,1.00000000042178,0.492856563693567
8000.00000001157,37.6285060137058,1.0000000004374,0.497457358918717
8100.00000001194,41.6202673234509,1.00000000043254,0.501359525644855
8200.0000000123,45.8430000911908,1.00000000044423,0.505633567754579
8300.00000001266,50.2700587452529,1.00000000045578,0.509367648418416
8400.00000001303,54.9689279206837,1.00000000045254,0.512767208552444
8500.00000001339,59.854494916968,1.00000000045279,0.51655320863846
8600.00000001376,64.9758546323283,1.00000000047683,0.519536703601923
8700.00000001412,70.3287877905998,1.00000000046062,0.52275615133101
8800.00000001448,75.8491870845206,1.00000000047309,0.525805453970391
8900.00000001485,81.6189574923325,1.00000000045572,0.528172299455793
9000.00000001521,87.5562443640613,1.00000000047782,0.531087409682274
9100.00000001557,93.675982277354,1.00000000046933,0.533485500787088
9200.00000001594,100.009660878463,1.00000000046565,0.535723173161996
9300.0000000163,106.465796099275,1.0000000004568,0.538278479254716
9400.00000001667,113.123567328641,1.00000000047272,0.539800516221655
9500.00000001703,119.923288498145,1.00000000045641,0.54205239345765
9600.00000001739,126.841240080548,1.00000000046512,0.543810330096265
9700.00000001776,133.938342515852,1.00000000046772,0.545241401584284
9800.00000001812,141.112765395799,1.00000000045629,0.547226082277498
9900.00000001848,148.425917735483,1.00000000046212,0.548407430881346
10000.0000000188,155.850303903309,1.00000000045124,0.549944583527565
10100.0000000192,163.329765835166,1.00000000045049,0.55131821344352
10200.0000000196,170.939114417423,1.0000000004634,0.552119713556028
10300.0000000199,178.585935942596,1.00000000047253,0.55344497819957
10400.0000000203,186.302248733678,1.00000000045755,0.554311822329584
10500.0000000207,194.095045349766,1.00000000044495,0.555309595396819
10600.000000021,201.886583866983,1.00000000043908,0.55628329986609
10700.0000000214,209.752185496939,1.00000000045373,0.55672147533375
10800.0000000218,217.620923132619,1.00000000044087,0.557736710434729
10900.0000000221,225.494106250705,1.00000000044093,0.558407567668187
11000.0000000225,233.404990408497,1.00000000044172,0.558910232456416
11100.0000000229,241.270446090854,1.00000000043002,0.559514990220118
11200.0000000232,249.152814967099,1.00000000043664,0.559863762437661
11300.0000000236,257.0080230458,1.00000000042403,0.560402780752295
11400.0000000239,264.8125957166,1.00000000041443,0.560524105286489
11500.0000000243,272.61459135047,1.00000000042567,0.560721319576729
11600.0000000247,280.336982169251,1.00000000042396,0.561320381494054
11700.000000025,288.023611037347,1.00000000042871,0.560808494505044
11800.0000000254,295.656523974594,1.00000000041491,0.561368616659711
11900.0000000258,303.194615021762,1.00000000040805,0.561840190034848
12000.0000000261,310.69282251461,1.00000000040863,0.561438515115166
12100.0000000265,318.085588481707,1.00000000041527,0.56192433420655
12200.0000000269,325.399268789893,1.00000000040165,0.561614585825968
12300.0000000272,332.636010129474,1.00000000039999,0.56154703870666
12400.0000000276,339.746396439648,1.00000000039426,0.561946052432921
12500.0000000279,346.783906097456,1.000000000382,0.561161274482081
12600.0000000283,353.697873431921,1.00000000038659,0.561399700465225
12700.0000000287,360.498388735688,1.00000000039095,0.56146234603181
12800.000000029,367.202432085295,1.00000000037548,0.560865143929507
12900.0000000294,373.759497041524,1.00000000037969,0.561404725246885
13000.0000000298,380.215413717912,1.00000000036947,0.560610845943018
13100.0000000301,386.53705125937,1.00000000036701,0.560320074510778
13200.0000000305,392.720050763047,1.00000000036858,0.560906432864249
13300.0000000309,398.792775324654,1.0000000003691,0.559689145328024
13400.0000000312,404.705010589467,1.00000000036497,0.559930106244487
13500.0000000316,410.494569125399,1.0000000003629,0.559824628418027
13600.0000000319,416.146109882936,1.0000000003431,0.559048641992972
13700.0000000323,421.640326997322,1.0000000003507,0.559110313196823
13800.0000000327,427.012329539277,1.00000000034442,0.559010628234857
13900.000000033,432.22227202269,1.0000000003448,0.55832823381023
14000.0000000334,437.293449129331,1.00000000034223,0.557894498939408
14100.0000000338,442.223218888932,1.0000000003452,0.557762049259226
14200.0000000341,446.99073748301,1.00000000033792,0.557542191468724
14300.0000000345,451.627208796655,1.00000000031717,0.556895922969001
14400.0000000349,456.102804995302,1.00000000034158,0.556864255899353
14500.0000000352,460.432853890786,1.0000000003381,0.556572026124197
14600.0000000356,464.621948905821,1.00000000032308,0.555781376111012
14700.0000000359,468.646235484452,1.00000000031295,0.555912534339793
14800.0000000363,472.537127069936,1.00000000032296,0.555501240752356
14900.0000000367,476.272370574346,1.00000000031401,0.555308891563299
15000.000000037,479.857847059094,1.00000000030109,0.555000867264445
15100.0000000374,483.306994853963,1.00000000031446,0.554362713709746
15200.0000000378,486.594743120486,1.00000000030214,0.554030707399234
15300.0000000381,489.74923093608,1.0000000003041,0.553283657017411
15400.0000000385,492.754671469197,1.00000000029153,0.553668253425669
15500.0000000389,495.613334173993,1.00000000028538,0.554328046451463
15600.0000000392,498.341871935961,1.00000000029177,0.553281747366378
15700.0000000396,500.917187434779,1.00000000029209,0.552613775285893
15800.0000000399,503.362676928845,1.0000000002811,0.55093260552855
15900.0000000403,505.66815251884,1.00000000028564,0.55193964865077
16000.0000000407,507.834200498561,1.00000000027991,0.552013219533842
16100.000000041,509.875283309705,1.00000000029046,0.554001263937005
16200.0000000414,511.779547973916,1.00000000027988,0.55254801560904
16300.0000000418,513.558510426378,1.00000000028155,0.550852514861899
16400.0000000418,515.210529176225,1.00000000026308,0.547389923305302
16500.0000000404,516.72426971449,1.00000000026768,0.548058209240491
16600.0000000389,518.120339202026,1.00000000025861,0.551030186023108
16700.0000000375,519.38997957994,1.00000000027598,0.554237914825937
16800.000000036,520.548457375644,1.00000000026884,0.554359092381364
16900.0000000346,521.597529904703,1.00000000025853,0.550161392236056
17000.0000000331,522.522873351712,1.00000000025568,0.545416335360941
17100.0000000317,523.335396682508,1.00000000025356,0.542706570894177
17200.0000000302,524.023210955242,1.00000000024455,0.545751099327473
17300.0000000287,524.601643647536,1.00000000025759,0.552625118598316
17400.0000000273,525.086706274858,1.00000000026974,0.557123041038695
17500.0000000258,525.478052787747,1.00000000027138,0.556346626386128
17600.0000000244,525.784954636339,1.00000000025386,0.547834529804546
17700.0000000229,525.987585896104,1.00000000023868,0.538943337960823
17800.0000000215,526.078585974863,1.00000000021691,0.535403248440531
17900.00000002,526.064783637975,1.00000000022636,0.54151199726597
18000.0000000186,525.954134059083,1.00000000024461,0.552998425568243
18100.0000000171,525.778096294203,1.00000000028506,0.560824981310772
18200.0000000156,525.543168207422,1.00000000028143,0.559352825442045
18300.0000000142,525.24438379766,1.00000000026675,0.549300391887407
18400.0000000127,524.871918051584,1.00000000023118,0.534872208445739
18500.0000000113,524.398800109574,1.00000000020312,0.52570566166495
18600.0000000098,523.830499345643,1.00000000020516,0.529603644022643
18700.0000000084,523.178508267403,1.00000000023256,0.544192223618727
18800.0000000069,522.469038012718,1.00000000027867,0.559904272793937
18900.0000000055,521.731121634196,1.00000000030223,0.565354211708055
19000.000000004,520.962678535357,1.00000000030184,0.558730298969078
19100.0000000026,520.155648178609,1.00000000025434,0.541425868371326
19200.0000000011,519.283421176898,1.00000000021143,0.5214623566188
19299.9999999996,518.324435452851,1.00000000018315,0.511361002202551
19399.9999999982,517.283770834087,1.0000000001873,0.518359918083159
19499.9999999967,516.176027771295,1.00000000024185,0.540630749452339
19599.9999999953,515.038267445097,1.00000000030286,0.560958976208458
19699.9999999938,513.894622549351,1.00000000032633,0.569233288882575
19799.9999999924,512.748312995244,1.00000000031668,0.562471862810093
19899.9999999909,511.590102516081,1.00000000027534,0.543054176316947
19999.9999999895,510.388972698995,1.00000000022408,0.516882797242225
20099.999999988,509.122947001108,1.00000000016559,0.496693051389957
20199.9999999865,507.782024789564,1.00000000016057,0.495739324153068
20299.9999999851,506.377055611498,1.00000000021217,0.518872318717357
20399.9999999836,504.944089284197,1.00000000028353,0.548782959726127
20499.9999999822,503.509727326808,1.00000000033771,0.568151762200277
20599.9999999807,502.092331389671,1.00000000034953,0.571041577896986
20699.9999999793,500.692622647011,1.00000000031929,0.56049039260804
20799.9999999778,499.288544735327,1.00000000028253,0.535978655232995
20899.9999999764,497.857755271547,1.0000000002079,0.504131757826397
20999.9999999749,496.371273458408,1.00000000015393,0.479946157972515
21099.9999999734,494.822074210175,1.00000000015201,0.47826408996499
21199.999999972,493.224751626054,1.00000000019741,0.504006226298571
21299.9999999705,491.60290921474,1.00000000026715,0.539979488892225
21399.9999999691,489.989076903897,1.00000000031807,0.565056878506584
21499.9999999676,488.400339688416,1.00000000036417,0.574413332349887
21599.9999999662,486.840582435565,1.00000000035548,0.569545175700231
21699.9999999647,485.302385668058,1.00000000031803,0.550433540298632
21799.9999999633,483.759675339143,1.00000000025163,0.519191086319156
21899.9999999618,482.191280703795,1.00000000018344,0.48461494644829
21999.9999999603,480.577271993636,1.00000000014456,0.463241360250967
22099.9999999589,478.914352443098,1.00000000014889,0.46742585680459
22199.9999999574,477.219399708716,1.00000000019685,0.497485685410598
22299.999999956,475.511756754753,1.00000000028553,0.535653092609084
22399.9999999545,473.817517981044,1.00000000034335,0.563191051086934
22499.9999999531,472.152084302892,1.00000000038586,0.573575660011266
22599.9999999516,470.518982059576,1.00000000037203,0.571167759902898
22699.9999999502,468.914498161538,1.00000000034269,0.556121584821341
22799.9999999487,467.320684449015,1.00000000029372,0.530238453796796
22899.9999999473,465.71960688778,1.00000000022265,0.495362235972563
22999.9999999458,464.093829825604,1.00000000016244,0.464391986643425
23099.9999999443,462.432320543003,1.00000000013839,0.452280768089904
23199.9999999429,460.741459089366,1.00000000015947,0.463687709433889
23299.9999999414,459.03023250148,1.00000000021504,0.495531436018525
23399.99999994,457.318147942353,1.00000000028644,0.533032622588605
23499.9999999385,455.622094394432,1.00000000034631,0.55811995520549
23599.9999999371,453.951319367823,1.00000000037645,0.569097616000065
23699.9999999356,452.311776050681,1.00000000037696,0.566892804648169
23799.9999999342,450.699416114521,1.00000000035203,0.555447585085623
23899.9999999327,449.104225240029,1.00000000032309,0.534768071777729
23999.9999999312,447.514778917776,1.00000000026492,0.507364741005957
24099.9999999298,445.915549339438,1.00000000019666,0.476314419307916
24199.9999999283,444.300315384882,1.00000000016267,0.454291906781539
24299.9999999269,442.664232415564,1.00000000015511,0.449762084965463
24399.9999999254,441.011655401349,1.00000000017404,0.463676061884482
24499.999999924,439.352358508136,1.00000000022131,0.490190427409367
24599.9999999225,437.695130901589,1.00000000027604,0.522465902466973
24699.9999999211,436.052110832706,1.00000000032057,0.547348402476012
24799.9999999196,434.429855270883,1.00000000035514,0.557755156227828
24899.9999999181,432.831096386238,1.00000000036859,0.558860229315468
24999.9999999167,431.256115591945,1.00000000035801,0.549894312878737
25099.9999999152,429.699412905227,1.00000000033209,0.536759642405383
25199.9999999138,428.154487560407,1.00000000027192,0.517468857768254
25299.9999999123,426.613666813149,1.00000000025138,0.4962648267984
25399.9999999109,425.069626488423,1.00000000020358,0.473925468120233
25499.9999999094,423.519899771049,1.00000000017999,0.458274510409072
25599.999999908,421.961879290329,1.00000000017374,0.453219194929198
25699.9999999065,420.399112433236,1.00000000019105,0.46110672234285
25799.9999999051,418.835223780894,1.00000000021623,0.478673853958075
25899.9999999036,417.27475315245,1.00000000024945,0.502021523428421
25999.9999999021,415.724150787077,1.00000000030441,0.523728139967241
26099.9999999007,414.187043620636,1.00000000034461,0.539209808671146
26199.9999998992,412.666146314316,1.00000000035053,0.544444422061276
26299.9999998978,411.162792187895,1.00000000034255,0.541534920397714
26399.9999998963,409.675208863151,1.00000000033059,0.534423428888578
26499.9999998949,408.201354989587,1.00000000030805,0.523999555130513
26599.9999998934,406.737985132638,1.00000000029621,0.513639804778479
26699.999999892,405.281253092132,1.00000000024901,0.500486866607175
26799.9999998905,403.829086513668,1.0000000002303,0.488856762290769
26899.999999889,402.378821961194,1.00000000020644,0.475231957053174
26999.9999998876,400.931056128082,1.00000000019782,0.46653909642044
27099.9999998861,399.485223347717,1.00000000019806,0.463406909365253
27199.9999998847,398.042784760081,1.00000000020573,0.467426472621359
27299.9999998832,396.605459045693,1.00000000023047,0.478342868640577
27399.9999998818,395.174372987182,1.00000000024985,0.493274524652308
27499.9999998803,393.752150316086,1.00000000028216,0.508216543592394
27599.9999998789,392.340153996206,1.00000000030486,0.51924761081605
27699.9999998774,390.939085425897,1.00000000032415,0.526637790064445
27799.9999998759,389.549979789178,1.00000000033436,0.526230998924132
27899.9999998745,388.17220041178,1.0000000003147,0.524508343835134
27999.999999873,386.805053193472,1.0000000003089,0.520756061947284
28099.9999998716,385.447976127473,1.00000000028142,0.513993122846721
28199.9999998701,384.099200130279,1.00000000026912,0.510360612216359
28299.9999998687,382.758728233953,1.00000000025965,0.504766809768132
28399.9999998672,381.425417857203,1.00000000025235,0.501199221227337
28499.9999998658,380.099564066426,1.00000000023967,0.495667819522633
28599.9999998643,378.781195912187,1.00000000022628,0.487750084756847
28699.9999998629,377.470165415547,1.000000000214,0.481283292964731
28799.9999998614,376.167422169062,1.00000000021284,0.47625669703986
