Time,AGPnorm,Energy,Entropy
0,0,1,2.93647429516365e-18
99.9999999999986,0.00525925127557511,1.00000000000181,0.0158700945832166
199.999999999993,0.0148356906790614,1.000000000001,0.0467246596020924
300,0.03044593840222,1.00000000000113,0.0913321049328492
400.000000000022,0.0464688737861201,1.00000000000478,0.15109197421257
500.000000000045,0.0628170184948003,1.000000000057,0.234791399654086
600.000000000068,0.103650129453473,1.00000000042764,0.343491272457135
700.000000000091,0.275643470472619,1.0000000010931,0.440788340958802
800.000000000113,0.92547861352552,1.00000000166752,0.506486823168415
900.000000000136,2.33084065250938,1.00000000193389,0.54448503996787
1000.00000000016,4.53527515005782,1.00000000201739,0.564249921419734
1100.0000000001,7.4638362905635,1.00000000200241,0.571351334878194
1200,10.7551335920792,1.00000000216663,0.57178065175095
1299.99999999991,14.1870674751183,1.00000000197693,0.568138747944869
1399.99999999982,17.4342340411017,1.00000000179465,0.561978242548757
1499.99999999973,20.3322100000865,1.00000000169473,0.550693683708772
1599.99999999964,22.7505853769646,1.00000000162059,0.54674657521429
1699.99999999955,24.6270571369737,1.00000000160447,0.534631787217151
1799.99999999946,25.9992186553295,1.00000000142795,0.539437952348808
1899.99999999937,26.829384890767,1.0000000012827,0.517057705671961
1999.99999999928,27.284419571259,1.00000000135268,0.541916547835637
2099.99999999919,27.3024193013885,1.00000000092344,0.481407111257458
2199.99999999909,27.0959806137524,1.0000000015694,0.570029637601468
2299.999999999,26.7254778237326,1.00000000087093,0.442855032742194
2399.99999999891,26.0961881986636,1.00000000136491,0.517724859179226
2499.99999999882,25.5284847376266,1.00000000168453,0.573374247257444
2599.99999999873,24.8996804056366,1.00000000065652,0.385790445173392
2699.99999999864,24.1348284102767,1.00000000112362,0.46255045189727
2799.99999999855,23.4251375154353,1.00000000180137,0.575497976015109
2899.99999999846,22.8122068014689,1.0000000014492,0.5063377821346
2999.99999999837,22.1587205454755,1.00000000059252,0.334429789203229
3099.99999999828,21.4817728020679,1.00000000119356,0.447348718731045
3199.99999999819,20.826396841189,1.0000000016945,0.536087111833117
3299.99999999809,20.2377258226084,1.00000000170421,0.566807850267191
3399.999999998,19.695114360345,1.0000000011037,0.47475073354834
3499.99999999791,19.1735802917144,1.0000000006596,0.338242149044961
3599.99999999782,18.7014956494951,1.00000000105752,0.42142609797678
3699.99999999773,18.2352052726561,1.00000000140124,0.529640803462175
3799.99999999764,17.7779899552719,1.00000000127281,0.510336801584611
3899.99999999755,17.3306897348101,1.0000000017872,0.536858494434062
3999.99999999746,16.9012979404696,1.00000000162881,0.573480598933962
4099.99999999738,16.5068032961947,1.00000000090701,0.448995184032246
4199.99999999775,16.1950844319005,1.00000000061801,0.339252462652822
4299.99999999811,15.9791308618942,1.00000000109186,0.400102381038904
4399.99999999848,15.7737558823204,1.00000000135018,0.49763338614561
4499.99999999884,15.5294753104709,1.00000000157129,0.543852270145995
4599.9999999992,15.2665648541006,1.00000000124704,0.539447385682617
4699.99999999957,15.0215144390926,1.00000000111523,0.512388449991985
4799.99999999993,14.7645423655392,1.00000000147044,0.522670400834254
4900.00000000029,14.4846966974928,1.00000000178262,0.55785096881594
5000.00000000066,14.2023296201505,1.00000000161162,0.578820210164762
5100.00000000102,13.9431124145173,1.00000000099858,0.493597079903822
5200.00000000139,13.7660361948567,1.00000000059113,0.37760620515913
5300.00000000175,13.7208338200409,1.00000000074806,0.35950227647232
5400.00000000211,13.7652293740375,1.00000000117443,0.419584011757451
5500.00000000248,13.7889506877558,1.00000000151809,0.501649010574145
5600.00000000284,13.7639814525381,1.00000000134823,0.542756098517936
5700.00000000321,13.7199757065685,1.00000000126358,0.529946779933564
5800.00000000357,13.6465355546835,1.00000000136079,0.55018074493285
5900.00000000393,13.5386549004164,1.00000000134783,0.549778698731659
6000.0000000043,13.4168359376653,1.00000000123024,0.534731743343599
6100.00000000466,13.2926905701584,1.00000000127013,0.546700322645756
6200.00000000502,13.1711747524734,1.00000000105492,0.541732871387038
6300.00000000539,13.0464893838876,1.00000000123576,0.546430228894421
6400.00000000575,12.9013660423107,1.0000000014523,0.557579431629851
6500.00000000612,12.7351505745652,1.0000000017071,0.559459088200375
6600.00000000648,12.5562302386049,1.00000000184403,0.581721702397752
6700.00000000684,12.3758391344298,1.000000001438,0.575189794011712
6800.00000000721,12.2116552101029,1.00000000097772,0.502191496460206
6900.00000000757,12.1117853384895,1.00000000067628,0.415047365067002
7000.00000000793,12.1354988555799,1.00000000063871,0.367561726821681
7100.0000000083,12.2922739353765,1.00000000087089,0.382658913906307
7200.00000000866,12.5222692095771,1.00000000134146,0.427294938017873
7300.00000000903,12.7398616193493,1.00000000141236,0.485836990808691
7400.00000000939,12.9171946786793,1.00000000135539,0.524820481221652
7500.00000000975,13.0496150537143,1.00000000137177,0.551211363422972
7600.00000001012,13.1467662096977,1.0000000013085,0.556004775214173
7700.00000001048,13.2092557749435,1.00000000140269,0.57743242521915
7800.00000001084,13.2312927433448,1.00000000154503,0.587152969498237
7900.00000001121,13.2190185494047,1.00000000128822,0.581096518806035
8000.00000001157,13.1875545005525,1.00000000134868,0.562940376928352
8100.00000001194,13.1464313961943,1.0000000012445,0.559042696009932
8200.0000000123,13.0970438543234,1.0000000013782,0.554906435431079
8300.00000001266,13.0357159637248,1.00000000134834,0.546903143086241
8400.00000001303,12.9763894814837,1.00000000127364,0.552138800234447
8500.00000001339,12.9217338407267,1.00000000121013,0.552020787767069
8600.00000001376,12.8673928939174,1.0000000013077,0.556111439110877
8700.00000001412,12.8113115903192,1.00000000128593,0.563590607415533
8800.00000001448,12.7531545374126,1.00000000131669,0.566269026665268
8900.00000001485,12.6899974886608,1.00000000134701,0.564982269910411
9000.00000001521,12.617766449471,1.00000000141727,0.564933352781968
9100.00000001557,12.5332856618218,1.00000000139743,0.583399685788613
9200.00000001594,12.4414182583154,1.00000000126801,0.603583730283383
9300.0000000163,12.3491706904852,1.00000000115748,0.587305514052427
9400.00000001667,12.2577542897609,1.00000000120014,0.594000537443195
9500.00000001703,12.1606211536749,1.00000000141207,0.591129735887938
9600.00000001739,12.0560810813115,1.00000000153297,0.592217531837188
9700.00000001776,11.9468134760112,1.00000000164499,0.601119575600311
9800.00000001812,11.8387107915609,1.0000000017155,0.595928090245802
9900.00000001848,11.736233976986,1.00000000180949,0.599365336179573
10000.0000000188,11.6348340815462,1.00000000154956,0.591584483629747
10100.0000000192,11.5272632023474,1.00000000130802,0.568624498612851
10200.0000000196,11.4174899112417,1.00000000100711,0.513527545950912
10300.0000000199,11.3328004463827,1.00000000075457,0.456303304832574
10400.0000000203,11.3161761981439,1.00000000064875,0.405443500491029
10500.0000000207,11.4093631672427,1.00000000075847,0.383123254438426
10600.000000021,11.6233344752537,1.00000000080851,0.388257585336403
10700.0000000214,11.9412523131149,1.00000000121152,0.410106853682608
10800.0000000218,12.3042963089983,1.00000000131758,0.441923339187072
10900.0000000221,12.6726724299422,1.00000000139491,0.474015382755289
11000.0000000225,13.0096121070233,1.00000000158321,0.505161490394138
11100.0000000229,13.3156983998116,1.00000000155424,0.522047833071523
11200.0000000232,13.5825584476449,1.00000000139557,0.55007182326265
11300.0000000236,13.8160233205184,1.00000000149282,0.565170651215193
11400.0000000239,14.0166874286826,1.00000000147067,0.573524296857394
11500.0000000243,14.1841209298409,1.00000000150872,0.586982000626265
11600.0000000247,14.3184763378982,1.00000000141285,0.595317383942435
11700.000000025,14.4183534135948,1.00000000146264,0.609634754787007
11800.0000000254,14.4873397675148,1.00000000154092,0.610919892401601
11900.0000000258,14.5312262196998,1.00000000134278,0.609444383447314
12000.0000000261,14.557613776096,1.00000000141007,0.609296211676525
12100.0000000265,14.5663075976479,1.00000000145704,0.605518148411902
12200.0000000269,14.5651952019459,1.00000000134946,0.594793295978339
12300.0000000272,14.5559693071265,1.00000000147517,0.591001712834529
12400.0000000276,14.5311512435047,1.00000000146422,0.593994400479239
12500.0000000279,14.5011266252347,1.00000000132523,0.582900428581579
12600.0000000283,14.4623305469445,1.0000000015472,0.59154931093731
12700.0000000287,14.4129869620143,1.00000000139669,0.589764604624931
12800.000000029,14.357967809374,1.0000000014862,0.601780034518075
12900.0000000294,14.2972481558761,1.00000000145857,0.602142530483677
13000.0000000298,14.2300280400735,1.00000000156389,0.616337644782353
13100.0000000301,14.1587685929051,1.00000000137969,0.610035058702345
13200.0000000305,14.0914156022045,1.00000000127391,0.594379067791071
13300.0000000309,14.0295170520206,1.00000000134363,0.581867132572964
13400.0000000312,13.9750829800623,1.00000000134643,0.569320909483384
13500.0000000316,13.9239891740999,1.00000000149904,0.577894050686444
13600.0000000319,13.8736166054252,1.00000000136377,0.585434688251349
13700.0000000323,13.8237706496444,1.00000000146487,0.579712277040864
13800.0000000327,13.7734239047433,1.00000000139273,0.579117983550087
13900.000000033,13.7247168676589,1.0000000013119,0.585737354327404
14000.0000000334,13.6829859816211,1.00000000126088,0.584630197584797
14100.0000000338,13.6421750759811,1.00000000158046,0.578287889516841
14200.0000000341,13.599608482553,1.00000000142188,0.582640813365944
14300.0000000345,13.5636756950963,1.00000000125382,0.580121628093968
14400.0000000349,13.5346189656846,1.00000000137578,0.563213362285052
14500.0000000352,13.5066882830067,1.00000000143604,0.560047839155851
14600.0000000356,13.4739754238685,1.00000000146545,0.564187013288432
14700.0000000359,13.4429794535189,1.00000000127798,0.573797672810488
14800.0000000363,13.413787824218,1.00000000146417,0.59523366011057
14900.0000000367,13.3822193337421,1.00000000147778,0.606399607868528
15000.000000037,13.3528836247288,1.00000000141144,0.606886468312435
15100.0000000374,13.3261672467748,1.00000000138992,0.591275003901051
15200.0000000378,13.2952513860352,1.00000000146049,0.591140055925689
15300.0000000381,13.2631985594424,1.00000000133505,0.600552226290928
15400.0000000385,13.2332267125753,1.00000000155899,0.6119140123174
15500.0000000389,13.1990141456748,1.00000000145021,0.615285523294095
15600.0000000392,13.1610993531071,1.00000000145361,0.618760283033001
15700.0000000396,13.1226858622155,1.00000000141316,0.614865252077102
15800.0000000399,13.0803516193168,1.0000000014833,0.617626865029671
15900.0000000403,13.0327999628351,1.00000000139021,0.617698393442144
16000.0000000407,12.983801542308,1.00000000144766,0.609452117190665
16100.000000041,12.9319263747826,1.00000000146289,0.615255022769168
16200.0000000414,12.8801592695753,1.00000000139199,0.616141071885697
16300.0000000418,12.8330710275694,1.00000000128321,0.614740522619835
16400.0000000418,12.7898557382234,1.00000000145444,0.61335170780217
16500.0000000404,12.7422788428484,1.00000000151417,0.61470649565471
16600.0000000389,12.6886347113806,1.00000000163328,0.614609594315865
16700.0000000375,12.6365569099825,1.00000000122472,0.621729080964983
16800.000000036,12.5858589412667,1.00000000147992,0.629784598529706
16900.0000000346,12.5321937566802,1.00000000146635,0.619225997329914
17000.0000000331,12.4807771352691,1.00000000127639,0.606779896758815
17100.0000000317,12.4319532565524,1.00000000141369,0.6190527477449
17200.0000000302,12.3807804518141,1.00000000152137,0.612970523223314
17300.0000000287,12.3284429747492,1.00000000140938,0.6247343070176
17400.0000000273,12.2740219726739,1.00000000152456,0.627276505141592
17500.0000000258,12.2169992475144,1.0000000014564,0.623596192096592
17600.0000000244,12.1582069764333,1.00000000145747,0.617737401385017
17700.0000000229,12.0973566638437,1.00000000161212,0.63545362241492
17800.0000000215,12.0347703201269,1.00000000160682,0.637879974097677
17900.00000002,11.9727567918026,1.00000000141594,0.635436662944822
18000.0000000186,11.9112518833873,1.00000000166536,0.640276753307198
18100.0000000171,11.8476494455231,1.00000000173027,0.64117529803148
18200.0000000156,11.783413315833,1.00000000140547,0.629620585780995
18300.0000000142,11.7197281459817,1.00000000148771,0.635665264595046
18400.0000000127,11.6565049964921,1.00000000131273,0.620400209460915
18500.0000000113,11.5938743817508,1.00000000153759,0.644407835304103
18600.0000000098,11.5321377318863,1.00000000134811,0.637674101734204
18700.0000000084,11.4710011480776,1.00000000126699,0.634971013066197
18800.0000000069,11.4110320331955,1.00000000130138,0.634060335836359
18900.0000000055,11.3534201169097,1.0000000013775,0.639378816482596
19000.000000004,11.2990918200967,1.00000000152823,0.636012811024119
19100.0000000026,11.2503417861513,1.00000000158417,0.634614611399186
19200.0000000011,11.2100552214197,1.0000000016866,0.642444841653304
19299.9999999996,11.1794767656987,1.00000000164975,0.641658168454137
19399.9999999982,11.1666439426245,1.00000000188394,0.650978772196224
19499.9999999967,11.1666994471986,1.00000000182601,0.64934985451005
19599.9999999953,11.1963770825422,1.00000000196409,0.652453469182485
19699.9999999938,11.2381228632573,1.00000000197377,0.652517705378193
19799.9999999924,11.3121085881448,1.00000000189474,0.637996431861896
19899.9999999909,11.3883605569773,1.0000000020667,0.629913788565791
19999.9999999895,11.481328694032,1.00000000180981,0.614362640136439
20099.999999988,11.5549296058724,1.00000000163005,0.602880659270818
20199.9999999865,11.610371055992,1.00000000144617,0.591895703840175
20299.9999999851,11.6317272002568,1.00000000137156,0.561529799049735
20399.9999999836,11.6193067513344,1.00000000117812,0.532228736201132
20499.9999999822,11.5839854019276,1.0000000008777,0.496376255879886
20599.9999999807,11.5374567350891,1.00000000098682,0.467470507957726
20699.9999999793,11.5049825778037,1.00000000079863,0.438952065155455
20799.9999999778,11.5125285649112,1.00000000080929,0.419441133989092
20899.9999999764,11.5867280294342,1.00000000083469,0.401207118630675
20999.9999999749,11.7449667993704,1.00000000083878,0.392733130559014
21099.9999999734,12.0136329462096,1.00000000092966,0.396077970378225
21199.999999972,12.3686883928168,1.00000000109722,0.401762337173165
21299.9999999705,12.8424951898189,1.0000000010824,0.412244953555417
21399.9999999691,13.3644261749705,1.00000000133803,0.424016613525585
21499.9999999676,13.9686554394286,1.00000000134122,0.436146268360365
21599.9999999662,14.5757265759373,1.00000000160011,0.447950397127108
21699.9999999647,15.2065477690642,1.00000000160875,0.461184034209407
21799.9999999633,15.825115639403,1.00000000167983,0.474074863930467
21899.9999999618,16.4236228603827,1.00000000139637,0.489359778470893
21999.9999999603,17.015437269951,1.00000000172696,0.501997513306318
22099.9999999589,17.5627262392367,1.00000000162633,0.513946016669669
22199.9999999574,18.1105157517054,1.00000000171372,0.527108206245875
22299.999999956,18.6176110506387,1.00000000167083,0.538477884293771
22399.9999999545,19.1089079834996,1.00000000163775,0.541478433856605
22499.9999999531,19.5753871481242,1.00000000157436,0.558534359212921
22599.9999999516,20.0199069275453,1.00000000158536,0.568099557077202
22699.9999999502,20.4492341973684,1.00000000151949,0.570813171188619
22799.9999999487,20.8398421571573,1.00000000165521,0.589395590554705
22899.9999999473,21.2170967389813,1.00000000157236,0.609235401126777
22999.9999999458,21.5565147430091,1.00000000156689,0.605819657879117
23099.9999999443,21.8753842534684,1.00000000139743,0.610970237065854
23199.9999999429,22.1561371857341,1.00000000169934,0.632438447654853
23299.9999999414,22.4074429926228,1.00000000171939,0.63870673586741
23399.99999994,22.6379928307184,1.00000000157739,0.634823311569732
23499.9999999385,22.8371612659453,1.00000000171497,0.638171242598317
23599.9999999371,23.0159286438007,1.00000000163164,0.649837377167785
23699.9999999356,23.1637987525607,1.00000000170086,0.654721319369494
23799.9999999342,23.3035408071685,1.00000000156835,0.647190511819125
23899.9999999327,23.4223443381803,1.00000000169705,0.639122965821874
23999.9999999312,23.5250127217932,1.00000000163506,0.644734258192911
24099.9999999298,23.6081241979454,1.00000000146117,0.649103184139991
24199.9999999283,23.6699340355556,1.000000001685,0.647219330818785
24299.9999999269,23.7234449860623,1.00000000141021,0.639254875342395
24399.9999999254,23.7660729345786,1.00000000159996,0.637523422690628
24499.999999924,23.8051238248326,1.00000000151372,0.631724829668293
24599.9999999225,23.8333619841386,1.00000000158879,0.63667182154726
24699.9999999211,23.8491269070342,1.00000000170044,0.650597618192636
24799.9999999196,23.8475765819608,1.00000000162247,0.645791582708003
24899.9999999181,23.8425931403877,1.00000000159216,0.630120331485265
24999.9999999167,23.8367346968472,1.00000000153941,0.619219475444629
25099.9999999152,23.8270335407209,1.00000000156265,0.618636894640115
25199.9999999138,23.811686487021,1.00000000161667,0.616914826069211
25299.9999999123,23.7894565031199,1.00000000156062,0.612586419533651
25399.9999999109,23.7664720231922,1.00000000168591,0.622863279152822
25499.9999999094,23.7396957218565,1.00000000159106,0.641811338772635
25599.999999908,23.71000583763,1.00000000155336,0.642568606273894
25699.9999999065,23.6814472096089,1.00000000145793,0.617167690399972
25799.9999999051,23.6541629273758,1.00000000124738,0.603786421147292
25899.9999999036,23.6230304275157,1.00000000162424,0.613359435924131
25999.9999999021,23.5849804796373,1.00000000159458,0.598322919847337
26099.9999999007,23.5434139641203,1.00000000169569,0.612886694884925
26199.9999998992,23.4981646525264,1.00000000170555,0.609408657311927
26299.9999998978,23.4546345933371,1.00000000153258,0.617600816760517
26399.9999998963,23.4084195338909,1.00000000167916,0.63759570908975
26499.9999998949,23.3563155068199,1.00000000167193,0.646263339851774
26599.9999998934,23.3023288270473,1.00000000170393,0.645822407126422
26699.999999892,23.2502973263382,1.00000000158599,0.629157242684844
26799.9999998905,23.2041025940323,1.0000000013996,0.614819949555472
26899.999999889,23.1614308785555,1.00000000166716,0.621393552205361
26999.9999998876,23.1210076946682,1.00000000167249,0.62238466187052
27099.9999998861,23.0833032921417,1.00000000137043,0.611370643863103
27199.9999998847,23.0514962243946,1.00000000145755,0.597644421672978
27299.9999998832,23.022571410084,1.00000000175567,0.619339866590589
27399.9999998818,22.9885655456872,1.00000000169299,0.639922606657061
27499.9999998803,22.9473090206809,1.00000000186258,0.637978697625005
27599.9999998789,22.9044041379958,1.00000000153503,0.618621247877064
27699.9999998774,22.867196319764,1.00000000138626,0.617009319299619
27799.9999998759,22.8285416667877,1.00000000173447,0.641605219071204
27899.9999998745,22.7833338467814,1.00000000166421,0.635255272455494
27999.999999873,22.7361343788243,1.00000000152097,0.631364554098122
28099.9999998716,22.6913381338158,1.0000000015643,0.62017345789445
28199.9999998701,22.6504605374951,1.00000000169364,0.619785636127459
28299.9999998687,22.6103437333032,1.00000000175121,0.617421073839091
28399.9999998672,22.5683147717847,1.00000000169123,0.631210428773767
28499.9999998658,22.5225371311185,1.00000000188574,0.632266312677927
28599.9999998643,22.4791007085303,1.00000000133571,0.612452568947159
28699.9999998629,22.4395862037532,1.00000000153734,0.634627817933007
28799.9999998614,22.3997632827392,1.00000000164463,0.630175634622859
28899.9999998599,22.3589339031905,1.00000000155069,0.642100675899036
28999.9999998585,22.3161485757029,1.0000000017599,0.634306253221344
29099.999999857,22.270798666131,1.0000000017052,0.638257748026423
