Time,AGPnorm,Energy,Entropy
0,0,1,-1.29738773404503e-17
99.9999999999986,7.32654585756565e-06,0.999999999993726,0.000356992856791447
199.999999999993,0.000650791007108155,0.999999999999451,0.000578239612016835
300,0.00159937217718218,0.999999999996963,0.000977930126372533
400.000000000022,0.00217800958092366,0.999999999995059,0.00176027387563071
500.000000000045,0.0025862720708515,1.00000000000044,0.00232301004377641
600.000000000068,0.00383972955991246,0.999999999994101,0.00326170589938943
700.000000000091,0.00477017053660449,0.999999999998443,0.00425328404321415
800.000000000113,0.00604672616348047,0.999999999998137,0.00515754933727245
900.000000000136,0.00757611674644563,0.99999999999427,0.00647239840788082
1000.00000000016,0.00875433500505195,1.00000000000046,0.00758960017664427
1100.0000000001,0.0106781819919235,0.999999999994851,0.00889043082798624
1200,0.0125552986932293,0.999999999997286,0.0103960546835564
1299.99999999991,0.014422704068269,0.999999999999152,0.011688130856494
1399.99999999982,0.0167277210330424,0.999999999993852,0.013363608443591
1499.99999999973,0.0187389290677265,1.00000000000008,0.0149295138431667
1599.99999999964,0.0212948399511546,0.999999999995866,0.0165161711412107
1699.99999999955,0.0238912750756959,0.999999999996129,0.0184221015691649
1799.99999999946,0.0263445974582198,0.999999999999888,0.0200654746598992
1899.99999999937,0.0294191059578961,0.999999999993861,0.0220117930881004
1999.99999999928,0.0322708092329325,0.999999999999354,0.0239759365357166
2099.99999999919,0.0353761666396802,0.999999999996996,0.0258243810582802
2199.99999999909,0.0385842332549509,0.999999999995124,0.0280550316536979
2299.999999999,0.0415966059953155,1.00000000000027,0.0300419119807742
2399.99999999891,0.0453176458839489,0.999999999994282,0.0322195139207836
2499.99999999882,0.0489139766435891,0.999999999998364,0.0345519108438513
2599.99999999873,0.0524989136946045,0.99999999999808,0.0366652425683034
2699.99999999864,0.0563155747457937,0.999999999994406,0.0391704241290773
2799.99999999855,0.059895833605777,1.00000000000028,0.0415056526025108
2899.99999999846,0.0640833605543497,0.999999999995043,0.043912536865964
2999.99999999837,0.0682159293807295,0.999999999997247,0.0465903746659019
3099.99999999828,0.0722173072804066,0.999999999998982,0.0489946017918645
3199.99999999819,0.0766337381895984,0.999999999994066,0.0517495931166129
3299.99999999809,0.0808196067071396,0.999999999999902,0.0544493989333358
3399.999999998,0.0853186567045839,0.999999999996014,0.0571060390982478
3499.99999999791,0.0898076417958089,0.999999999996162,0.0601144378112313
3599.99999999782,0.0941495541834244,0.999999999999633,0.0628526959681488
3699.99999999773,0.099063633583126,0.999999999994143,0.0658625288365426
3799.99999999764,0.103807496697585,0.999999999999182,0.0689582446223896
3899.99999999755,0.108523452079545,0.999999999997041,0.0718998392764039
3999.99999999746,0.113309239755408,0.999999999995256,0.0752426136125345
4099.99999999738,0.117936102313234,1,0.0783705683699789
4199.99999999775,0.123173662325497,0.99999999999459,0.0816772250182309
4299.99999999811,0.12827346187928,0.99999999999823,0.0852059402050292
4399.99999999848,0.133168296551513,0.999999999997961,0.0885033620322955
4499.99999999884,0.138255848480357,0.999999999994644,0.0922172705758862
4599.9999999992,0.143182324327029,1.00000000000003,0.0958153340857507
4699.99999999957,0.148560058094936,0.99999999999532,0.0994987164400666
4799.99999999993,0.153788292542552,0.999999999997189,0.103518857149218
4900.00000000029,0.158817780636188,0.999999999998688,0.10728997134827
5000.00000000066,0.1641789753457,0.999999999994404,0.111458051252031
5100.00000000102,0.169405395580387,0.999999999999656,0.115655401871475
5200.00000000139,0.174774860618847,0.999999999996236,0.119847533689797
5300.00000000175,0.180000480130643,0.999999999996269,0.124483144200172
5400.00000000211,0.185075234365228,0.99999999999931,0.128908957928276
5500.00000000248,0.190640966857349,0.999999999994612,0.133714913962423
5600.00000000284,0.196001194831537,0.999999999999022,0.138734956413467
5700.00000000321,0.201314600883661,0.999999999997281,0.143680214356466
5800.00000000357,0.206552796829566,0.999999999995726,0.149176967347393
5900.00000000393,0.211613574400134,1.00000000000005,0.154581130656292
6000.0000000043,0.217416120997911,0.999999999995583,0.160350280861586
6100.00000000466,0.22261705088421,0.999999999998998,0.166533670682906
6200.00000000502,0.227987824635065,0.999999999999228,0.172622425547309
6300.00000000539,0.233538571128163,0.999999999996954,0.179327385553022
6400.00000000575,0.238514041939343,1.00000000000262,0.18608075188623
6500.00000000612,0.245236059534155,0.99999999999967,0.193072330439483
6600.00000000648,0.250505058530638,1.00000000000256,0.200594266171641
6700.00000000684,0.256735608247103,1.00000000000573,0.207904089849724
6800.00000000721,0.264886489977419,1.00000000000423,0.215728000931303
6900.00000000757,0.271127962812218,1.00000000001133,0.223619335129006
7000.00000000793,0.282933277627509,1.00000000001162,0.23139873889592
7100.0000000083,0.293736223882499,1.00000000001488,0.239645956908022
7200.00000000866,0.307217303424581,1.00000000002223,0.247453712574363
7300.00000000903,0.330201207404164,1.0000000000213,0.255565560790402
7400.00000000939,0.35093055659493,1.00000000003085,0.263665017087383
7500.00000000975,0.386670319041282,1.00000000003329,0.271376925455609
7600.00000001012,0.430035235502918,1.00000000003594,0.279432146451996
7700.00000001048,0.480551850942958,1.00000000004373,0.286996358835616
7800.00000001084,0.559709987675422,1.00000000004704,0.294565817357728
7900.00000001121,0.644427589887853,1.00000000005419,0.302261584112975
8000.00000001157,0.760698923688553,1.00000000006116,0.309335576481581
8100.00000001194,0.909570586433185,1.00000000006462,0.316679546851266
8200.0000000123,1.0765625463001,1.0000000000748,0.323697634175082
8300.00000001266,1.30435412983899,1.00000000007659,0.330446473935951
8400.00000001303,1.56169785819874,1.0000000000866,0.337474107734284
8500.00000001339,1.87299325565905,1.00000000008826,0.343858139691084
8600.00000001376,2.260052714686,1.00000000009322,0.350411147507509
8700.00000001412,2.68639232953521,1.00000000010783,0.356834725187461
8800.00000001448,3.21338023094851,1.00000000010636,0.362787708303969
8900.00000001485,3.81270206515723,1.00000000011659,0.369070007346852
9000.00000001521,4.49107563823107,1.00000000012154,0.374783119159806
9100.00000001557,5.30010816616663,1.00000000011998,0.380556134138303
9200.00000001594,6.18147163936819,1.00000000013509,0.386396264166989
9300.0000000163,7.2021714799087,1.00000000013177,0.391594660720211
9400.00000001667,8.35205275439775,1.00000000014284,0.397084184675963
9500.00000001703,9.60604583826697,1.00000000015031,0.402236149106425
9600.00000001739,11.045868374017,1.00000000014577,0.407148962307506
9700.00000001776,12.601417499235,1.00000000015627,0.412375285042635
9800.00000001812,14.3260352442167,1.00000000015965,0.416863679300468
9900.00000001848,16.2408889860207,1.00000000016563,0.421600656366572
10000.0000000188,18.2842568415784,1.00000000016821,0.426311644947288
10100.0000000192,20.5571273051875,1.00000000017151,0.430381051797792
10200.0000000196,22.9950213862082,1.00000000017632,0.435010518782958
10300.0000000199,25.6185678697747,1.00000000017405,0.438975439414693
10400.0000000203,28.4865570038035,1.00000000019149,0.442843305015524
10500.0000000207,31.5073405462332,1.00000000018014,0.447168750020983
10600.000000021,34.7818719678243,1.00000000019452,0.45051597180779
10700.0000000214,38.2699366433368,1.0000000001908,0.454443273991012
10800.0000000218,41.9472199891165,1.00000000019886,0.45803969687686
10900.0000000221,45.9074466999732,1.00000000019762,0.461165064259816
11000.0000000225,50.044768403939,1.00000000019761,0.464989087551759
11100.0000000229,54.438251894985,1.00000000020918,0.467826138205492
11200.0000000232,59.0854271922727,1.00000000019783,0.471088120965276
11300.0000000236,63.9168484432557,1.00000000021829,0.47431951765804
11400.0000000239,69.0474483995368,1.00000000020622,0.476881004137931
11500.0000000243,74.3775203151926,1.00000000021935,0.480089401134921
11600.0000000247,79.9472371865585,1.00000000022005,0.482653957935004
11700.000000025,85.7964844429759,1.00000000020978,0.485194299963396
11800.0000000254,91.8209596503629,1.00000000022049,0.488208509690593
11900.0000000258,98.137476415524,1.00000000021231,0.490267802421094
12000.0000000261,104.670780056188,1.0000000002149,0.492814526020239
12100.0000000265,111.414312222874,1.00000000022919,0.495246252568362
12200.0000000269,118.444697818462,1.00000000021284,0.497068830868832
12300.0000000272,125.640840514017,1.00000000021045,0.49972227333039
12400.0000000276,133.100742531604,1.00000000021958,0.501578267977677
12500.0000000279,140.787501589116,1.00000000022053,0.503285042134596
12600.0000000283,148.647272615894,1.00000000021524,0.505746256457349
12700.0000000287,156.783032749501,1.00000000022144,0.50704582446009
12800.000000029,165.076023927692,1.00000000022029,0.508943093621858
12900.0000000294,173.588868711419,1.00000000021907,0.510780663626674
13000.0000000298,182.328804990273,1.00000000022061,0.512115066304271
13100.0000000301,191.203998546818,1.00000000021642,0.513954494644452
13200.0000000305,200.325675821255,1.00000000022153,0.515282344389921
13300.0000000309,209.596963280191,1.00000000023048,0.516565612550949
13400.0000000312,219.035660054425,1.00000000021,0.518202422673563
13500.0000000316,228.689076956713,1.00000000022356,0.51918102411622
13600.0000000319,238.444884333164,1.00000000021932,0.52064941080142
13700.0000000323,248.403808846612,1.00000000022123,0.521744710303843
13800.0000000327,258.502715638578,1.00000000022614,0.52267398316963
13900.000000033,268.715789886956,1.0000000002179,0.52396368647922
14000.0000000334,279.118280103218,1.00000000022264,0.524843890296678
14100.0000000338,289.595784713555,1.00000000021991,0.525909707298513
14200.0000000341,300.223997131305,1.00000000021378,0.526857829637353
14300.0000000345,310.977391269395,1.00000000022519,0.527442299692895
14400.0000000349,321.797204476466,1.00000000021533,0.528568428851001
14500.0000000352,332.76949749511,1.00000000022968,0.529181120621284
14600.0000000356,343.796019433372,1.00000000022322,0.529839849821892
14700.0000000359,354.91625160786,1.00000000022741,0.530468284722086
14800.0000000363,366.142746735084,1.00000000021627,0.531143683962695
14900.0000000367,377.394571389568,1.00000000021795,0.531848274146242
15000.000000037,388.755435296956,1.0000000002206,0.532318941678018
15100.0000000374,400.15072797367,1.00000000020544,0.533067377218246
15200.0000000378,411.588957493831,1.00000000022212,0.533276104094644
15300.0000000381,423.106560002538,1.00000000021245,0.533463632602734
15400.0000000385,434.614008067161,1.00000000021086,0.534423177755599
15500.0000000389,446.186922095532,1.00000000020555,0.534747248707566
15600.0000000392,457.776799084957,1.00000000021518,0.534795311820978
15700.0000000396,469.359943422376,1.0000000002089,0.535313785242335
15800.0000000399,480.99476380075,1.00000000021067,0.5352839699916
15900.0000000403,492.594111551226,1.00000000021098,0.535693226890917
16000.0000000407,504.210384718085,1.00000000020531,0.536088992749586
16100.000000041,515.826240572874,1.00000000020936,0.536431552018696
16200.0000000414,527.398430417148,1.00000000020254,0.536638166059422
16300.0000000418,538.987028491855,1.00000000021137,0.536284421154797
16400.0000000418,550.519155735816,1.00000000020277,0.536560602939531
16500.0000000404,562.027886014915,1.00000000019697,0.536898310731868
16600.0000000389,573.51692820587,1.00000000019583,0.536929631430278
16700.0000000375,584.92910241377,1.00000000020655,0.53731305989627
16800.000000036,596.326539017228,1.00000000019578,0.537143744811186
16900.0000000346,607.653087544661,1.00000000019798,0.53707633685548
17000.0000000331,618.915930092134,1.00000000020011,0.53693428008441
17100.0000000317,630.142121838076,1.00000000019847,0.536921660131656
17200.0000000302,641.268754842087,1.00000000018681,0.537187348662891
17300.0000000287,652.346706873489,1.00000000019124,0.537246168257859
17400.0000000273,663.341893400827,1.00000000019363,0.537011739663209
17500.0000000258,674.242924156158,1.00000000018904,0.537096204154428
17600.0000000244,685.086300080886,1.00000000019514,0.536484211873452
17700.0000000229,695.812260629374,1.00000000019635,0.536501715562381
17800.0000000215,706.461366730155,1.00000000019725,0.536313937501133
17900.00000002,717.015703892287,1.0000000001822,0.536333363261284
18000.0000000186,727.450873873237,1.00000000019523,0.536354165051184
18100.0000000171,737.807278542205,1.00000000019461,0.53611300675525
18200.0000000156,748.035317072492,1.00000000018474,0.535992282752499
18300.0000000142,758.158661966334,1.00000000018483,0.535711721055319
18400.0000000127,768.179224123083,1.00000000018582,0.535279792347124
18500.0000000113,778.060525142453,1.00000000017257,0.535272577514029
18600.0000000098,787.84532098385,1.00000000017562,0.534930901135614
18700.0000000084,797.49165875917,1.00000000018591,0.5346670518252
18800.0000000069,807.013333482012,1.00000000017365,0.534839246181002
18900.0000000055,816.422435539166,1.00000000018414,0.534438725763192
19000.000000004,825.68074032657,1.00000000017504,0.534408189356277
19100.0000000026,834.823791440275,1.00000000017366,0.533923309973096
19200.0000000011,843.824855592668,1.00000000017225,0.533527978013333
19299.9999999996,852.683669796828,1.00000000017524,0.533375472183368
19399.9999999982,861.421728018314,1.00000000016721,0.532793510272629
19499.9999999967,870.001038201453,1.0000000001749,0.532839424895899
19599.9999999953,878.451659631987,1.00000000017132,0.532608772848868
19699.9999999938,886.758550750054,1.00000000017336,0.53244069710638
19799.9999999924,894.911284433805,1.00000000016196,0.53237625463462
19899.9999999909,902.934839920445,1.00000000016899,0.531724197956436
19999.9999999895,910.796321684431,1.00000000016431,0.531588280608873
20099.999999988,918.517496442848,1.00000000016999,0.530998726971446
20199.9999999865,926.094646517206,1.00000000016353,0.530700451298289
20299.9999999851,933.510561929276,1.00000000016152,0.530490852443654
20399.9999999836,940.791249406456,1.0000000001627,0.53024378222077
20499.9999999822,947.910433427195,1.00000000016432,0.530130216951961
20599.9999999807,954.880469580207,1.00000000015348,0.530011085681865
20699.9999999793,961.70665016622,1.00000000015849,0.529552336327348
20799.9999999778,968.368034602915,1.00000000015266,0.529247746121162
20899.9999999764,974.889588329189,1.00000000015958,0.528767277073474
20999.9999999749,981.252241533472,1.00000000015181,0.528388776219924
21099.9999999734,987.460765617572,1.00000000015771,0.528233459669127
21199.999999972,993.527095772554,1.00000000015146,0.527907892389403
21299.9999999705,999.429207340724,1.00000000015358,0.527895004234434
21399.9999999691,1005.18900461607,1.00000000014966,0.527705241280393
21499.9999999676,1010.79351827873,1.00000000014631,0.527183705278259
21599.9999999662,1016.24239867831,1.00000000014534,0.52704616239799
21699.9999999647,1021.54996511207,1.00000000014515,0.526294235061621
21799.9999999633,1026.69619138918,1.00000000014688,0.525928869386365
21899.9999999618,1031.69836088282,1.00000000014623,0.52577540531176
21999.9999999603,1036.55094111222,1.00000000014825,0.525522944250672
22099.9999999589,1041.24946049364,1.00000000014104,0.526022187133354
22199.9999999574,1045.81020325203,1.00000000014761,0.525996786699568
22299.999999956,1050.21595204964,1.00000000014637,0.526069629205581
22399.9999999545,1054.48048734641,1.00000000014018,0.525717347683516
22499.9999999531,1058.60227274141,1.00000000013987,0.524593546975999
22599.9999999516,1062.57273449048,1.00000000013705,0.523871227261638
22699.9999999502,1066.40722212887,1.00000000013524,0.522634427154004
22799.9999999487,1070.09067681054,1.00000000013427,0.52206350414503
22899.9999999473,1073.63318178219,1.00000000013825,0.522231672098462
22999.9999999458,1077.0378417752,1.0000000001333,0.522858730852277
23099.9999999443,1080.29705803101,1.00000000013128,0.524482215629897
23199.9999999429,1083.42670946822,1.0000000001357,0.525428208489988
23299.9999999414,1086.41844421597,1.00000000013726,0.526177703251222
23399.99999994,1089.27836545122,1.00000000013387,0.525855263657805
23499.9999999385,1092.01214956681,1.00000000013388,0.523987170537836
23599.9999999371,1094.60828086591,1.00000000013117,0.521927331929325
23699.9999999356,1097.07628409655,1.00000000012737,0.51912641913858
23799.9999999342,1099.40727299177,1.00000000012754,0.516939402493863
23899.9999999327,1101.60109201911,1.0000000001271,0.516449379781368
23999.9999999312,1103.66564967411,1.00000000012089,0.517575460927463
24099.9999999298,1105.59446783369,1.0000000001255,0.520577301653064
24199.9999999283,1107.40178449664,1.00000000012352,0.524025878275094
24299.9999999269,1109.0908918747,1.00000000012511,0.527227767038444
24399.9999999254,1110.6655160013,1.00000000013297,0.529093429816942
24499.999999924,1112.13731280233,1.00000000013047,0.528639055453948
24599.9999999225,1113.49814547405,1.00000000012731,0.526163516752797
24699.9999999211,1114.75145178346,1.00000000013057,0.521437353521652
24799.9999999196,1115.89139192299,1.00000000011919,0.515564606586046
24899.9999999181,1116.9065391575,1.00000000011594,0.510655708783588
24999.9999999167,1117.80031738532,1.00000000010907,0.507851600032628
25099.9999999152,1118.5638579541,1.00000000010952,0.508672456345656
25199.9999999138,1119.20563352682,1.00000000010964,0.51328224014031
25299.9999999123,1119.736747999,1.0000000001144,0.519528131068546
25399.9999999109,1120.16335304481,1.0000000001234,0.526622634809429
25499.9999999094,1120.5062200801,1.00000000012619,0.532004474593021
25599.999999908,1120.76927579309,1.00000000013128,0.534854679127442
25699.9999999065,1120.96062791232,1.00000000013381,0.534351148483501
25799.9999999051,1121.0829051808,1.00000000013051,0.529578408285542
25899.9999999036,1121.12286781697,1.00000000012436,0.521774806358182
25999.9999999021,1121.07645907832,1.00000000011492,0.51180623451128
26099.9999999007,1120.92607343237,1.00000000010633,0.501860208454664
26199.9999998992,1120.66187585988,1.00000000009468,0.495710344577203
26299.9999998978,1120.28403979053,1.00000000009217,0.494871088782093
26399.9999998963,1119.78991998254,1.00000000009535,0.500208321782631
26499.9999998949,1119.1972559751,1.00000000010366,0.510175204236493
26599.9999998934,1118.52061175091,1.00000000011017,0.521317506932709
26699.999999892,1117.77831535217,1.0000000001292,0.531488797786728
26799.9999998905,1116.99120621292,1.000000000137,0.538545106098209
26899.999999889,1116.16635861354,1.00000000014331,0.541606978545393
26999.9999998876,1115.31216125408,1.00000000014208,0.53968425322247
27099.9999998861,1114.42373707495,1.00000000014024,0.532790117657323
27199.9999998847,1113.48857063675,1.00000000012908,0.521325457732596
27299.9999998832,1112.49376296916,1.00000000010989,0.506543116160719
27399.9999998818,1111.41740351618,1.00000000010148,0.491471443301876
27499.9999998803,1110.24651572851,1.00000000008043,0.479992887744663
27599.9999998789,1108.97414783889,1.00000000008053,0.475649356867192
27699.9999998774,1107.59833736989,1.00000000007749,0.480846228320241
27799.9999998759,1106.13651919512,1.00000000009302,0.493797192591136
27899.9999998745,1104.60331828344,1.00000000010658,0.50962074417354
27999.999999873,1103.02337974737,1.00000000012586,0.525462876305113
28099.9999998716,1101.41909390284,1.0000000001428,0.536915298142395
28199.9999998701,1099.803877563,1.00000000015859,0.545144050876027
28299.9999998687,1098.19237159448,1.00000000015278,0.547029342798449
28399.9999998672,1096.58316992722,1.00000000015818,0.544846992970164
28499.9999998658,1094.97300375505,1.00000000014838,0.536331850864708
28599.9999998643,1093.34882309206,1.00000000013687,0.522422021160585
28699.9999998629,1091.68926534252,1.00000000012117,0.504367292415902
28799.9999998614,1089.97639793159,1.00000000009547,0.483824931561878
