Time,AGPnorm,Energy,Entropy
0,0,1,-7.48228904819637e-17
99.9999999999986,0.000250779138735498,1.00000000000016,0.00101921839950392
199.999999999993,0.00169681023323737,1.00000000000148,0.00311346552656748
300,0.00350876307142278,1.00000000000176,0.00589354129654678
400.000000000022,0.00549579742713287,1.00000000000056,0.009345839393453
500.000000000045,0.00790464591289476,0.999999999999783,0.0135414424697465
600.000000000068,0.0111383808378016,1.00000000000085,0.0183921612718131
700.000000000091,0.0145985008627897,1.00000000000187,0.0237257819256163
800.000000000113,0.0185911244362731,1.00000000000127,0.029477387071445
900.000000000136,0.0229509928512825,0.999999999999929,0.0357002317410975
1000.00000000016,0.0276459362015024,1.00000000000015,0.0424248189904294
1100.0000000001,0.0329014027805708,1.00000000000156,0.0496717732691875
1200,0.0382304508336417,1.00000000000175,0.0573252020322792
1299.99999999991,0.0440134562401604,1.00000000000058,0.0654407088436476
1399.99999999982,0.0499488369209307,0.99999999999974,0.0740322154805136
1499.99999999973,0.056417444720037,1.00000000000094,0.0831945810887381
1599.99999999964,0.0626051165719175,1.00000000000191,0.0929572775769159
1699.99999999955,0.0692443687706236,1.0000000000013,0.103289910377513
1799.99999999946,0.0760468986715311,0.999999999999947,0.114294345730232
1899.99999999937,0.0829073432496224,1.00000000000036,0.126044440172318
1999.99999999928,0.08987341893944,1.00000000000186,0.138791097879657
2099.99999999919,0.0969137872137227,1.00000000000231,0.152535448733962
2199.99999999909,0.104199685854355,1.0000000000021,0.167480643215209
2299.999999999,0.111072537978342,1.00000000000308,0.183725273048795
2399.99999999891,0.118483009318225,1.00000000000758,0.2015385581783
2499.99999999882,0.127737946589849,1.00000000001447,0.220835447482325
2599.99999999873,0.14023848779032,1.00000000002367,0.24130129954403
2699.99999999864,0.155810358781925,1.00000000003569,0.262608705270393
2799.99999999855,0.180360875555152,1.00000000005458,0.284233490363669
2899.99999999846,0.228605650494659,1.00000000007874,0.305712741669548
2999.99999999837,0.315748661640554,1.00000000009527,0.326608764833781
3099.99999999828,0.455633325122904,1.00000000012455,0.346424935001139
3199.99999999819,0.671927284086888,1.00000000014978,0.364962103525678
3299.99999999809,1.00416249531774,1.00000000017806,0.382242881592342
3399.999999998,1.49530379225855,1.00000000020287,0.398230795959229
3499.99999999791,2.1800709657311,1.00000000022393,0.412849958371101
3599.99999999782,3.09527278552151,1.00000000025763,0.426103214427318
3699.99999999773,4.28338215999392,1.00000000027645,0.438189144391433
3799.99999999764,5.79127692872946,1.00000000028961,0.449168263742411
3899.99999999755,7.65813057151248,1.00000000030459,0.459306049910461
3999.99999999746,9.91430314066228,1.00000000031626,0.468379244838256
4099.99999999738,12.5811774856198,1.0000000003334,0.476392766304385
4199.99999999775,15.6771807158986,1.00000000034912,0.483574903407535
4299.99999999811,19.2224704498672,1.0000000003594,0.490313326435212
4399.99999999848,23.2320132421606,1.00000000036497,0.496123889703011
4499.99999999884,27.7055305405975,1.00000000036209,0.501144302135369
4599.9999999992,32.6241328354135,1.00000000037338,0.505646544766558
4699.99999999957,37.9765513629909,1.00000000039686,0.509659877284203
4799.99999999993,43.7634812308472,1.0000000003772,0.513183804200562
4900.00000000029,49.9706946019016,1.00000000037979,0.51602439742271
5000.00000000066,56.5581126148006,1.00000000039358,0.518475221033314
5100.00000000102,63.4855349235607,1.00000000040052,0.520575738587168
5200.00000000139,70.7349335454549,1.00000000036621,0.522527216186545
5300.00000000175,78.2919736388214,1.00000000037625,0.523881444610155
5400.00000000211,86.1158932273305,1.00000000038666,0.525005851140923
5500.00000000248,94.1491110795827,1.00000000039697,0.525919814326384
5600.00000000284,102.356801133443,1.0000000003621,0.526513513544849
5700.00000000321,110.726914389923,1.00000000036214,0.527071241766462
5800.00000000357,119.228075971189,1.00000000037306,0.527200175986041
5900.00000000393,127.805678475268,1.00000000037497,0.526653926277554
6000.0000000043,136.415030076039,1.00000000035379,0.526308149173181
6100.00000000466,145.037257381478,1.00000000034443,0.526723420762754
6200.00000000502,153.656192625362,1.0000000003552,0.526011281026088
6300.00000000539,162.232411705892,1.00000000034525,0.524572103427763
6400.00000000575,170.719582955415,1.00000000036103,0.523592021849327
6500.00000000612,179.091807661355,1.00000000034605,0.523915501127339
6600.00000000648,187.344348042753,1.00000000033924,0.522953174985588
6700.00000000684,195.455462692435,1.00000000033397,0.521012588270621
6800.00000000721,203.388272195141,1.00000000033609,0.519376927737678
6900.00000000757,211.115154473228,1.00000000031043,0.519256291112276
7000.00000000793,218.630565350098,1.00000000032212,0.518729726621526
7100.0000000083,225.931508182932,1.00000000030969,0.517059703383425
7200.00000000866,232.995315156638,1.00000000029383,0.515049730424252
7300.00000000903,239.800660335622,1.00000000030623,0.513764218582074
7400.00000000939,246.335392488174,1.00000000029923,0.513027200935459
7500.00000000975,252.603717438532,1.00000000029397,0.512331894114529
7600.00000001012,258.601741770814,1.00000000028379,0.510698183730648
7700.00000001048,264.312040465556,1.00000000029028,0.508669715318541
7800.00000001084,269.725672001194,1.00000000027262,0.508019708398683
7900.00000001121,274.848337148395,1.0000000002759,0.507699122690429
8000.00000001157,279.68639381276,1.00000000027556,0.507098845472277
8100.00000001194,284.23381826806,1.0000000002579,0.505140030119434
8200.0000000123,288.479586320847,1.0000000002525,0.501810138933631
8300.00000001266,292.421084402052,1.00000000025155,0.49941013582052
8400.00000001303,296.07033979953,1.00000000025954,0.499877060764272
8500.00000001339,299.439348000009,1.00000000026312,0.502977511584862
8600.00000001376,302.533317946939,1.00000000025272,0.50549085350766
8700.00000001412,305.35404027131,1.00000000025217,0.503632678138584
8800.00000001448,307.900815162881,1.00000000023338,0.496815543664758
8900.00000001485,310.170715838409,1.00000000021617,0.488385973872944
9000.00000001521,312.158600837373,1.00000000021084,0.484407382787631
9100.00000001557,313.870217849152,1.00000000021901,0.490570960789597
9200.00000001594,315.33494484211,1.00000000023072,0.502419531704694
9300.0000000163,316.591327260774,1.00000000022894,0.511412462595599
9400.00000001667,317.663417094625,1.00000000024015,0.511675057027343
9500.00000001703,318.544631137622,1.00000000022517,0.500405968919968
9600.00000001739,319.203059905419,1.00000000020758,0.481072038513132
9700.00000001776,319.609465170685,1.00000000017796,0.465070894390217
9800.00000001812,319.760618459325,1.00000000017031,0.465021676458945
9900.00000001848,319.690236824498,1.00000000018355,0.483097325317944
10000.0000000188,319.457439812488,1.00000000021542,0.506794107296137
10100.0000000192,319.122392721165,1.00000000024793,0.524011532525461
10200.0000000196,318.722968923628,1.00000000026037,0.527342205129868
10300.0000000199,318.254998713572,1.00000000024431,0.513984768977601
10400.0000000203,317.675539436004,1.0000000002039,0.484683470685011
10500.0000000207,316.922229800102,1.00000000015353,0.44897142520647
10600.000000021,315.954804971471,1.00000000012289,0.428077873184879
10700.0000000214,314.784656959691,1.00000000013499,0.43836529167308
10800.0000000218,313.468966378034,1.0000000001781,0.471787446219424
10900.0000000221,312.084391953097,1.00000000023408,0.506639896192809
11000.0000000225,310.694964971086,1.00000000027733,0.530595765545297
11100.0000000229,309.340908367308,1.00000000029162,0.53989292127329
11200.0000000232,308.025450825098,1.0000000002921,0.53302785855197
11300.0000000236,306.715593722581,1.00000000024558,0.507153494785675
11400.0000000239,305.349790379149,1.00000000019325,0.461990847806103
11500.0000000243,303.863433304265,1.00000000012597,0.410976246537085
11600.0000000247,302.222210294049,1.00000000009252,0.379083814163018
11700.000000025,300.43797614585,1.00000000010155,0.389196914857498
11800.0000000254,298.560000961712,1.00000000015409,0.433256844157638
11900.0000000258,296.64827892345,1.00000000021565,0.481538931482927
12000.0000000261,294.757756247033,1.00000000028821,0.516813538241156
12100.0000000265,292.928122544725,1.00000000031425,0.536091035316927
12200.0000000269,291.178690673305,1.00000000032222,0.543602055774926
12300.0000000272,289.50553809714,1.00000000031212,0.539057942629084
12400.0000000276,287.882942164864,1.00000000029117,0.516447766859879
12500.0000000279,286.267972774157,1.00000000022871,0.473356309947902
12600.0000000283,284.611805447896,1.00000000015911,0.415171547966392
12700.0000000287,282.874508752,1.0000000001035,0.357369678710133
12800.000000029,281.041793771325,1.00000000007516,0.325556946850939
12900.0000000294,279.130071965329,1.00000000009069,0.339015644458151
13000.0000000298,277.175234145553,1.00000000013563,0.387320776791678
13100.0000000301,275.214581029389,1.00000000020297,0.443462551004447
13200.0000000305,273.276788989148,1.0000000002707,0.487765684092332
13300.0000000309,271.382975656258,1.00000000030431,0.514979063524399
13400.0000000312,269.548917977549,1.00000000032245,0.528539948612984
13500.0000000316,267.78362302532,1.0000000003261,0.534101792489003
13600.0000000319,266.086230996341,1.00000000031794,0.534037764577894
13700.0000000323,264.445300477721,1.00000000029375,0.524486030463283
13800.0000000327,262.840132169359,1.00000000026159,0.499545807768654
13900.000000033,261.244368954276,1.00000000021605,0.457486828060025
14000.0000000334,259.631711878288,1.00000000017368,0.402988344981901
14100.0000000338,257.983599564188,1.00000000012276,0.347794735683861
14200.0000000341,256.295383068547,1.00000000009188,0.309512763861458
14300.0000000345,254.5774021664,1.00000000008121,0.301458179095177
14400.0000000349,252.848766003018,1.0000000001041,0.324675839161222
14500.0000000352,251.127142304321,1.00000000014911,0.371884449582807
14600.0000000356,249.422270032759,1.00000000020589,0.425583869732301
14700.0000000359,247.738078366131,1.00000000024469,0.468619893752144
14800.0000000363,246.077363228253,1.00000000027946,0.493418733153842
14900.0000000367,244.443806468684,1.00000000029821,0.503640331422308
15000.000000037,242.841719308362,1.00000000030926,0.507871370661764
15100.0000000374,241.275328652074,1.00000000032802,0.513597345913792
15200.0000000378,239.747113088809,1.00000000031286,0.521584796769573
15300.0000000381,238.256183468439,1.00000000031162,0.525150250229831
15400.0000000385,236.796724768119,1.00000000026793,0.518923548360347
15500.0000000389,235.358675299833,1.00000000024208,0.498457496587258
15600.0000000392,233.930788071725,1.00000000020361,0.464260239143309
15700.0000000396,232.504067689037,1.00000000017069,0.421293138010759
15800.0000000399,231.07522137884,1.00000000014849,0.378445292817171
15900.0000000403,229.647020717342,1.00000000012836,0.342442102578271
16000.0000000407,228.22742546565,1.00000000011671,0.319134998876515
16100.000000041,226.826717710571,1.00000000011467,0.315334190357834
16200.0000000414,225.453877201637,1.00000000011892,0.330717345824563
16300.0000000418,224.11383059714,1.00000000014794,0.356559413256589
16400.0000000418,222.804883414624,1.00000000017363,0.389550956237095
16500.0000000404,221.519762660313,1.00000000021908,0.429142289599854
16600.0000000389,220.24947305751,1.0000000002452,0.466418218391727
16700.0000000375,218.987884935502,1.00000000024606,0.492061955568804
16800.000000036,217.732695667789,1.00000000024689,0.500305225795904
16900.0000000346,216.484175970548,1.00000000024872,0.493643020533238
17000.0000000331,215.243098348269,1.00000000024561,0.481467913110978
17100.0000000317,214.009499982978,1.00000000026103,0.47588458455275
17200.0000000302,212.783439702766,1.00000000029358,0.483099255602159
17300.0000000287,211.565563275811,1.00000000029026,0.501560822210908
17400.0000000273,210.357785559025,1.0000000003114,0.520903127851972
17500.0000000258,209.162520974018,1.00000000030341,0.531199726597221
17600.0000000244,207.981335461638,1.00000000027969,0.527853345866014
17700.0000000229,206.813985322914,1.00000000025183,0.51067649792485
17800.0000000215,205.659573806587,1.00000000021373,0.481078172444325
17900.00000002,204.518710356002,1.00000000017284,0.441745672157779
18000.0000000186,203.395394883903,1.00000000012684,0.399708360510001
18100.0000000171,202.297688278407,1.00000000010364,0.363395807412027
18200.0000000156,201.23488267438,1.00000000010681,0.338311784600423
18300.0000000142,200.214279932592,1.00000000012279,0.326051584290144
18400.0000000127,199.238513733694,1.00000000013688,0.325975302940653
18500.0000000113,198.307393796898,1.00000000016084,0.339186140208043
18600.0000000098,197.418084894396,1.00000000016865,0.363007523370757
18700.0000000084,196.56690134233,1.00000000019076,0.389479201005804
18800.0000000069,195.744361513142,1.00000000020416,0.413898563921463
18900.0000000055,194.939501270787,1.0000000002288,0.435664014143149
19000.000000004,194.138564481972,1.00000000024254,0.456398427784267
19100.0000000026,193.33204040063,1.00000000026659,0.476248885868484
19200.0000000011,192.515179007252,1.00000000027604,0.493790679110216
19299.9999999996,191.689211444018,1.00000000025274,0.503791995590098
19399.9999999982,190.860171881018,1.0000000002318,0.500815117871131
19499.9999999967,190.03452260407,1.00000000020474,0.486628223703287
19599.9999999953,189.218562006904,1.00000000018002,0.467690720574721
19699.9999999938,188.413089506677,1.00000000018287,0.451247648368599
19799.9999999924,187.614191281326,1.00000000020037,0.445069667948738
19899.9999999909,186.813020358341,1.00000000024326,0.45141432342894
19999.9999999895,186.001147590639,1.00000000027172,0.467098360508736
20099.999999988,185.173360522871,1.0000000003141,0.487415750447969
20199.9999999865,184.329961426235,1.00000000032331,0.50880968367406
20299.9999999851,183.475241228971,1.00000000033026,0.524083636315587
20399.9999999836,182.614533841966,1.00000000030492,0.53118764504561
20499.9999999822,181.7532397563,1.00000000028342,0.529167289447356
20599.9999999807,180.896212836647,1.00000000026107,0.518509960997783
20699.9999999793,180.047991942261,1.00000000023768,0.498621908993574
20799.9999999778,179.21344269776,1.00000000020269,0.470995885555297
20899.9999999764,178.398939826089,1.00000000016068,0.440055445552452
20999.9999999749,177.61274301862,1.00000000013628,0.409273911902671
21099.9999999734,176.865479305079,1.00000000011387,0.380351272181186
21199.999999972,176.16779565917,1.0000000001027,0.35429564186472
21299.9999999705,175.52790057433,1.00000000010053,0.335521074418299
21399.9999999691,174.949112624577,1.00000000011748,0.327197398112556
21499.9999999676,174.428641683323,1.00000000014845,0.331316862344925
21599.9999999662,173.958077800888,1.00000000016898,0.347330300303897
21699.9999999647,173.525656069709,1.00000000018871,0.369656014173862
21799.9999999633,173.121808766354,1.0000000002067,0.392161172697898
21899.9999999618,172.738924268018,1.00000000022312,0.41271007690142
21999.9999999603,172.37017661078,1.00000000022154,0.430809290859999
22099.9999999589,172.009789114033,1.00000000022668,0.44623641058798
22199.9999999574,171.650903216914,1.00000000022627,0.459121435950994
22299.999999956,171.286378328245,1.00000000023633,0.468786743027424
22399.9999999545,170.910506587891,1.00000000025003,0.47647151953279
22499.9999999531,170.518218986234,1.00000000025109,0.483484759535657
22599.9999999516,170.105862803186,1.00000000025129,0.490481272416204
22699.9999999502,169.672591668131,1.0000000002569,0.498199278682787
22799.9999999487,169.220069790868,1.00000000025061,0.506386758952556
22899.9999999473,168.752742430404,1.00000000023469,0.512368951930905
22999.9999999458,168.277120967873,1.00000000022526,0.512376842179447
23099.9999999443,167.800640897337,1.00000000020373,0.504745474310136
23199.9999999429,167.329944419212,1.00000000017853,0.493548034830346
23299.9999999414,166.869396141902,1.00000000017738,0.483440358259693
23399.99999994,166.419844014693,1.00000000017617,0.477278694639312
23499.9999999385,165.976646851657,1.00000000019324,0.474363844724986
23599.9999999371,165.533126623501,1.00000000021176,0.472463298683135
23699.9999999356,165.082035069721,1.00000000022451,0.471144384333156
23799.9999999342,164.618454815639,1.0000000002364,0.471407898420516
23899.9999999327,164.139356751699,1.00000000024294,0.474135806343271
23999.9999999312,163.642746056195,1.00000000026862,0.478626844596631
24099.9999999298,163.127353881281,1.00000000027481,0.48764356117072
24199.9999999283,162.592359938831,1.00000000030647,0.50068780427738
24299.9999999269,162.039146762485,1.00000000030528,0.515604771759128
24399.9999999254,161.470600781578,1.00000000030996,0.527972614714669
24499.999999924,160.891040882074,1.00000000029828,0.534860905845875
24599.9999999225,160.305274151487,1.00000000027163,0.536014004681414
24699.9999999211,159.71864681104,1.00000000026121,0.529264465482649
24799.9999999196,159.136942880457,1.00000000022781,0.515434668240007
24899.9999999181,158.566336927095,1.00000000020396,0.495188258301012
24999.9999999167,158.014215485945,1.00000000016879,0.470370434562678
25099.9999999152,157.48923794936,1.00000000014433,0.442957792278202
25199.9999999138,157.001146618842,1.00000000012685,0.417462590576062
25299.9999999123,156.558979736277,1.00000000011214,0.397027588200982
25399.9999999109,156.169379706783,1.00000000011477,0.380345593837436
25499.9999999094,155.836385478531,1.00000000012355,0.367670079838271
25599.999999908,155.561654593836,1.00000000012716,0.358093804839426
25699.9999999065,155.345807300189,1.00000000013153,0.351850079135533
25799.9999999051,155.188282283963,1.00000000014558,0.35069030272953
25899.9999999036,155.08580239807,1.00000000015415,0.354385043880177
25999.9999999021,155.031339270964,1.00000000016374,0.364103843377455
26099.9999999007,155.013781819136,1.0000000001928,0.379442588649665
26199.9999998992,155.018677887077,1.00000000021241,0.397808330088082
26299.9999998978,155.030890574174,1.00000000023225,0.415859901123295
26399.9999998963,155.038081306328,1.00000000024914,0.432259978581241
26499.9999998949,155.03292809614,1.00000000026229,0.447504497945486
26599.9999998934,155.012772233501,1.00000000025032,0.461326806590112
26699.999999892,154.97854517911,1.00000000024525,0.473035776954553
26799.9999998905,154.933022444926,1.00000000023952,0.482182635733797
26899.999999889,154.880289402358,1.00000000022561,0.487930114687886
26999.9999998876,154.825152105004,1.00000000021307,0.490397132357271
27099.9999998861,154.77182715743,1.0000000001954,0.49066283005125
27199.9999998847,154.722309067341,1.00000000019269,0.489455259694964
27299.9999998832,154.675778373045,1.00000000019171,0.488136624990653
27399.9999998818,154.628434458987,1.00000000019682,0.487791926215339
27499.9999998803,154.574057348494,1.00000000021927,0.489728645839258
27599.9999998789,154.505340842439,1.00000000024073,0.495031140214298
27699.9999998774,154.415290991044,1.00000000024429,0.502831680623278
27799.9999998759,154.298768244698,1.00000000025328,0.508872641334391
27899.9999998745,154.153654057275,1.00000000026797,0.511412293243798
27999.999999873,153.980132908312,1.000000000264,0.510566302172183
28099.9999998716,153.780021537776,1.00000000026206,0.508695620886376
28199.9999998701,153.556030131481,1.00000000025671,0.509146430006257
28299.9999998687,153.311796568581,1.00000000025281,0.51371627217616
28399.9999998672,153.052045221654,1.00000000024575,0.519451648969469
28499.9999998658,152.782153110472,1.00000000022966,0.520252781011271
28599.9999998643,152.507758512861,1.00000000021166,0.514597831759982
28699.9999998629,152.23417150528,1.00000000019221,0.505813757086507
28799.9999998614,151.966046058125,1.00000000017987,0.497627499305161
28899.9999998599,151.706423343663,1.00000000017455,0.492470439613047
28999.9999998585,151.456270729958,1.00000000017393,0.490849386869136
