Time,AGPnorm,Energy,Entropy
0,0,1,3.71063570025229e-18
99.9999999999986,0.00530208279217832,1.00000000000226,0.0166308420103991
199.999999999993,0.0150057396832354,1.00000000000026,0.0481293178337341
300,0.030562717427359,1.0000000000021,0.0944832551499617
400.000000000022,0.046632991312614,1.0000000000043,0.156281903249485
500.000000000045,0.0620358673838688,1.00000000007436,0.244386432847411
600.000000000068,0.111551985973013,1.00000000050728,0.355724174522254
700.000000000091,0.311771244537359,1.00000000128476,0.451367609366356
800.000000000113,1.05274820218738,1.0000000017741,0.514083592111323
900.000000000136,2.55087053258734,1.00000000202364,0.549477585529326
1000.00000000016,4.86081425801662,1.00000000220268,0.56699081348239
1100.0000000001,7.82414713137529,1.00000000225999,0.572919190353017
1200,11.108374228579,1.0000000021023,0.57223075131626
1299.99999999991,14.4589538775505,1.00000000217522,0.567985410143472
1399.99999999982,17.5795346390121,1.00000000185842,0.561410403574581
1499.99999999973,20.3138086779357,1.0000000017054,0.550285089439326
1599.99999999964,22.5451735806872,1.00000000164386,0.546389066839655
1699.99999999955,24.2323561038995,1.00000000152826,0.535477064029611
1799.99999999946,25.4218637973409,1.00000000143648,0.535756364026051
1899.99999999937,26.0834531852566,1.00000000123474,0.526188365343024
1999.99999999928,26.4069075141445,1.0000000012235,0.531300022387047
2099.99999999919,26.2997457188083,1.00000000100062,0.496460412261435
2199.99999999909,26.0463550542103,1.00000000162509,0.567226238446195
2299.999999999,25.5926277732413,1.00000000071886,0.421375292993779
2399.99999999891,24.9518111147382,1.0000000016742,0.550299912847645
2499.99999999882,24.3956148503275,1.00000000159241,0.550052720945668
2599.99999999873,23.7343845988021,1.0000000005558,0.362970843774257
2699.99999999864,22.9826634469004,1.00000000144662,0.507107385094789
2799.99999999855,22.3172531685929,1.00000000185221,0.576446439211157
2899.99999999846,21.7165360629157,1.00000000118585,0.45669894786083
2999.99999999837,21.0703111996273,1.00000000069107,0.342288613377385
3099.99999999828,20.4172297301604,1.00000000140484,0.491509550375775
3199.99999999819,19.7960586711098,1.0000000017183,0.539696357798072
3299.99999999809,19.2413939528057,1.00000000166945,0.566186204851871
3399.999999998,18.7177155047976,1.00000000085129,0.421252960333977
3499.99999999791,18.2311321608684,1.00000000076941,0.343798583283179
3599.99999999782,17.7844134789626,1.00000000138662,0.466921486542579
3699.99999999773,17.3346932287251,1.00000000143477,0.539274791673183
3799.99999999764,16.9004819038359,1.00000000130883,0.504882425775141
3899.99999999755,16.4712668162885,1.00000000184887,0.563476929928064
3999.99999999746,16.0659376893248,1.00000000154358,0.547104292872319
4099.99999999738,15.7057774980634,1.00000000069178,0.397855940061815
4199.99999999775,15.4477799940614,1.00000000072053,0.344106733834466
4299.99999999811,15.2556577548844,1.00000000130076,0.44786206667184
4399.99999999848,15.045958789982,1.00000000162207,0.520271919145764
4499.99999999884,14.7998497157042,1.00000000145547,0.549743132588171
4599.9999999992,14.5536755283258,1.00000000108088,0.524409404896599
4699.99999999957,14.317329892941,1.00000000120654,0.521980505408986
4799.99999999993,14.0600770681988,1.00000000160777,0.532693751141135
4900.00000000029,13.7861773945493,1.00000000183878,0.578109090665181
5000.00000000066,13.5188423994206,1.00000000138285,0.555577343845222
5100.00000000102,13.2942375377793,1.00000000068549,0.435112252881678
5200.00000000139,13.1806904532063,1.00000000063731,0.358641424522454
5300.00000000175,13.1889499605722,1.00000000096028,0.380495725635406
5400.00000000211,13.2353955583234,1.00000000137972,0.464306925026527
5500.00000000248,13.2306777421912,1.0000000014217,0.529468775797731
5600.00000000284,13.1944245811652,1.0000000012548,0.536376840120653
5700.00000000321,13.1402715671044,1.00000000132341,0.541308573570247
5800.00000000357,13.0506214218815,1.00000000140767,0.557157093727005
5900.00000000393,12.9364860447687,1.00000000135833,0.532020032464409
6000.0000000043,12.8160042898995,1.00000000124751,0.545471710394362
6100.00000000466,12.6941407835215,1.00000000117549,0.543907482200521
6200.00000000502,12.5771917054135,1.00000000117764,0.545961332286781
6300.00000000539,12.4460953424865,1.00000000144245,0.552637619096523
6400.00000000575,12.2934482376916,1.00000000158236,0.554198672953784
6500.00000000612,12.1237910766595,1.00000000187106,0.570028878752832
6600.00000000648,11.9480347200247,1.00000000172254,0.584245951316001
6700.00000000684,11.7786433138488,1.00000000114889,0.536925085373951
6800.00000000721,11.6484805536832,1.00000000073031,0.450065748040016
6900.00000000757,11.617702006907,1.00000000063448,0.378325907080827
7000.00000000793,11.7215355672852,1.00000000082237,0.378872516545144
7100.0000000083,11.9252497506935,1.00000000110015,0.407224891060649
7200.00000000866,12.1443716352837,1.00000000142478,0.467759754806779
7300.00000000903,12.3292480181595,1.00000000137564,0.510491371653386
7400.00000000939,12.4701585640305,1.00000000149163,0.548107590662876
7500.00000000975,12.5745920393777,1.00000000136827,0.55390833584445
7600.00000001012,12.6467259074955,1.00000000148183,0.571979906524596
7700.00000001048,12.6807328664227,1.00000000146436,0.587878129175614
7800.00000001084,12.6769843529482,1.00000000143804,0.585316790660273
7900.00000001121,12.650323594976,1.00000000135833,0.569838697081379
8000.00000001157,12.6112760915123,1.00000000135117,0.561487701426032
8100.00000001194,12.565764714701,1.00000000141267,0.560340763655101
8200.0000000123,12.5096653881871,1.00000000144999,0.54629832868839
8300.00000001266,12.4515477444064,1.00000000135232,0.549550813775366
8400.00000001303,12.3961554257794,1.00000000127733,0.556663771932075
8500.00000001339,12.3450245552122,1.00000000130955,0.552899765685418
8600.00000001376,12.2920735160594,1.00000000133743,0.562748824306755
8700.00000001412,12.2375274040621,1.00000000139013,0.570278923746592
8800.00000001448,12.177299540197,1.0000000013566,0.567692971477122
8900.00000001485,12.1099361794726,1.00000000142878,0.56595585242564
9000.00000001521,12.0310782639707,1.00000000143126,0.575225545211509
9100.00000001557,11.9437364928526,1.00000000136093,0.603084961404742
9200.00000001594,11.8532409418859,1.00000000124428,0.595219041835583
9300.0000000163,11.7649582817795,1.00000000120476,0.595236938615823
9400.00000001667,11.6724126029412,1.00000000136284,0.595235201051341
9500.00000001703,11.5730034040147,1.00000000151457,0.596686264359435
9600.00000001739,11.468139287587,1.00000000168579,0.602153434650866
9700.00000001776,11.3635296782591,1.00000000184099,0.599715021046856
9800.00000001812,11.2640896856824,1.00000000195631,0.600717433683045
9900.00000001848,11.1662964071914,1.00000000174072,0.592854645039428
10000.0000000188,11.0633593156764,1.00000000145016,0.573897087517373
10100.0000000192,10.9563648147016,1.00000000110736,0.523990643092792
10200.0000000196,10.8696046214261,1.00000000083694,0.461810038030536
10300.0000000199,10.8448829362952,1.00000000073385,0.414622888055791
10400.0000000203,10.9256850248723,1.00000000073286,0.383619958572754
10500.0000000207,11.1243932437575,1.00000000080832,0.390565556993196
10600.000000021,11.4286724569894,1.00000000116003,0.41004461827306
10700.0000000214,11.7776154018627,1.00000000135762,0.442113737356535
10800.0000000218,12.1355980690312,1.00000000144877,0.474289578232761
10900.0000000221,12.4617558224891,1.00000000153432,0.506194879065599
11000.0000000225,12.759029708306,1.00000000144801,0.521962082089887
11100.0000000229,13.0192011113055,1.00000000143854,0.549446104483758
11200.0000000232,13.2454515179248,1.00000000148417,0.566142171912303
11300.0000000236,13.4416227727554,1.00000000149579,0.576346068968705
11400.0000000239,13.6042684319608,1.00000000157373,0.588420530348903
11500.0000000243,13.7352839936252,1.00000000139072,0.599121233778778
11600.0000000247,13.8318276520138,1.00000000151125,0.61161221836403
11700.000000025,13.8972815399574,1.0000000015699,0.61536316952653
11800.0000000254,13.9372716696111,1.0000000013753,0.612307106580675
11900.0000000258,13.9610187020798,1.0000000013903,0.610934121032251
12000.0000000261,13.9690218072881,1.00000000151139,0.607748359892908
12100.0000000265,13.966975600597,1.00000000137916,0.597140001895318
12200.0000000269,13.9574064417828,1.00000000150272,0.595020500318181
12300.0000000272,13.9314263569434,1.00000000144409,0.595523805160599
12400.0000000276,13.9010851867382,1.00000000134926,0.583912234654031
12500.0000000279,13.8631959022381,1.00000000152368,0.598059285540188
12600.0000000283,13.8141703213301,1.00000000141118,0.593611041877235
12700.0000000287,13.7602536803112,1.00000000143268,0.603327096711266
12800.000000029,13.7012096519655,1.00000000145756,0.605814052636445
12900.0000000294,13.6366216888455,1.00000000159482,0.619335795275638
13000.0000000298,13.5685676931856,1.00000000132532,0.6112930515413
13100.0000000301,13.5041045422071,1.00000000136347,0.597029953842865
13200.0000000305,13.4456014877679,1.00000000135525,0.581705244890088
13300.0000000309,13.3937890738383,1.00000000137847,0.57314672986545
13400.0000000312,13.3448647005568,1.00000000159622,0.580916089391397
13500.0000000316,13.295732665395,1.00000000144535,0.586908160877713
13600.0000000319,13.2473722315879,1.00000000153026,0.58081053492498
13700.0000000323,13.1984418792669,1.00000000149678,0.584978488090788
13800.0000000327,13.1510437681681,1.00000000142325,0.589905322814102
13900.000000033,13.110478381347,1.00000000140824,0.586450858267356
14000.0000000334,13.0682138836835,1.00000000165949,0.577213988125741
14100.0000000338,13.0267835528925,1.00000000143984,0.586693272152577
14200.0000000341,12.9933533113442,1.00000000133916,0.578226364659285
14300.0000000345,12.9663739105155,1.0000000014722,0.562831795496196
14400.0000000349,12.9390299470015,1.00000000151426,0.557978411976248
14500.0000000352,12.9093625495519,1.00000000151256,0.569371579206209
14600.0000000356,12.8816648952819,1.00000000141042,0.578867830909801
14700.0000000359,12.8532844175984,1.00000000150033,0.596842399435524
14800.0000000363,12.8246124078617,1.0000000014308,0.610394974542831
14900.0000000367,12.7975016273736,1.00000000140419,0.606879610226466
15000.000000037,12.7709866958333,1.00000000153284,0.592601984791992
15100.0000000374,12.7402579862735,1.00000000163833,0.59248823242501
15200.0000000378,12.7104264617146,1.00000000137641,0.605902760646871
15300.0000000381,12.6811036143861,1.00000000157781,0.613751401263989
15400.0000000385,12.6460896636136,1.00000000159401,0.618613742161894
15500.0000000389,12.6077400831993,1.00000000138304,0.622634795454904
15600.0000000392,12.5683417710223,1.00000000147783,0.621501851166337
15700.0000000396,12.5258909359792,1.00000000152138,0.623606267212789
15800.0000000399,12.480734073787,1.00000000154436,0.617399800409459
15900.0000000403,12.433577962926,1.00000000148484,0.60795082697851
16000.0000000407,12.3836005195883,1.00000000156023,0.615992544082669
16100.000000041,12.3349816789708,1.00000000140361,0.622514431376704
16200.0000000414,12.2919609046421,1.00000000139796,0.61806340715581
16300.0000000418,12.2498493508969,1.00000000160495,0.61919179766487
16400.0000000418,12.2033153265878,1.00000000166725,0.615879840772728
16500.0000000404,12.1536559720475,1.00000000147301,0.625270777681849
16600.0000000389,12.1070573337141,1.00000000131736,0.627102504750805
16700.0000000375,12.0589445663639,1.00000000164858,0.628626198687028
16800.000000036,12.007885840691,1.00000000149504,0.617741958746127
16900.0000000346,11.9587999199854,1.00000000145581,0.61841768776369
17000.0000000331,11.9102850171544,1.00000000156576,0.616569729084931
17100.0000000317,11.8610912774565,1.0000000014868,0.621716972327489
17200.0000000302,11.8116132267721,1.00000000150373,0.625982120165512
17300.0000000287,11.7600849790885,1.00000000155178,0.627190401638046
17400.0000000273,11.705846005274,1.00000000167773,0.625829624630118
17500.0000000258,11.648607122895,1.00000000151743,0.624498767526254
17600.0000000244,11.5897347622306,1.00000000161562,0.636435458509613
17700.0000000229,11.5296445438694,1.00000000160978,0.639306858592258
17800.0000000215,11.4704101150608,1.00000000151031,0.63225415446687
17900.00000002,11.4107121125349,1.00000000166535,0.650062125467729
18000.0000000186,11.3490620079045,1.00000000167974,0.636179302066508
18100.0000000171,11.2876598227916,1.0000000016664,0.644064288924902
18200.0000000156,11.2265393964242,1.00000000139239,0.629557519460753
18300.0000000142,11.1658426985046,1.0000000015678,0.641275536110214
18400.0000000127,11.1059815523976,1.00000000146616,0.647188241615223
18500.0000000113,11.0467909000871,1.0000000013036,0.629866178619443
18600.0000000098,10.9882797431808,1.00000000142141,0.637293957263775
18700.0000000084,10.9311381269684,1.00000000149925,0.6403416522397
18800.0000000069,10.8760455137555,1.00000000150012,0.639777775665377
18900.0000000055,10.8247577161881,1.00000000160914,0.635189075094317
19000.000000004,10.779759835557,1.00000000167043,0.648947747873677
19100.0000000026,10.742710185782,1.0000000016866,0.643343947449075
19200.0000000011,10.7200450809375,1.00000000185053,0.650971794907687
19299.9999999996,10.7087376483678,1.00000000187021,0.6472180294157
19399.9999999982,10.7232703962179,1.00000000193578,0.643247416629724
19499.9999999967,10.7497642566536,1.00000000201613,0.649319292286406
19599.9999999953,10.8074645160922,1.00000000197394,0.642050118343144
19699.9999999938,10.8690601323406,1.00000000206914,0.634783678674127
19799.9999999924,10.9524712523827,1.00000000201616,0.619858123357372
19899.9999999909,11.0207437737515,1.00000000176373,0.60963298677842
19999.9999999895,11.0779266061412,1.00000000159104,0.598796587993283
20099.999999988,11.1018462103797,1.0000000013131,0.576564000283453
20199.9999999865,11.0956182596943,1.00000000124193,0.545540207398744
20299.9999999851,11.0646525864575,1.00000000115203,0.513427382576725
20399.9999999836,11.0201952203114,1.00000000100045,0.48319236808333
20499.9999999822,10.9851640361197,1.00000000104397,0.450841692494097
20599.9999999807,10.9839555770424,1.00000000088751,0.4273603134452
20699.9999999793,11.0441439117631,1.00000000082927,0.409719136818075
20799.9999999778,11.1843421339329,1.00000000089959,0.397879611186202
20899.9999999764,11.4302930494073,1.0000000009404,0.40157988059588
20999.9999999749,11.7637191451313,1.0000000010383,0.406981407804426
21099.9999999734,12.2133634681782,1.00000000114832,0.411976858792664
21199.999999972,12.7150211123266,1.00000000134226,0.420223267528216
21299.9999999705,13.3001698394715,1.00000000144866,0.43723434907553
21399.9999999691,13.893217294701,1.00000000158678,0.448270286371689
21499.9999999676,14.5120752699935,1.0000000015807,0.463089763782635
21599.9999999662,15.1189617152582,1.00000000167283,0.475613114824568
21699.9999999647,15.7081925784228,1.00000000164952,0.49179985145141
21799.9999999633,16.289765709457,1.00000000173579,0.502485451092451
21899.9999999618,16.8319426520285,1.00000000169926,0.512423900344947
21999.9999999603,17.3703425875508,1.00000000166961,0.527051008701219
22099.9999999589,17.8720481142438,1.00000000166212,0.535835607264214
22199.9999999574,18.3566132779423,1.00000000171726,0.541273200952639
22299.999999956,18.8117440950592,1.00000000162363,0.559243708524817
22399.9999999545,19.2461828085165,1.00000000161838,0.571333679850501
22499.9999999531,19.6662327088515,1.00000000161536,0.577240582358092
22599.9999999516,20.0494661764363,1.00000000174818,0.591542238796893
22699.9999999502,20.4188190723215,1.00000000161704,0.61289767876119
22799.9999999487,20.7527294336289,1.00000000167571,0.615046905580598
22899.9999999473,21.0642182790912,1.00000000176416,0.611825295092424
22999.9999999458,21.3387855098052,1.0000000016975,0.631476964881067
23099.9999999443,21.5824994339913,1.00000000202063,0.636152338949993
23199.9999999429,21.801898452918,1.00000000180899,0.637781593980804
23299.9999999414,21.9896753577792,1.00000000175658,0.631907939620472
23399.99999994,22.1588533600684,1.00000000172001,0.643780748271459
23499.9999999385,22.2985012695801,1.00000000164499,0.645403966613152
23599.9999999371,22.4272762494508,1.00000000158256,0.643014397219309
23699.9999999356,22.534983823724,1.00000000172083,0.635229532925072
23799.9999999342,22.6268176636384,1.00000000183539,0.643863473023955
23899.9999999327,22.7022311001823,1.00000000165103,0.646744366512839
23999.9999999312,22.7609217400861,1.00000000174026,0.646253763747178
24099.9999999298,22.8127237540868,1.00000000161911,0.638010246921795
24199.9999999283,22.8566053835104,1.0000000017333,0.637812635133942
24299.9999999269,22.8985592082581,1.00000000158922,0.634640292139787
24399.9999999254,22.92823891265,1.00000000174615,0.640472700408187
24499.999999924,22.9427296143755,1.00000000168067,0.647207681699554
24599.9999999225,22.9394331244613,1.00000000177921,0.650532074098093
24699.9999999211,22.9333178485511,1.00000000147706,0.624743590927971
24799.9999999196,22.9314060728286,1.00000000152602,0.616206713482725
24899.9999999181,22.9287797645841,1.00000000160445,0.622791996082188
24999.9999999167,22.9216790970289,1.0000000017597,0.627223828102966
25099.9999999152,22.9075128112851,1.00000000171761,0.617456076807575
25199.9999999138,22.8890560952779,1.0000000019001,0.6304676742892
25299.9999999123,22.8635490088869,1.00000000167373,0.641784436089101
25399.9999999109,22.8350987423842,1.0000000015917,0.633229478852907
25499.9999999094,22.8098157747148,1.00000000147088,0.601288890827902
25599.999999908,22.7892951405873,1.00000000141044,0.591051414614988
25699.9999999065,22.7660107748506,1.00000000186039,0.605069238946001
25799.9999999051,22.7331672146005,1.00000000166857,0.601204489063445
25899.9999999036,22.6941882034122,1.00000000192786,0.614270955040208
25999.9999999021,22.6536707193975,1.00000000153592,0.606361471589127
26099.9999999007,22.6175233230068,1.0000000018437,0.616645928930402
26199.9999998992,22.5816632441941,1.00000000165676,0.636617619417797
26299.9999998978,22.5404122308276,1.0000000018153,0.645236657051391
26399.9999998963,22.4955715057652,1.0000000017293,0.642007188354349
26499.9999998949,22.4511642885448,1.00000000158617,0.626041961109236
26599.9999998934,22.4112950461261,1.0000000014159,0.612502878922663
26699.999999892,22.3740936932149,1.00000000160258,0.616958069631096
26799.9999998905,22.3377147982917,1.00000000175065,0.625647608966896
26899.999999889,22.3023353308078,1.00000000167308,0.617834460224757
26999.9999998876,22.2744023317428,1.0000000015877,0.601415011093864
27099.9999998861,22.2498335413919,1.00000000162084,0.626674246661624
27199.9999998847,22.2181054772387,1.000000001996,0.638609766530053
27299.9999998832,22.1789920067366,1.0000000017384,0.627099792049382
27399.9999998818,22.1392074066048,1.00000000152882,0.610124916981687
27499.9999998803,22.1070207971923,1.00000000154564,0.613877326157279
27599.9999998789,22.0756768000426,1.00000000185089,0.642540705754988
27699.9999998774,22.0369564276986,1.00000000172788,0.639007313688679
27799.9999998759,21.9944716470847,1.00000000173401,0.63116156722611
27899.9999998745,21.9550870268346,1.00000000157951,0.619611917472482
27999.999999873,21.920216105588,1.00000000165439,0.623674693118696
28099.9999998716,21.8869912020497,1.00000000200824,0.6132243919805
28199.9999998701,21.8529838966645,1.00000000170173,0.632172206727173
28299.9999998687,21.8126935898608,1.00000000189284,0.628183219622184
28399.9999998672,21.7729947398862,1.00000000152295,0.614233398519059
28499.9999998658,21.736648071078,1.00000000164631,0.626481756892378
28599.9999998643,21.7002033176446,1.00000000160956,0.624504855286602
28699.9999998629,21.6627972869735,1.00000000171556,0.631820191400069
28799.9999998614,21.6220941595415,1.00000000171605,0.624275825044074
28899.9999998599,21.5789255077265,1.00000000162918,0.630157734343423
28999.9999998585,21.5337645239448,1.0000000017826,0.641496207409574
29099.999999857,21.4871363726204,1.0000000020256,0.628582616667605
