Time,AGPnorm,Energy,Entropy
0,0,1,-1.48759118270905e-17
99.9999999999986,2.62283516939657e-05,0.99999999999735,0.0011058977867812
199.999999999993,0.00233985629633302,1.00000000000029,0.00178062955187148
300,0.00571696550495753,0.999999999998505,0.00306507678767293
400.000000000022,0.00799754204059359,0.999999999998331,0.00529699673547765
500.000000000045,0.00967788988818893,1.00000000000029,0.00703468441654902
600.000000000068,0.0137811380591785,0.99999999999745,0.00979670810964513
700.000000000091,0.0169423135164402,0.999999999999833,0.0126013374433971
800.000000000113,0.0218126249317567,0.99999999999914,0.0153799026303128
900.000000000136,0.0273821159674218,0.999999999997883,0.019000260126416
1000.00000000016,0.0314895289052291,1.00000000000029,0.0222746809977225
1100.0000000001,0.0376028446742894,0.9999999999978,0.0260743822002379
1200,0.0442398888157079,0.99999999999933,0.0302054805194281
1299.99999999991,0.0511277458223472,0.999999999999654,0.0341318744540473
1399.99999999982,0.0584821319094585,0.999999999997602,0.0387811764760706
1499.99999999973,0.0649093344211463,1.00000000000008,0.0432827397670324
1599.99999999964,0.0729811326812363,0.999999999998351,0.0480355149542076
1699.99999999955,0.0819493864911773,0.999999999998853,0.0533254387461967
1799.99999999946,0.0902665464521416,0.999999999999913,0.0583916437672745
1899.99999999937,0.098835210790741,0.999999999997549,0.0640313550752764
1999.99999999928,0.107366651635253,0.99999999999977,0.0697726276461474
2099.99999999919,0.116924920973121,0.999999999998979,0.0756490276165617
2199.99999999909,0.127053880702435,0.99999999999843,0.0821963438507936
2299.999999999,0.136111960826784,0.999999999999922,0.0886060562964371
2399.99999999891,0.145448853325679,0.999999999997761,0.0955048007775447
2499.99999999882,0.155589902532561,0.999999999999414,0.102828493035019
2599.99999999873,0.16597923127411,0.999999999999496,0.110292739844566
2699.99999999864,0.176316956275934,0.9999999999981,0.118592268928147
2799.99999999855,0.185668718104616,0.999999999999799,0.126997582200655
2899.99999999846,0.195499805038581,0.999999999998313,0.136028987309469
2999.99999999837,0.206279463370231,0.999999999999421,0.146029852804412
3099.99999999828,0.216778692135093,1.0000000000006,0.156496369233617
3199.99999999819,0.226710562696721,1.00000000000022,0.168258369413658
3299.99999999809,0.235719010252014,1.00000000000535,0.180816709438189
3399.999999998,0.246654452423789,1.00000000001076,0.194382499363221
3499.99999999791,0.256523105650166,1.00000000002078,0.209372737634792
3599.99999999782,0.267067449314708,1.00000000003921,0.224516242898222
3699.99999999773,0.280796081701599,1.00000000005825,0.240335182343371
3799.99999999764,0.290396568001984,1.0000000000872,0.256154369015489
3899.99999999755,0.315296023974413,1.00000000012031,0.271589711854635
3999.99999999746,0.342815766132632,1.00000000015301,0.287383494833366
4099.99999999738,0.381112567885749,1.00000000019297,0.30227673923737
4199.99999999775,0.454714432502541,1.00000000022778,0.316937087121128
4299.99999999811,0.538378044694837,1.0000000002792,0.331440510664234
4399.99999999848,0.678742484992611,1.00000000030916,0.345159736203086
4499.99999999884,0.871154260355156,1.00000000034636,0.358851242224356
4599.9999999992,1.11271029072508,1.00000000039638,0.371730323631715
4699.99999999957,1.46334586118724,1.00000000043964,0.383952890223293
4799.99999999993,1.88545455420203,1.00000000048755,0.396299319516673
4900.00000000029,2.42753504661129,1.00000000050739,0.407684972321093
5000.00000000066,3.11354940238372,1.00000000053341,0.418731830870812
5100.00000000102,3.91156268132881,1.0000000005535,0.429471689458222
5200.00000000139,4.89795980357593,1.00000000059116,0.439193678810095
5300.00000000175,6.04282390127269,1.00000000062307,0.449062775417794
5400.00000000211,7.36275261095201,1.00000000064375,0.458121235625334
5500.00000000248,8.90919862105149,1.00000000067296,0.466490280845089
5600.00000000284,10.6282270461591,1.00000000067181,0.474999164948166
5700.00000000321,12.5792731557481,1.00000000073466,0.482489553691172
5800.00000000357,14.7568067203666,1.00000000074252,0.489887967489907
5900.00000000393,17.1353543239435,1.00000000072697,0.496978257332264
6000.0000000043,19.7743206849429,1.00000000072519,0.503231191445654
6100.00000000466,22.6205660092171,1.00000000075695,0.509473722973082
6200.00000000502,25.695333834998,1.00000000079026,0.515095128026346
6300.00000000539,29.0183527472942,1.00000000078892,0.520394257725749
6400.00000000575,32.536297215542,1.00000000077705,0.52562481606026
6500.00000000612,36.2941576545612,1.000000000805,0.530097372070266
6600.00000000648,40.2585866265932,1.00000000081222,0.534680367795565
6700.00000000684,44.4127975061201,1.00000000079891,0.538858169093353
6800.00000000721,48.7885085518083,1.00000000077867,0.542530671621188
6900.00000000757,53.3285765047441,1.00000000081641,0.546197670791843
7000.00000000793,58.0507121707551,1.00000000080203,0.549567174482036
7100.0000000083,62.9460549186392,1.00000000079691,0.55255914868341
7200.00000000866,67.9746063289991,1.00000000079431,0.555530919192247
7300.00000000903,73.1642317102861,1.00000000077048,0.558040156418845
7400.00000000939,78.4717226613937,1.00000000078842,0.560538004927938
7500.00000000975,83.8885207936237,1.00000000078995,0.56289813312558
7600.00000001012,89.4230008227091,1.00000000078861,0.564669420363797
7700.00000001048,95.0297366835111,1.00000000078563,0.566609850058774
7800.00000001084,100.723555932776,1.00000000077896,0.568404053962076
7900.00000001121,106.480634833572,1.00000000076239,0.570036706616481
8000.00000001157,112.275543039685,1.00000000079374,0.571296111426825
8100.00000001194,118.123757443041,1.000000000762,0.572540906700398
8200.0000000123,123.986755642546,1.00000000075069,0.573990005200973
8300.00000001266,129.864828425243,1.00000000075703,0.574958766507362
8400.00000001303,135.75104000593,1.00000000075037,0.575677756304473
8500.00000001339,141.61442900098,1.00000000072962,0.576700333273175
8600.00000001376,147.467755721177,1.0000000007296,0.577337809959212
8700.00000001412,153.285449360752,1.0000000006969,0.5778843789239
8800.00000001448,159.058220156679,1.00000000074433,0.578318892279647
8900.00000001485,164.788968395085,1.00000000071434,0.578604614802817
9000.00000001521,170.448216531373,1.00000000068187,0.579304197092312
9100.00000001557,176.045261506059,1.00000000070777,0.579287011299026
9200.00000001594,181.566133817398,1.00000000068914,0.579626609690621
9300.0000000163,186.996087847561,1.00000000065952,0.579727473972635
9400.00000001667,192.341088958572,1.00000000069679,0.579648183809286
9500.00000001703,197.582166745881,1.00000000066641,0.579806332748645
9600.00000001739,202.718640476611,1.00000000071073,0.579214864858552
9700.00000001776,207.750302092455,1.00000000065325,0.580065676012929
9800.00000001812,212.658638341801,1.00000000065202,0.578916290733004
9900.00000001848,217.45176718234,1.0000000006078,0.579998355217215
10000.0000000188,222.119508919652,1.00000000062895,0.578939329630186
10100.0000000192,226.654551082929,1.00000000058608,0.578868651799815
10200.0000000196,231.064375415612,1.00000000064077,0.579282408469688
10300.0000000199,235.332882289325,1.0000000005886,0.577911934722964
10400.0000000203,239.466675593657,1.00000000061168,0.578649083573201
10500.0000000207,243.462563880928,1.00000000058984,0.578262034042552
10600.000000021,247.313209839911,1.00000000058626,0.577108716297573
10700.0000000214,251.025859002696,1.00000000058448,0.57774549270147
10800.0000000218,254.590589638726,1.0000000005665,0.576956319143072
10900.0000000221,258.011387940772,1.00000000056106,0.576046208525987
11000.0000000225,261.287896936789,1.00000000058157,0.576359462611139
11100.0000000229,264.41598177893,1.00000000054808,0.575790169391077
11200.0000000232,267.401625210962,1.00000000055848,0.574590396147391
11300.0000000236,270.237363973273,1.00000000055419,0.575529832994292
11400.0000000239,272.930904675221,1.00000000052665,0.574428563723494
11500.0000000243,275.480032873916,1.00000000051096,0.57350997384828
11600.0000000247,277.882646592197,1.00000000051432,0.5745363623825
11700.000000025,280.148486808661,1.00000000051618,0.572766079709637
11800.0000000254,282.269061261438,1.00000000050099,0.572221015438926
11900.0000000258,284.250934420697,1.00000000050092,0.57305695594152
12000.0000000261,286.098857501864,1.0000000004876,0.572165058321751
12100.0000000265,287.806266498486,1.00000000048068,0.571920797310524
12200.0000000269,289.383464468627,1.00000000048182,0.571076041049292
12300.0000000272,290.827700331331,1.00000000046824,0.570527941358108
12400.0000000276,292.141865090305,1.00000000046789,0.571909140045141
12500.0000000279,293.334571584713,1.00000000048101,0.570692633917167
12600.0000000283,294.400060624257,1.00000000046678,0.568211872825052
12700.0000000287,295.343414848793,1.00000000044178,0.56917896831394
12800.000000029,296.168919184389,1.00000000044399,0.572083747464855
12900.0000000294,296.881521121976,1.00000000045457,0.571279340038372
13000.0000000298,297.485988348663,1.00000000043086,0.56685055868356
13100.0000000301,297.974486481419,1.0000000004186,0.565367833557421
13200.0000000305,298.355979892151,1.0000000004356,0.570391244516154
13300.0000000309,298.641880371156,1.00000000044204,0.573105739153738
13400.0000000312,298.835484468493,1.00000000045069,0.568171532247312
13500.0000000316,298.933460733288,1.00000000040127,0.561100793927762
13600.0000000319,298.928709939049,1.00000000039836,0.563223367207916
13700.0000000323,298.839022292939,1.00000000045153,0.572525220451781
13800.0000000327,298.680941583587,1.00000000046418,0.573248473483829
13900.000000033,298.451646646418,1.00000000042406,0.563413177879909
14000.0000000334,298.139728955922,1.00000000038498,0.554445621656894
14100.0000000338,297.740215252368,1.00000000039228,0.559300559461733
14200.0000000341,297.276853953052,1.00000000046777,0.574147186515986
14300.0000000345,296.772362919773,1.00000000049834,0.574491396459921
14400.0000000349,296.216991528328,1.00000000040202,0.559624251451458
14500.0000000352,295.595495380982,1.00000000037711,0.546448249996563
14600.0000000356,294.897599070567,1.00000000037566,0.550726830439164
14700.0000000359,294.148787622935,1.00000000046454,0.571716257234732
14800.0000000363,293.37864844707,1.0000000004895,0.578159111149356
14900.0000000367,292.582350831046,1.00000000044312,0.562391114979812
15000.000000037,291.742268908969,1.00000000036282,0.542561283290352
15100.0000000374,290.836521921578,1.00000000034277,0.535906551931714
15200.0000000378,289.880562519198,1.00000000042075,0.556106545635948
15300.0000000381,288.907070337655,1.00000000053572,0.580019929526634
15400.0000000385,287.93205952387,1.00000000050687,0.573446399124927
15500.0000000389,286.942349303521,1.00000000043291,0.550265080171849
15600.0000000392,285.912848777777,1.00000000034887,0.528691051809483
15700.0000000396,284.829882071197,1.00000000032681,0.525280136435145
15800.0000000399,283.713201695386,1.00000000045059,0.555908420047565
15900.0000000403,282.593461661371,1.00000000056418,0.581828141486526
16000.0000000407,281.488285127696,1.00000000053579,0.574039936662194
16100.000000041,280.379860867109,1.00000000044547,0.544675423793826
16200.0000000414,279.243148958958,1.00000000033781,0.519981061330589
16300.0000000418,278.064376122073,1.00000000030839,0.511839678342661
16400.0000000418,276.853263510673,1.00000000042241,0.539835811906687
16500.0000000404,275.642313472407,1.00000000056922,0.5767095636397
16600.0000000389,274.451628879966,1.00000000060262,0.580894727286371
16700.0000000375,273.274504076135,1.00000000052529,0.554928546204284
16800.000000036,272.090826012656,1.0000000003876,0.522942762832923
16900.0000000346,270.878084039483,1.00000000031335,0.50496650151783
17000.0000000331,269.635770255165,1.00000000033283,0.510364237424701
17100.0000000317,268.378995285176,1.00000000044639,0.544075354409522
17200.0000000302,267.132250157935,1.00000000058272,0.578392785207595
17300.0000000287,265.910000239791,1.00000000061219,0.577235926849707
17400.0000000273,264.703504542092,1.00000000052026,0.548655385224776
17500.0000000258,263.495187223839,1.00000000039784,0.516376777967013
17600.0000000244,262.269653495643,1.00000000033474,0.500591303597766
17700.0000000229,261.022438115541,1.00000000035048,0.50385540389604
17800.0000000215,259.765493754379,1.00000000041649,0.528094964870221
17900.00000002,258.514226122759,1.00000000054466,0.56254335851056
18000.0000000186,257.282786470612,1.00000000060868,0.577017249847403
18100.0000000171,256.072833872865,1.00000000056077,0.559818778389828
18200.0000000156,254.87245179882,1.00000000047064,0.52741802227569
18300.0000000142,253.669650048952,1.00000000037278,0.503865260925942
18400.0000000127,252.455637283405,1.00000000034744,0.499720156981546
18500.0000000113,251.232210080395,1.00000000037494,0.507577229607472
18600.0000000098,250.006549467969,1.00000000042756,0.524598993216004
18700.0000000084,248.787900940464,1.00000000051972,0.550880440618068
18800.0000000069,247.585836770957,1.00000000059661,0.56754780026765
18900.0000000055,246.402181141862,1.00000000056483,0.556288559722258
19000.000000004,245.230162989671,1.00000000050222,0.529650282160045
19100.0000000026,244.062651263922,1.00000000041202,0.507616274969895
19200.0000000011,242.892931247133,1.00000000037463,0.501877788916405
19299.9999999996,241.721854233403,1.00000000037641,0.506117372053476
19399.9999999982,240.549750538313,1.00000000041145,0.512650038760871
19499.9999999967,239.381011809088,1.00000000045167,0.523821798632234
19599.9999999953,238.221833307092,1.00000000051789,0.541237838312559
19699.9999999938,237.075674279626,1.00000000056037,0.552484216291351
19799.9999999924,235.943065409408,1.00000000056132,0.54554444011047
19899.9999999909,234.821552420693,1.00000000049967,0.52862381030834
19999.9999999895,233.70666902769,1.00000000043751,0.512487632173047
20099.999999988,232.596871004545,1.00000000040136,0.507206675206115
20199.9999999865,231.489913761652,1.00000000039423,0.509343939089518
20299.9999999851,230.387231673557,1.0000000003988,0.512507250690614
20399.9999999836,229.289150416361,1.00000000041968,0.515437806316709
20499.9999999822,228.197302094823,1.00000000045855,0.520585266501086
20599.9999999807,227.11470743106,1.00000000049529,0.529101289999642
20699.9999999793,226.042337338799,1.00000000051032,0.537065348940865
20799.9999999778,224.980216317803,1.00000000050544,0.539205658930509
20899.9999999764,223.928059566337,1.00000000046113,0.529497989302959
20999.9999999749,222.883937675216,1.00000000047462,0.520784966362751
21099.9999999734,221.847843346281,1.00000000043965,0.515994831553527
21199.999999972,220.818641340058,1.0000000004079,0.515766580596461
21299.9999999705,219.796771856851,1.00000000040785,0.517213557223496
21399.9999999691,218.781690855601,1.00000000043015,0.515278659408723
21499.9999999676,217.773185970187,1.00000000041257,0.512482014559587
21599.9999999662,216.772610274341,1.00000000045752,0.512128124924103
21699.9999999647,215.780401629361,1.00000000046723,0.518351441075468
21799.9999999633,214.79681774469,1.0000000005006,0.52807571675833
21899.9999999618,213.822303235556,1.00000000048475,0.534506910837351
21999.9999999603,212.856240195395,1.00000000049114,0.53471016298537
22099.9999999589,211.898638863722,1.0000000004755,0.528221049887051
22199.9999999574,210.949434568807,1.00000000044393,0.524047161652788
22299.999999956,210.008705030151,1.00000000047127,0.526508794812872
22399.9999999545,209.076880101135,1.00000000045708,0.527951417347818
22499.9999999531,208.153504993608,1.00000000039759,0.521568522545768
22599.9999999516,207.239123143084,1.00000000037345,0.5115142539265
22699.9999999502,206.333210124744,1.00000000037055,0.503984344072817
22799.9999999487,205.436068095021,1.00000000042034,0.504708912006642
22899.9999999473,204.547911412963,1.00000000044472,0.510521694438016
22999.9999999458,203.668104133949,1.0000000004835,0.521301783806383
23099.9999999443,202.795750003573,1.00000000048424,0.530632552292485
23199.9999999429,201.931005743393,1.00000000046382,0.534925895898971
23299.9999999414,201.07378904329,1.00000000044984,0.535319767786227
23399.99999994,200.224637662196,1.00000000043605,0.528240905278996
23499.9999999385,199.383229264697,1.00000000046161,0.532649521876026
23599.9999999371,198.54959752159,1.00000000048492,0.538483315228904
23699.9999999356,197.724136455498,1.00000000046765,0.535011941024083
23799.9999999342,196.9078972247,1.00000000041337,0.523921590543027
23899.9999999327,196.102229651948,1.00000000035108,0.509036203158421
23999.9999999312,195.307815425905,1.00000000033489,0.494176686996269
24099.9999999298,194.52480535219,1.00000000037259,0.492753613894263
24199.9999999283,193.751880516196,1.00000000042473,0.499863651074576
24299.9999999269,192.987195465915,1.00000000047307,0.513021132236538
24399.9999999254,192.228956116079,1.00000000049531,0.519794984041014
24499.999999924,191.476301711922,1.00000000050066,0.523898115268162
24599.9999999225,190.729196746361,1.00000000047326,0.532077387037604
24699.9999999211,189.98891863573,1.00000000044227,0.533536316789321
24799.9999999196,189.255492629116,1.00000000045197,0.531359192615839
24899.9999999181,188.528277008114,1.00000000046325,0.534829317439789
24999.9999999167,187.806205308763,1.00000000050505,0.545675466929051
25099.9999999152,187.089451354918,1.00000000049191,0.54375397519622
25199.9999999138,186.379836794562,1.00000000046233,0.530777837015728
25299.9999999123,185.680184294985,1.0000000003928,0.514778527669856
25399.9999999109,184.993637691502,1.00000000033327,0.498253167046011
25499.9999999094,184.321222677327,1.00000000032535,0.485209141878155
25599.999999908,183.662753599375,1.00000000037063,0.483232254974137
25699.9999999065,183.015215147502,1.00000000043084,0.493093931608601
25799.9999999051,182.374976886449,1.00000000048668,0.507395759143202
25899.9999999036,181.739163372661,1.00000000051058,0.515180815272225
25999.9999999021,181.10694847895,1.00000000050626,0.515019714746002
26099.9999999007,180.478141485047,1.00000000048823,0.517406407216334
26199.9999998992,179.853880363372,1.00000000045377,0.525748036195057
26299.9999998978,179.234580866144,1.0000000004442,0.53432998251936
26399.9999998963,178.619541045999,1.00000000046281,0.53456216875733
26499.9999998949,178.008183229953,1.00000000047826,0.53521881906739
26599.9999998934,177.39945142303,1.0000000005199,0.54341653301557
26699.999999892,176.793342736317,1.00000000050882,0.545228886637881
26799.9999998905,176.191974806619,1.00000000049663,0.532823587676333
26899.999999889,175.598580300358,1.00000000045231,0.516699202647681
26999.9999998876,175.016847601977,1.00000000036832,0.502583150721797
27099.9999998861,174.450103610738,1.00000000035067,0.491473183302691
27199.9999998847,173.898552181968,1.00000000035457,0.485808890387873
27299.9999998832,173.360679201298,1.00000000038129,0.483091437566159
27399.9999998818,172.833614568983,1.00000000041199,0.489291662277108
27499.9999998803,172.313877632421,1.00000000047317,0.497583199319734
27599.9999998789,171.798301214048,1.00000000049569,0.507386104289933
27699.9999998774,171.285144451574,1.00000000049912,0.51135940319031
27799.9999998759,170.773408660688,1.00000000050849,0.51371272884895
27899.9999998745,170.262589483654,1.00000000050913,0.517439848118718
27999.999999873,169.753644815558,1.00000000045372,0.524477700896013
28099.9999998716,169.246707260098,1.00000000048216,0.534115619376119
28199.9999998701,168.741252338434,1.00000000049096,0.537869941444806
28299.9999998687,168.237608317853,1.0000000004858,0.533680331220408
28399.9999998672,167.735937861125,1.00000000049083,0.534282800539891
28499.9999998658,167.236144157801,1.00000000049302,0.53549115915333
28599.9999998643,166.739420774375,1.00000000048664,0.531763566580303
28699.9999998629,166.248066589663,1.00000000046606,0.523731142201045
28799.9999998614,165.76436002788,1.0000000004356,0.513808989571149
28899.9999998599,165.291174685269,1.00000000040027,0.505072718989895
