Time,AGPnorm,Energy,Entropy
0,0,1,-7.56237471079176e-17
99.9999999999986,0.00223737397390593,0.999999999999507,0.00650757236476094
199.999999999993,0.0149454583059001,0.999999999999029,0.0188171728764089
300,0.0296671087444684,0.999999999999817,0.0346149119701932
400.000000000022,0.0435066725874263,1.00000000000036,0.0548498670479238
500.000000000045,0.060750626815301,0.999999999999255,0.0797062171811446
600.000000000068,0.082571966184217,0.999999999998771,0.109416353137495
700.000000000091,0.102108504109844,1.00000000000055,0.145120091456645
800.000000000113,0.121710267104811,1.00000000001948,0.191314354828594
900.000000000136,0.138900389244896,1.00000000017305,0.252019724335345
1000.00000000016,0.157142706982518,1.00000000057373,0.318701780312232
1100.0000000001,0.241212855926786,1.00000000110991,0.378914586499195
1200,0.467781639680139,1.0000000016311,0.430101531338444
1299.99999999991,0.905508761959749,1.00000000233313,0.472356130997587
1399.99999999982,1.6829640588685,1.00000000260216,0.506646500029802
1499.99999999973,2.88917094954193,1.00000000275444,0.532918068205086
1599.99999999964,4.50483286314786,1.00000000285452,0.554169166949107
1699.99999999955,6.49888625259546,1.00000000298632,0.570491242417068
1799.99999999946,8.84519438458414,1.0000000029378,0.582004207492564
1899.99999999937,11.4504740948915,1.00000000298989,0.588996112744858
1999.99999999928,14.186541986564,1.0000000027912,0.595219943380684
2099.99999999919,16.9728852760945,1.00000000285156,0.598556550318122
2199.99999999909,19.7569322499304,1.0000000026285,0.599440648857994
2299.999999999,22.4568821126762,1.00000000260469,0.599166684556669
2399.99999999891,24.987026905376,1.00000000253516,0.597177024583576
2499.99999999882,27.2962731582566,1.00000000243127,0.596657881044314
2599.99999999873,29.3729668064279,1.00000000219032,0.594848369158558
2699.99999999864,31.2062605938462,1.00000000223589,0.590663205801236
2799.99999999855,32.7724816740498,1.00000000206791,0.587647570095085
2899.99999999846,34.0610161761815,1.00000000196532,0.586412318852655
2999.99999999837,35.0799975861037,1.00000000184381,0.584162798586719
3099.99999999828,35.8530760798653,1.00000000178787,0.582531778487969
3199.99999999819,36.3939880105738,1.00000000178439,0.58574664482685
3299.99999999809,36.7132985956389,1.00000000168471,0.58043453790082
3399.999999998,36.8437247881862,1.00000000169912,0.576633541445245
3499.99999999791,36.8026942721014,1.00000000179412,0.583632573542186
3599.99999999782,36.6297226881237,1.00000000146144,0.563079368699854
3699.99999999773,36.3528611314338,1.00000000179631,0.575976148665553
3799.99999999764,35.9815946023882,1.00000000152637,0.55401447690304
3899.99999999755,35.5448986697462,1.00000000188631,0.572443812323804
3999.99999999746,35.0528244890162,1.00000000142822,0.542824989919435
4099.99999999738,34.5240718579545,1.00000000208757,0.576632225640762
4199.99999999775,33.9804805803263,1.00000000156431,0.537713403618366
4299.99999999811,33.4004818277338,1.00000000191669,0.565232600005437
4399.99999999848,32.8334127091575,1.00000000176086,0.538120280840879
4499.99999999884,32.244542908613,1.00000000154714,0.520879406642582
4599.9999999992,31.6631552520461,1.00000000214923,0.567135183133125
4699.99999999957,31.0963502627432,1.00000000163275,0.518810094150237
4799.99999999993,30.5214422078991,1.00000000166239,0.522681244188438
4900.00000000029,29.9600275853326,1.00000000225812,0.554563968917795
5000.00000000066,29.4151243448209,1.00000000166289,0.502737331393346
5100.00000000102,28.8756527355149,1.00000000171325,0.528860163875905
5200.00000000139,28.3476961842497,1.00000000196833,0.530790636620358
5300.00000000175,27.8373510354654,1.00000000190572,0.519343971703313
5400.00000000211,27.3411816660759,1.00000000157952,0.506241273280733
5500.00000000248,26.8566942269174,1.00000000173876,0.53897218808793
5600.00000000284,26.3877775672331,1.00000000177611,0.520759611842798
5700.00000000321,25.9344114981885,1.00000000178875,0.510117191999742
5800.00000000357,25.4978048271156,1.00000000142644,0.509019850706647
5900.00000000393,25.0761040630046,1.00000000190439,0.548149222429241
6000.0000000043,24.6688039367803,1.00000000169606,0.528672348406467
6100.00000000466,24.279413533668,1.00000000181817,0.512881670269038
6200.00000000502,23.9035292065234,1.00000000190894,0.510500164369298
6300.00000000539,23.5446362751358,1.00000000161104,0.518465098240932
6400.00000000575,23.1995874720765,1.00000000209281,0.551500116816315
6500.00000000612,22.8651996595923,1.00000000174609,0.535742049848386
6600.00000000648,22.5499638700681,1.00000000161292,0.504747660844672
6700.00000000684,22.2485313147525,1.00000000186925,0.517461051150366
6800.00000000721,21.9582093722814,1.00000000166591,0.507765924613631
6900.00000000757,21.6817578059607,1.0000000017397,0.526137829398053
7000.00000000793,21.4138717597045,1.00000000198371,0.542292191669534
7100.0000000083,21.1515593870811,1.00000000178854,0.537459653428584
7200.00000000866,20.9059698238809,1.00000000170174,0.5253407325528
7300.00000000903,20.6745001741323,1.00000000181878,0.522181316773771
7400.00000000939,20.4547271591718,1.00000000182758,0.520132166322302
7500.00000000975,20.2448127971078,1.0000000018168,0.511342749811515
7600.00000001012,20.0444453885416,1.00000000171974,0.542993668018945
7700.00000001048,19.8500315739098,1.00000000190231,0.557300381719765
7800.00000001084,19.6613878160475,1.00000000191607,0.539941535492847
7900.00000001121,19.4797297478053,1.00000000186587,0.547778655723219
8000.00000001157,19.3055045348615,1.00000000174374,0.543756314297497
8100.00000001194,19.145819796411,1.00000000175787,0.529013865816208
8200.0000000123,18.995916443265,1.00000000191726,0.539555622700343
8300.00000001266,18.8569894852654,1.00000000171304,0.533253787959941
8400.00000001303,18.7281566072665,1.00000000167328,0.540479419867993
8500.00000001339,18.5972663272145,1.0000000019471,0.564966168797973
8600.00000001376,18.4689686157343,1.00000000163663,0.559539897719995
8700.00000001412,18.3524326902296,1.00000000176574,0.549943270759186
8800.00000001448,18.2362557861158,1.00000000198838,0.557948441023363
8900.00000001485,18.1151121251745,1.00000000202962,0.572830659482381
9000.00000001521,17.9995599340403,1.00000000182945,0.555295135264862
9100.00000001557,17.8952289501601,1.0000000018255,0.542923516690585
9200.00000001594,17.8012427983552,1.0000000018827,0.550843752946101
9300.0000000163,17.7185792336378,1.00000000172857,0.543574547180769
9400.00000001667,17.6434545840495,1.00000000177873,0.554007768505301
9500.00000001703,17.5706155582549,1.00000000196079,0.571278262524172
9600.00000001739,17.4920229248289,1.00000000210258,0.569734739546755
9700.00000001776,17.4148358572823,1.00000000177989,0.564634495783985
9800.00000001812,17.3511702465629,1.00000000163072,0.54963157331991
9900.00000001848,17.2929271816116,1.00000000194001,0.565960319672188
10000.0000000188,17.228301268974,1.00000000186822,0.571462916441481
10100.0000000192,17.1572662917016,1.00000000190497,0.581155103477476
10200.0000000196,17.0817055416685,1.00000000197337,0.589002634077439
10300.0000000199,17.0103130048782,1.00000000179808,0.574174055579774
10400.0000000203,16.9492536369311,1.00000000186668,0.564777805981732
10500.0000000207,16.8992569010837,1.00000000181464,0.568460401614549
10600.000000021,16.8606294514626,1.00000000178782,0.556590358935736
10700.0000000214,16.8295851066017,1.0000000019094,0.558497639804036
10800.0000000218,16.7988493941359,1.0000000019379,0.578725685374795
10900.0000000221,16.7658073150026,1.00000000196506,0.588056792233066
11000.0000000225,16.7319303330865,1.00000000180703,0.57672675499082
11100.0000000229,16.7017162326513,1.00000000185177,0.574117462566043
11200.0000000232,16.6723144359266,1.00000000190644,0.580533303128161
11300.0000000236,16.6470849883835,1.00000000181676,0.570028225001451
11400.0000000239,16.6250964493141,1.00000000188515,0.574028570047143
11500.0000000243,16.6003658671166,1.00000000193539,0.585384175779449
11600.0000000247,16.5689645642601,1.00000000201276,0.590661444244577
11700.000000025,16.5330156600415,1.00000000197153,0.585361510154012
11800.0000000254,16.4927608126654,1.0000000019527,0.578874636124017
11900.0000000258,16.4490680791434,1.0000000019193,0.58436052439647
12000.0000000261,16.4073745237497,1.00000000190421,0.586154554954526
12100.0000000265,16.3699129421726,1.0000000018966,0.583335886045159
12200.0000000269,16.340332522414,1.00000000184264,0.577971421925082
12300.0000000272,16.3192993385577,1.00000000193928,0.572590523038897
12400.0000000276,16.3079682630365,1.00000000192235,0.553563074927626
12500.0000000279,16.3044052553628,1.00000000203336,0.560283763115171
12600.0000000283,16.3021487276058,1.00000000200437,0.579384146570016
12700.0000000287,16.2974670547634,1.00000000207701,0.591025572609629
12800.000000029,16.2932406803786,1.00000000196118,0.586928619647847
12900.0000000294,16.287924371109,1.00000000203957,0.588259590533058
13000.0000000298,16.2840777544447,1.00000000196361,0.588524869908978
13100.0000000301,16.2828275341839,1.00000000196134,0.588922155894645
13200.0000000305,16.2803685814967,1.00000000205034,0.595236044457279
13300.0000000309,16.279606499962,1.00000000193254,0.592183575646001
13400.0000000312,16.2853832001907,1.00000000195313,0.594002707531106
13500.0000000316,16.290116639651,1.00000000209235,0.615067547867519
13600.0000000319,16.2857395992954,1.00000000215699,0.625216378301082
13700.0000000323,16.2728838087946,1.00000000218903,0.621931332093464
13800.0000000327,16.2583732005969,1.00000000195362,0.614190823602872
13900.000000033,16.2491790438751,1.00000000194941,0.613007059507199
14000.0000000334,16.2403629604317,1.0000000019729,0.619953628501904
14100.0000000338,16.2287549130335,1.00000000226551,0.628634673499017
14200.0000000341,16.2091743449461,1.00000000223568,0.625993494645995
14300.0000000345,16.1822568754893,1.00000000220234,0.627400774217513
14400.0000000349,16.1509705178518,1.00000000213539,0.630077510240729
14500.0000000352,16.1222084423629,1.00000000216828,0.625965638850269
14600.0000000356,16.1012080810181,1.0000000019834,0.613579089925861
14700.0000000359,16.0898874740708,1.00000000189152,0.607309685130257
14800.0000000363,16.0891035861312,1.00000000197341,0.603932343693777
14900.0000000367,16.0991055905813,1.00000000203538,0.604040057393089
15000.000000037,16.1143724227512,1.00000000205084,0.601500080417205
15100.0000000374,16.1296650170968,1.0000000022153,0.613953364639753
15200.0000000378,16.14320109213,1.00000000215626,0.614383768490152
15300.0000000381,16.1576593995635,1.00000000203503,0.617309108977334
15400.0000000385,16.1715033299297,1.0000000020767,0.620530697861172
15500.0000000389,16.1852663214404,1.00000000218239,0.614378551418797
15600.0000000392,16.2007432944079,1.00000000206855,0.617915896406685
15700.0000000396,16.2176450686151,1.00000000219571,0.619820429859557
15800.0000000399,16.2339469968925,1.00000000207537,0.620382720115073
15900.0000000403,16.2519041597293,1.00000000210829,0.626484624635888
16000.0000000407,16.2711640113362,1.00000000208146,0.627829230081449
16100.000000041,16.2891958089066,1.00000000227823,0.632965993138443
16200.0000000414,16.3027269354551,1.00000000215899,0.62553041928727
16300.0000000418,16.3141580908155,1.00000000239812,0.618390039792709
16400.0000000418,16.3257593949202,1.00000000208862,0.619151211925155
16500.0000000404,16.3365660478751,1.00000000222794,0.643765609715796
16600.0000000389,16.3477334620344,1.00000000227238,0.640619048807315
16700.0000000375,16.3570508672977,1.00000000218162,0.644080706672731
16800.000000036,16.3661779114142,1.00000000214818,0.640975083433934
16900.0000000346,16.3725051902689,1.00000000225794,0.640076535025577
17000.0000000331,16.3778845103573,1.00000000221751,0.640525855992441
17100.0000000317,16.380208466693,1.00000000219099,0.65133875501903
17200.0000000302,16.3791510413969,1.0000000022827,0.657127746580627
17300.0000000287,16.3749022093628,1.00000000230149,0.65836249494961
17400.0000000273,16.3650311317192,1.0000000021785,0.656967873384607
17500.0000000258,16.352032629423,1.00000000221776,0.664576124745086
17600.0000000244,16.3359425653501,1.00000000219224,0.659029090803372
17700.0000000229,16.3163234394716,1.00000000222711,0.663598523886229
17800.0000000215,16.2931189757921,1.00000000221591,0.663120455484524
17900.00000002,16.2675015591863,1.00000000226953,0.660166871119445
18000.0000000186,16.2427782638182,1.00000000214277,0.662700333530637
18100.0000000171,16.2210328466488,1.00000000212942,0.657396129032201
18200.0000000156,16.2036720259818,1.00000000217152,0.648501536184207
18300.0000000142,16.1935723471416,1.00000000215639,0.638562331165807
18400.0000000127,16.190922642533,1.00000000216882,0.63276030794776
18500.0000000113,16.1960170808752,1.00000000227385,0.636872643096645
18600.0000000098,16.2093877896574,1.00000000210358,0.627761419133436
18700.0000000084,16.230460238944,1.0000000021947,0.616451364874364
18800.0000000069,16.2566967176209,1.00000000215325,0.617590586908258
18900.0000000055,16.2849612030446,1.00000000229021,0.624819965273237
19000.000000004,16.3119167357577,1.00000000234098,0.631617649514818
19100.0000000026,16.3376459527432,1.00000000245329,0.637716917445488
19200.0000000011,16.3643180807628,1.00000000218261,0.632113147296901
19299.9999999996,16.3927699931796,1.00000000230229,0.633940275759079
19399.9999999982,16.4209985495222,1.00000000236044,0.63410904265878
19499.9999999967,16.4487225731535,1.00000000212384,0.628799484981937
19599.9999999953,16.4791757257436,1.00000000231316,0.623217389810348
19699.9999999938,16.5103766008727,1.0000000021695,0.624078416255675
19799.9999999924,16.5420383018589,1.00000000222932,0.632954822593297
19899.9999999909,16.5721682622233,1.00000000240239,0.635610172569357
19999.9999999895,16.6002832094675,1.00000000228272,0.62986663159957
20099.999999988,16.6299342640032,1.00000000229557,0.640441098790766
20199.9999999865,16.6637191702604,1.00000000230074,0.650438976913725
20299.9999999851,16.6948634638998,1.00000000246457,0.65206313042196
20399.9999999836,16.7189696097667,1.00000000253479,0.648971961500401
20499.9999999822,16.7378733143469,1.0000000023458,0.650359425215652
20599.9999999807,16.7548629779762,1.00000000239011,0.66079064671245
20699.9999999793,16.7714946417093,1.00000000222622,0.657612216393884
20799.9999999778,16.7907810453968,1.00000000237164,0.65786691433992
20899.9999999764,16.8130279783673,1.00000000229932,0.659970564486387
20999.9999999749,16.8375156491924,1.00000000254696,0.656428063006112
21099.9999999734,16.8629049719794,1.00000000232848,0.665527145967645
21199.999999972,16.8885247385429,1.00000000233499,0.673900143385875
21299.9999999705,16.9123330027461,1.00000000241806,0.674697501680128
21399.9999999691,16.9334286402847,1.00000000234761,0.674749503562678
21499.9999999676,16.9522785815982,1.0000000025383,0.677355121449021
21599.9999999662,16.9660137838435,1.00000000259615,0.680642439120738
21699.9999999647,16.9785319036128,1.00000000238145,0.680698322885127
21799.9999999633,16.9912953381061,1.00000000237463,0.680832555542204
21899.9999999618,17.0050486142161,1.00000000236777,0.680763939306035
21999.9999999603,17.0183924516793,1.00000000238791,0.685228319087938
22099.9999999589,17.0318919894914,1.00000000239024,0.683876419296806
22199.9999999574,17.0461130824807,1.00000000251221,0.678062244784133
22299.999999956,17.058696121199,1.00000000255401,0.678180034450488
22399.9999999545,17.0689640078307,1.00000000265458,0.678697239714663
22499.9999999531,17.0754503315941,1.00000000261655,0.673622021765357
22599.9999999516,17.0796310032448,1.0000000025701,0.67664281429011
22699.9999999502,17.0842597958784,1.00000000233773,0.667731257865048
22799.9999999487,17.0889048826433,1.0000000025364,0.680912531434308
22899.9999999473,17.0870089373984,1.00000000261086,0.683513053814475
22999.9999999458,17.083338696267,1.00000000252855,0.687762863263923
23099.9999999443,17.079242737502,1.00000000243584,0.681594103545245
23199.9999999429,17.0748736933064,1.00000000246444,0.676973829159433
23299.9999999414,17.0680173317207,1.00000000263478,0.669924689383937
23399.99999994,17.0583573602265,1.00000000251693,0.681835113142122
23499.9999999385,17.046310511828,1.00000000261458,0.681164552821338
23599.9999999371,17.031309695998,1.0000000027021,0.676339728131088
23699.9999999356,17.0158222208848,1.00000000245783,0.671998574639737
23799.9999999342,16.9999426482478,1.00000000254569,0.675268023444036
23899.9999999327,16.9866738217489,1.00000000247488,0.677542751728123
23999.9999999312,16.9749942781867,1.0000000024624,0.67554078465757
24099.9999999298,16.9644733085577,1.00000000249883,0.673031088066758
24199.9999999283,16.9574502706829,1.00000000251044,0.673367955602654
24299.9999999269,16.9546090775718,1.00000000266066,0.672057543546367
24399.9999999254,16.9571246238143,1.00000000255889,0.663790596627537
24499.999999924,16.9644262456509,1.00000000252698,0.662262607124205
24599.9999999225,16.9777024323569,1.00000000247284,0.657857392251797
24699.9999999211,16.9986389315363,1.00000000240018,0.655899205355088
24799.9999999196,17.027855819447,1.00000000245749,0.659130706873479
24899.9999999181,17.0638288039458,1.00000000244127,0.651122859968694
24999.9999999167,17.1060820384408,1.00000000244352,0.650914444981383
25099.9999999152,17.1501197414914,1.00000000263762,0.64377777995181
25199.9999999138,17.1966150406758,1.00000000248164,0.625807323038927
25299.9999999123,17.2429715330962,1.00000000275965,0.638786808820401
25399.9999999109,17.2881542932047,1.00000000257368,0.636110254909294
25499.9999999094,17.3320785072699,1.00000000269409,0.637201630100918
25599.999999908,17.3765058469555,1.00000000267574,0.628301092323521
25699.9999999065,17.4229697329632,1.00000000256612,0.627099554562441
25799.9999999051,17.4704902627469,1.00000000267183,0.632617972520467
25899.9999999036,17.5205462834713,1.00000000261494,0.62764380829912
25999.9999999021,17.5703602433543,1.00000000261503,0.63461571332983
26099.9999999007,17.6217911803482,1.00000000263491,0.637189187730925
26199.9999998992,17.6749766375675,1.00000000269662,0.628891663263249
26299.9999998978,17.7273276728135,1.00000000271645,0.632483303594075
26399.9999998963,17.7833032377185,1.00000000264765,0.638189197959952
26499.9999998949,17.842960238226,1.00000000266329,0.637168001255306
26599.9999998934,17.9035737512529,1.0000000026527,0.639703417628652
26699.999999892,17.9678860142374,1.00000000272322,0.646588075377185
26799.9999998905,18.0290834311679,1.00000000269868,0.649412166763675
26899.999999889,18.0898219231956,1.00000000264162,0.644274775686265
26999.9999998876,18.1484653128681,1.00000000289812,0.648332978045191
27099.9999998861,18.199705079535,1.00000000277771,0.646289303129051
27199.9999998847,18.2478620951148,1.000000002793,0.663254494554445
27299.9999998832,18.2921971877858,1.000000002825,0.66290013129056
27399.9999998818,18.3352306558052,1.00000000271768,0.660009766999335
27499.9999998803,18.3829761432027,1.00000000263825,0.66377606065326
27599.9999998789,18.4313261218869,1.00000000277008,0.670235700457481
27699.9999998774,18.4769979792599,1.00000000274715,0.67789417145128
27799.9999998759,18.524109062941,1.00000000267374,0.678985178243473
27899.9999998745,18.5692853363462,1.00000000279566,0.678431417442804
27999.999999873,18.6159625377319,1.00000000258621,0.679027501803756
28099.9999998716,18.6662613040571,1.00000000271287,0.684519310657576
28199.9999998701,18.716867858104,1.00000000265925,0.687693475719781
28299.9999998687,18.7701214739152,1.00000000283471,0.685268404542485
28399.9999998672,18.8227177782457,1.00000000285692,0.691817010468848
28499.9999998658,18.8723308576907,1.00000000284805,0.702821394615056
28599.9999998643,18.9206198337562,1.00000000284026,0.70322838106543
28699.9999998629,18.9650510277833,1.00000000276267,0.702880297802025
28799.9999998614,19.0075413021381,1.00000000282604,0.694121686104925
28899.9999998599,19.04836597832,1.00000000289966,0.697521565588048
28999.9999998585,19.0849702585534,1.00000000274928,0.700453652456445
