Time,AGPnorm,Energy,Entropy
0,0,1,-7.33127037015939e-17
99.9999999999986,0.000307658439982167,0.999999999998236,0.00121069825322333
199.999999999993,0.00208525545377657,0.999999999998702,0.0036407778250141
300,0.00426500778042454,1.00000000000068,0.00689372295076317
400.000000000022,0.00665505839554692,1.00000000000079,0.0109758162732829
500.000000000045,0.00949689256887296,0.999999999998803,0.0159685871579167
600.000000000068,0.0134848304686083,0.999999999998124,0.0215935025410911
700.000000000091,0.0176329210232394,0.999999999999832,0.0277950932253192
800.000000000113,0.0225365360898156,1.00000000000123,0.0345474028713827
900.000000000136,0.0272252976433353,0.999999999999642,0.0419538039939134
1000.00000000016,0.0334333039022033,0.999999999998157,0.0498742868963318
1100.0000000001,0.039292187757091,0.999999999998775,0.0583348974274023
1200,0.0457970449275692,1.0000000000011,0.067378813158305
1299.99999999991,0.052173043249898,1.0000000000005,0.0771464672198702
1399.99999999982,0.0594264136871474,0.999999999998638,0.0874547468911689
1499.99999999973,0.0667344985666959,0.999999999998234,0.0985201756634464
1599.99999999964,0.0739551716307258,1.00000000000017,0.110278217118863
1699.99999999955,0.081679806069254,1.00000000000132,0.123155388159851
1799.99999999946,0.0887281771996192,0.999999999999591,0.136949465161957
1899.99999999937,0.0970557577834242,0.999999999999034,0.152020171915233
1999.99999999928,0.104340312553965,1.0000000000006,0.168480294875079
2099.99999999919,0.113129353903045,1.00000000000557,0.186755857673274
2199.99999999909,0.120873326488753,1.00000000000939,0.206948918652478
2299.999999999,0.129821518720155,1.00000000001711,0.22878333346698
2399.99999999891,0.1416995649858,1.00000000003205,0.252077362213757
2499.99999999882,0.164395643668741,1.00000000005669,0.275916253843991
2599.99999999873,0.202076427541126,1.00000000007884,0.300233291381157
2699.99999999864,0.264780386545484,1.00000000011228,0.3234983519058
2799.99999999855,0.379037647925482,1.00000000014353,0.34578041865299
2899.99999999846,0.578353020822626,1.00000000018236,0.366295572036264
2999.99999999837,0.892543970443156,1.00000000021058,0.385637561156438
3099.99999999828,1.35708105535435,1.0000000002555,0.403136881501211
3199.99999999819,2.02486893215466,1.00000000028342,0.419064404544341
3299.99999999809,2.94773599218657,1.00000000030995,0.433332018954819
3399.999999998,4.15976055867506,1.00000000034327,0.446296835501589
3499.99999999791,5.70352295716517,1.00000000036407,0.458265815784866
3599.99999999782,7.62794666340055,1.00000000039347,0.468796449875601
3699.99999999773,9.96853483082189,1.00000000039734,0.478162083646474
3799.99999999764,12.732516411063,1.00000000043475,0.486302118420702
3899.99999999755,15.9295908912573,1.00000000043892,0.494215609335424
3999.99999999746,19.5931912085991,1.00000000044389,0.50092492120092
4099.99999999738,23.7289404505805,1.00000000046096,0.506514725128754
4199.99999999775,28.3109794131838,1.00000000042798,0.511493328448533
4299.99999999811,33.3035341944898,1.00000000047118,0.516357071968944
4399.99999999848,38.7193619437445,1.0000000004726,0.519942187321858
4499.99999999884,44.549598598976,1.00000000045922,0.523003183227046
4599.9999999992,50.7452490954989,1.00000000047259,0.525729783877684
4699.99999999957,57.2460462002048,1.00000000048357,0.528068855406787
4799.99999999993,64.0317608869638,1.00000000045568,0.529883097549899
4900.00000000029,71.099173154274,1.00000000045862,0.531353033966427
5000.00000000066,78.3967333553992,1.00000000047492,0.532308402318062
5100.00000000102,85.8580467960896,1.00000000045768,0.532925901931033
5200.00000000139,93.43607433631,1.00000000045681,0.534044685094668
5300.00000000175,101.130108944805,1.00000000043274,0.533960926012774
5400.00000000211,108.907319462251,1.00000000044326,0.533570453588169
5500.00000000248,116.707586956003,1.00000000044274,0.533910854515526
5600.00000000284,124.478922346168,1.00000000042776,0.533859474177177
5700.00000000321,132.206342644096,1.0000000004269,0.532509112153023
5800.00000000357,139.882968679492,1.00000000041675,0.53235408702608
5900.00000000393,147.46416633727,1.00000000042508,0.531756821291366
6000.0000000043,154.901443016005,1.00000000040513,0.530247650510197
6100.00000000466,162.170110168164,1.00000000039056,0.528877763217114
6200.00000000502,169.272424635829,1.00000000037679,0.528380120842189
6300.00000000539,176.189797659908,1.0000000003865,0.527283664722082
6400.00000000575,182.885350875466,1.0000000003902,0.525439766609604
6500.00000000612,189.333826314592,1.00000000038017,0.523991795126693
6600.00000000648,195.533212338155,1.00000000036321,0.523088335438601
6700.00000000684,201.486087685716,1.00000000035824,0.522245069092052
6800.00000000721,207.172972591779,1.00000000034608,0.52041099959405
6900.00000000757,212.573110154655,1.00000000033678,0.518532532813765
7000.00000000793,217.681763449341,1.00000000034336,0.517424961707011
7100.0000000083,222.509290131836,1.00000000033075,0.517030999152299
7200.00000000866,227.055684699638,1.00000000034265,0.515801358522346
7300.00000000903,231.304901085842,1.0000000003291,0.512937925882024
7400.00000000939,235.250226878532,1.0000000003244,0.510606567636528
7500.00000000975,238.900959462214,1.00000000030065,0.510845718515026
7600.00000001012,242.27517694637,1.00000000030103,0.513038082558786
7700.00000001048,245.372448463931,1.00000000029747,0.513263596587506
7800.00000001084,248.185678626122,1.0000000002901,0.508545588262101
7900.00000001121,250.708690247844,1.00000000028523,0.501485154746282
8000.00000001157,252.947377267177,1.0000000002669,0.498700372384338
8100.00000001194,254.919650210598,1.0000000002809,0.50482862352312
8200.0000000123,256.644609546962,1.00000000029581,0.514254621356104
8300.00000001266,258.141415919428,1.00000000029253,0.516829114200429
8400.00000001303,259.414801742787,1.00000000027586,0.50784554089468
8500.00000001339,260.450139715344,1.00000000023858,0.491207948307287
8600.00000001376,261.223622681877,1.00000000022838,0.480595326224373
8700.00000001412,261.740496518549,1.00000000022552,0.489433278507218
8800.00000001448,262.048012894268,1.00000000025203,0.510633094571668
8900.00000001485,262.210024685511,1.00000000028778,0.526591940987438
9000.00000001521,262.265486439169,1.00000000029881,0.527233792961969
9100.00000001557,262.198104232601,1.00000000025802,0.508331210283737
9200.00000001594,261.953707802264,1.00000000021325,0.476502653493374
9300.0000000163,261.484519979058,1.0000000001715,0.454590418808399
9400.00000001667,260.796027290784,1.00000000018024,0.463869065759619
9500.00000001703,259.951506568757,1.00000000023617,0.497088974179695
9600.00000001739,259.034229049547,1.00000000029232,0.528310119852712
9700.00000001776,258.103712450233,1.00000000035011,0.542651899127677
9800.00000001812,257.175267533118,1.00000000032864,0.535696877089524
9900.00000001848,256.213575920311,1.00000000027396,0.504602798231366
10000.0000000188,255.145042491768,1.00000000019239,0.4559066145005
10100.0000000192,253.90834398853,1.00000000013076,0.416531382490786
10200.0000000196,252.496683042857,1.00000000013606,0.421350772538212
10300.0000000199,250.96813381925,1.00000000019611,0.46508051975713
10400.0000000203,249.404413159297,1.00000000029889,0.51033441198772
10500.0000000207,247.870418436802,1.00000000034562,0.539449786535787
10600.000000021,246.400904295538,1.00000000038593,0.549348371707141
10700.0000000214,244.993133438437,1.00000000037193,0.539901864896164
10800.0000000218,243.611071833487,1.00000000029819,0.506196186363609
10900.0000000221,242.189528258648,1.00000000021844,0.447917821432993
11000.0000000225,240.669049763628,1.00000000012815,0.386242078662053
11100.0000000229,239.025583488585,1.00000000010045,0.361350512876017
11200.0000000232,237.286794574042,1.00000000013575,0.393097147235258
11300.0000000236,235.508262528281,1.00000000022256,0.453251541234174
11400.0000000239,233.741364434983,1.00000000032407,0.504307446767161
11500.0000000243,232.024659198963,1.00000000037186,0.533428471575717
11600.0000000247,230.380488181408,1.00000000040223,0.5448576265736
11700.000000025,228.814213772416,1.00000000038407,0.544415396175768
11800.0000000254,227.309671673238,1.00000000035453,0.529026020869296
11900.0000000258,225.831772396469,1.0000000003015,0.489263662855009
12000.0000000261,224.335618842579,1.00000000021338,0.426785238593483
12100.0000000265,222.784940672178,1.00000000013867,0.361340634153945
12200.0000000269,221.169307841497,1.00000000009152,0.323532250472919
12300.0000000272,219.504265534452,1.0000000001085,0.334652974937401
12400.0000000276,217.817903871599,1.0000000001702,0.387483363351609
12500.0000000279,216.136732235217,1.00000000026701,0.449088091347611
12600.0000000283,214.480708824306,1.00000000032781,0.493982855141045
12700.0000000287,212.864203844765,1.00000000036409,0.517692665864068
12800.000000029,211.29723988125,1.00000000038082,0.528649486054269
12900.0000000294,209.784819642844,1.00000000040888,0.534255968103096
13000.0000000298,208.324420654195,1.00000000039302,0.532357533738633
13100.0000000301,206.904994548275,1.00000000034228,0.517774079616199
13200.0000000305,205.507861183272,1.00000000029026,0.486187701894176
13300.0000000309,204.112260181449,1.00000000023868,0.438279040645914
13400.0000000312,202.702442559334,1.00000000018531,0.38375397175572
13500.0000000316,201.273814848925,1.00000000013946,0.338356404331921
13600.0000000319,199.834184269091,1.00000000011798,0.319627054305438
13700.0000000323,198.397282628297,1.00000000012678,0.331632576597351
13800.0000000327,196.974796700938,1.0000000001725,0.368101569200346
13900.000000033,195.571810837881,1.00000000022783,0.420326194802033
14000.0000000334,194.188003446665,1.00000000028288,0.467844764158214
14100.0000000338,192.821488075282,1.00000000030862,0.496272116678378
14200.0000000341,191.472033769442,1.00000000033258,0.504365997207459
14300.0000000345,190.141612013906,1.00000000034666,0.503730218301257
14400.0000000349,188.833433417353,1.0000000003789,0.507366035571732
14500.0000000352,187.550215458502,1.00000000037685,0.518609343408354
14600.0000000356,186.292556127315,1.00000000034527,0.52844658087876
14700.0000000359,185.057954355863,1.00000000031564,0.52442984815408
14800.0000000363,183.840722021676,1.00000000027855,0.501285354307669
14900.0000000367,182.634423026689,1.00000000023559,0.462205185497759
15000.000000037,181.435699928451,1.00000000017951,0.418033264070089
15100.0000000374,180.246755126633,1.00000000016176,0.378192574585462
15200.0000000378,179.07462226518,1.00000000015309,0.3503137569214
15300.0000000381,177.927749216318,1.00000000015958,0.338357233788276
15400.0000000385,176.812976272171,1.00000000017164,0.347846747483877
15500.0000000389,175.733559204347,1.00000000018013,0.372598463578936
15600.0000000392,174.686937420706,1.00000000020982,0.399275016306541
15700.0000000396,173.664745046263,1.00000000024839,0.429148914550523
15800.0000000399,172.656557035104,1.00000000028555,0.46218806012158
15900.0000000403,171.654351995121,1.00000000030842,0.49103553885015
16000.0000000407,170.65599291758,1.00000000028328,0.50376206589137
16100.000000041,169.663271968525,1.00000000026316,0.4964155717471
16200.0000000414,168.678102781037,1.00000000025849,0.479918687995226
16300.0000000418,167.699190544524,1.00000000027216,0.470992030391959
16400.0000000418,166.722796079691,1.00000000032651,0.478337300791035
16500.0000000404,165.746244656953,1.0000000003724,0.499377742725614
16600.0000000389,164.770178615375,1.0000000003743,0.522588186428066
16700.0000000375,163.79800684944,1.00000000037374,0.534194672598417
16800.000000036,162.833368053371,1.00000000035124,0.530679731221111
16900.0000000346,161.878951136228,1.00000000029249,0.512624184844082
17000.0000000331,160.93785895485,1.00000000024358,0.480475219434047
17100.0000000317,160.014843767301,1.00000000018762,0.438718187759774
17200.0000000302,159.118400747955,1.00000000014302,0.397032993131872
17300.0000000287,158.258861076742,1.00000000011601,0.364690172818082
17400.0000000273,157.444130792534,1.0000000001426,0.346623936568263
17500.0000000258,156.67575075778,1.00000000017944,0.344864872723299
17600.0000000244,155.949643073403,1.00000000020693,0.35419901993204
17700.0000000229,155.259724516135,1.00000000023246,0.375411160508062
17800.0000000215,154.599981535724,1.0000000002359,0.401940220943476
17900.00000002,153.963265201161,1.00000000025849,0.427422088426596
18000.0000000186,153.339669556465,1.00000000027748,0.448289091459746
18100.0000000171,152.719400046449,1.0000000003047,0.465118837130274
18200.0000000156,152.092684503794,1.00000000030521,0.480491620069151
18300.0000000142,151.456566237444,1.00000000030729,0.493880856177114
18400.0000000127,150.812167493228,1.00000000028947,0.502777276358999
18500.0000000113,150.166315108884,1.00000000025582,0.501573529770176
18600.0000000098,149.526141187162,1.00000000021534,0.490257052717611
18700.0000000084,148.897197337719,1.00000000020621,0.475213366641552
18800.0000000069,148.279865317736,1.00000000021481,0.462757725660612
18900.0000000055,147.667598760983,1.00000000025085,0.45740511054876
19000.000000004,147.05059053129,1.00000000029912,0.462391132163549
19100.0000000026,146.418991343655,1.00000000035214,0.475602514351503
19200.0000000011,145.768169612313,1.00000000038153,0.492199788514803
19299.9999999996,145.098747896725,1.00000000037821,0.510339300358119
19399.9999999982,144.41582404562,1.00000000037763,0.525344838514646
19499.9999999967,143.725769046099,1.00000000034658,0.53201580031528
19599.9999999953,143.034841680195,1.00000000032122,0.5291125775276
19699.9999999938,142.34933919161,1.0000000002866,0.515116620012655
19799.9999999924,141.675792613331,1.00000000024154,0.49079982660217
19899.9999999909,141.02136210306,1.0000000002143,0.459626487854611
19999.9999999895,140.394700120634,1.00000000018198,0.428843885318728
20099.999999988,139.805219409875,1.00000000014996,0.403918970264376
20199.9999999865,139.262139706311,1.0000000001381,0.382755268448766
20299.9999999851,138.772970246495,1.0000000001343,0.364484923915322
20399.9999999836,138.340454655162,1.00000000014598,0.354549390943485
20499.9999999822,137.960950440912,1.00000000017783,0.355305964340344
20599.9999999807,137.624885067476,1.00000000020654,0.369757568475753
20699.9999999793,137.319235465584,1.00000000024206,0.394122810273329
20799.9999999778,137.030773145621,1.00000000026867,0.418135814609224
20899.9999999764,136.75105287485,1.00000000027279,0.437597576429258
20999.9999999749,136.47693037776,1.00000000027609,0.452493497316385
21099.9999999734,136.206654462109,1.00000000026183,0.463182303218961
21199.999999972,135.939279669103,1.00000000026092,0.46988347746527
21299.9999999705,135.673314982938,1.00000000025377,0.474757341233655
21399.9999999691,135.4042124301,1.00000000027078,0.47996435351184
21499.9999999676,135.126214668224,1.00000000027849,0.486887508058655
21599.9999999662,134.833940760835,1.00000000028491,0.495527969960958
21699.9999999647,134.522977453533,1.00000000030199,0.505603443103239
21799.9999999633,134.191642074222,1.00000000032312,0.515034526160248
21899.9999999618,133.843081660591,1.000000000303,0.522398396289729
21999.9999999603,133.483090829665,1.00000000027742,0.523787508386415
22099.9999999589,133.119013094274,1.00000000024665,0.51740922763641
22199.9999999574,132.757888487374,1.00000000022588,0.507174398997016
22299.999999956,132.403677050104,1.00000000021792,0.498475835036435
22399.9999999545,132.055451275968,1.00000000021501,0.493666048300705
22499.9999999531,131.710128324988,1.00000000023533,0.489833864313121
22599.9999999516,131.363184527892,1.00000000024362,0.484488513126338
22699.9999999502,131.010261562353,1.00000000026716,0.478955394237172
22799.9999999487,130.648622103389,1.00000000028099,0.478027789780761
22899.9999999473,130.274708194449,1.0000000003053,0.48174257257661
22999.9999999458,129.884927996588,1.00000000033431,0.49038913779918
23099.9999999443,129.475987431339,1.00000000034203,0.50436043445949
23199.9999999429,129.04768346732,1.00000000037317,0.519129595969436
23299.9999999414,128.601933784893,1.00000000036627,0.532126886628671
23399.99999994,128.143487500073,1.00000000036506,0.539116630240402
23499.9999999385,127.678284636629,1.00000000033504,0.539125180993677
23599.9999999371,127.212772832279,1.00000000030097,0.530206790346804
23699.9999999356,126.753843048785,1.00000000026666,0.513089017467806
23799.9999999342,126.309140615463,1.00000000022843,0.490991039223126
23899.9999999327,125.88758933714,1.00000000019429,0.466357733929947
23999.9999999312,125.498783808044,1.00000000015928,0.441035314129384
24099.9999999298,125.151827853122,1.00000000015139,0.418583062089038
24199.9999999283,124.853740785069,1.00000000013732,0.402375552941933
24299.9999999269,124.608145344265,1.00000000015612,0.389405130949184
24399.9999999254,124.415319546778,1.00000000016534,0.380218445933465
24499.999999924,124.272412877633,1.00000000018637,0.376544289159129
24599.9999999225,124.175580849248,1.00000000019581,0.376566821187872
24699.9999999211,124.120125561856,1.00000000020807,0.380611971977487
24799.9999999196,124.099546661085,1.00000000021587,0.387998478923704
24899.9999999181,124.104829429936,1.00000000023521,0.399858677122445
24999.9999999167,124.124749081657,1.00000000026302,0.415923240066484
25099.9999999152,124.147423391505,1.00000000028024,0.43371315763796
25199.9999999138,124.163448542843,1.00000000031716,0.449231254760342
25299.9999999123,124.167393715535,1.00000000028297,0.461433576610299
25399.9999999109,124.157986010333,1.00000000030672,0.471841020855088
25499.9999999094,124.137002286052,1.00000000028717,0.482170372425051
25599.999999908,124.107800883665,1.00000000027019,0.491441419160694
25699.9999999065,124.075003276665,1.0000000002601,0.497699416845535
25799.9999999051,124.043114153822,1.00000000024827,0.500535427483692
25899.9999999036,124.015600997879,1.00000000023168,0.501301046751986
25999.9999999021,123.993548978664,1.0000000002292,0.501773819632124
26099.9999999007,123.974963212431,1.00000000023839,0.503011021604323
26199.9999998992,123.955166290116,1.000000000242,0.50484831763786
26299.9999998978,123.926929038139,1.00000000025853,0.507280809822506
26399.9999998963,123.882983734605,1.00000000030124,0.511206139805172
26499.9999998949,123.817541493815,1.000000000291,0.517010662402232
26599.9999998934,123.727831987381,1.00000000029698,0.51951652494422
26699.999999892,123.613676910719,1.00000000029995,0.517627052550681
26799.9999998905,123.476172219509,1.00000000029145,0.512341805666841
26899.999999889,123.316728782398,1.00000000030908,0.508311375592164
26999.9999998876,123.137071341494,1.00000000032278,0.511254013283226
27099.9999998861,122.939989169235,1.00000000030645,0.520864126055721
27199.9999998847,122.729570699652,1.00000000029129,0.52831693242825
27299.9999998832,122.511073286885,1.00000000027308,0.527518216520012
27399.9999998818,122.290175284288,1.00000000025107,0.520131042699718
27499.9999998803,122.072081950906,1.0000000002376,0.511731364584917
27599.9999998789,121.860568035219,1.00000000022058,0.506271893961003
27699.9999998774,121.657294291176,1.00000000021409,0.504786579754859
27799.9999998759,121.462144094158,1.00000000021447,0.506052388168614
27899.9999998745,121.273292563652,1.00000000022141,0.508710900162356
27999.999999873,121.087883022862,1.00000000024057,0.511236839951462
28099.9999998716,120.902290583314,1.00000000025047,0.512469139220658
28199.9999998701,120.712931387543,1.00000000025074,0.514048294093924
28299.9999998687,120.516706178877,1.00000000025775,0.516847169484164
28399.9999998672,120.31083342724,1.00000000027733,0.518115903365942
28499.9999998658,120.093476533419,1.00000000028964,0.515690590628712
28599.9999998643,119.863443644263,1.0000000002997,0.511346940614289
28699.9999998629,119.619950859117,1.00000000030916,0.507813109701175
28799.9999998614,119.361968311494,1.00000000032008,0.506996916031659
28899.9999998599,119.088370130094,1.00000000032894,0.510601708469837
28999.9999998585,118.798713814256,1.00000000034916,0.518553622926054
