Time,AGPnorm,Energy,Entropy
0,0,1,-4.19114967582451e-18
99.9999999999986,0.00828146368742884,0.999999999995241,0.023287166927412
199.999999999993,0.0221623382981668,0.999999999999922,0.0674056553925149
300,0.0441422585473108,0.999999999997094,0.135290971482183
400.000000000022,0.0658027339792194,1.00000000008328,0.235727955044314
500.000000000045,0.0995937899910253,1.00000000085406,0.3740762039465
600.000000000068,0.397708497635796,1.00000000218559,0.481826691518735
700.000000000091,1.31906022703184,1.00000000280665,0.544527849343038
800.000000000113,3.05537200047316,1.00000000307295,0.574079812531417
900.000000000136,5.46402755903407,1.00000000320641,0.584958490958584
1000.00000000016,8.1699950559833,1.00000000322189,0.584629595939486
1100.0000000001,10.8546533710152,1.00000000287031,0.579528419030363
1200,13.2300948495855,1.00000000258499,0.568077027226309
1299.99999999991,15.135800893005,1.00000000243461,0.561521514001479
1399.99999999982,16.5231020679389,1.00000000223773,0.54987402960616
1499.99999999973,17.3864448868439,1.00000000196251,0.55357814612017
1599.99999999964,17.7792080408528,1.00000000202093,0.55924785355436
1699.99999999955,17.8216082441593,1.00000000141102,0.50352864504996
1799.99999999946,17.6300324797298,1.00000000228105,0.576011403928321
1899.99999999937,17.2262238517195,1.00000000125471,0.462855533456795
1999.99999999928,16.7703865435482,1.0000000024215,0.578164991120653
2099.99999999919,16.247616998795,1.00000000097487,0.402992104157501
2199.99999999909,15.66746682178,1.00000000273675,0.569318511422901
2299.999999999,15.1635920489138,1.00000000172291,0.484300685151906
2399.99999999891,14.6130367237333,1.0000000013114,0.413611972236441
2499.99999999882,14.0669979767947,1.0000000026692,0.551895598507286
2599.99999999873,13.586918335473,1.0000000018919,0.527203002727781
2699.99999999864,13.1293725408893,1.00000000114446,0.385858614189742
2799.99999999855,12.6854418065802,1.00000000189008,0.488421943199523
2899.99999999846,12.2553057310571,1.0000000021048,0.530430440962082
2999.99999999837,11.853048306763,1.00000000254831,0.563873734134813
3099.99999999828,11.4968081916999,1.00000000119284,0.423160034675547
3199.99999999819,11.2048842292132,1.00000000165387,0.42003614384754
3299.99999999809,10.9124334549266,1.00000000233259,0.526634942963783
3399.999999998,10.6288211382531,1.00000000180262,0.522298632477301
3499.99999999791,10.3498189715981,1.00000000231685,0.531679970816617
3599.99999999782,10.0669460140805,1.00000000242427,0.5648385940838
3699.99999999773,9.8240295785301,1.00000000130914,0.453504967604377
3799.99999999764,9.67066119826791,1.00000000137355,0.412805782987279
3899.99999999755,9.55431989041854,1.00000000202274,0.491877541259162
3999.99999999746,9.42025986405051,1.00000000202357,0.527582046853613
4099.99999999738,9.27710527281208,1.00000000205408,0.549267072830152
4199.99999999775,9.12324612220069,1.00000000189716,0.561852706342598
4299.99999999811,8.96819388315254,1.0000000017833,0.543890693522009
4399.99999999848,8.80276632163987,1.00000000227476,0.546279738298108
4499.99999999884,8.62261957854239,1.00000000240503,0.574617992887611
4599.9999999992,8.46743139868528,1.0000000013179,0.500034727264435
4699.99999999957,8.40047296340028,1.00000000116658,0.425162612828179
4799.99999999993,8.41962075972867,1.00000000188056,0.446097433478936
4900.00000000029,8.44136726781637,1.00000000217256,0.495580741527133
5000.00000000066,8.43681628567856,1.00000000218424,0.545499615815678
5100.00000000102,8.41263237640517,1.00000000197037,0.559603521890551
5200.00000000139,8.37428199704964,1.00000000198524,0.580993065545806
5300.00000000175,8.32673605241025,1.00000000196091,0.566135565025518
5400.00000000211,8.2655692215127,1.0000000020669,0.564335871321762
5500.00000000248,8.18543046294647,1.00000000211717,0.58341631284106
5600.00000000284,8.10131142457313,1.00000000179637,0.580950022406047
5700.00000000321,8.01695238506922,1.00000000193651,0.588112844829126
5800.00000000357,7.92320539267425,1.0000000021109,0.585424723684218
5900.00000000393,7.81788139348411,1.00000000251844,0.583071375247202
6000.0000000043,7.70373312087369,1.00000000253251,0.582088419408449
6100.00000000466,7.59706345954266,1.00000000166255,0.543628614373017
6200.00000000502,7.54591685185958,1.00000000122432,0.472110416909917
6300.00000000539,7.59241392829904,1.00000000126265,0.445899372234548
6400.00000000575,7.71216032563065,1.00000000179494,0.472349270008187
6500.00000000612,7.83511573132247,1.00000000207842,0.509776544465221
6600.00000000648,7.93857686568742,1.00000000208728,0.539753873360021
6700.00000000684,8.02582611801117,1.00000000208903,0.564212611929292
6800.00000000721,8.09051686605253,1.00000000222945,0.590185558924499
6900.00000000757,8.12756744538382,1.00000000213411,0.602705261832204
7000.00000000793,8.14742310187798,1.00000000201136,0.615085223996131
7100.0000000083,8.14465624314998,1.00000000229346,0.623288170896017
7200.00000000866,8.12399974913355,1.00000000225504,0.62053977090094
7300.00000000903,8.10116384093884,1.00000000210491,0.610016792388688
7400.00000000939,8.08141506017377,1.00000000195449,0.596886821463806
7500.00000000975,8.05976054265363,1.0000000021191,0.577564130965663
7600.00000001012,8.02486526450526,1.00000000210225,0.594766657633754
7700.00000001048,7.98904771328079,1.0000000019972,0.600900539745576
7800.00000001084,7.95839548956668,1.00000000212728,0.615874485618854
7900.00000001121,7.92079821161266,1.0000000020666,0.618129730290494
8000.00000001157,7.88290093011639,1.00000000218678,0.607922669487856
8100.00000001194,7.84060524029031,1.00000000213348,0.598112804505634
8200.0000000123,7.79348142129559,1.00000000215091,0.603461841168784
8300.00000001266,7.7343913722423,1.00000000221014,0.631447393910371
8400.00000001303,7.66916115146823,1.00000000214476,0.632774388911404
8500.00000001339,7.60414322797933,1.00000000194591,0.630276486936189
8600.00000001376,7.53883257409339,1.00000000217845,0.632606899564658
8700.00000001412,7.47237006141067,1.00000000239794,0.632609410050621
8800.00000001448,7.40569504699384,1.00000000249331,0.645802300049179
8900.00000001485,7.34008614679617,1.00000000263416,0.633485507108692
9000.00000001521,7.27035351048693,1.00000000255102,0.613230855071814
9100.00000001557,7.1945560272268,1.00000000232979,0.591738809074574
9200.00000001594,7.12956890377466,1.00000000158588,0.539392216923698
9300.0000000163,7.10861424135402,1.00000000147015,0.495252876503178
9400.00000001667,7.16679865775931,1.00000000141428,0.472079881879977
9500.00000001703,7.30869577292031,1.00000000161057,0.467341550141155
9600.00000001739,7.50358444341556,1.00000000230776,0.490452488020157
9700.00000001776,7.71573580981762,1.00000000233557,0.506933536364667
9800.00000001812,7.9132970532291,1.00000000246778,0.531466921376228
9900.00000001848,8.1022232859946,1.00000000239092,0.550767732063158
10000.0000000188,8.26776422790061,1.00000000242,0.56716996807321
10100.0000000192,8.4213673615597,1.00000000234267,0.574872829654394
10200.0000000196,8.55450962563826,1.00000000230285,0.601396100683673
10300.0000000199,8.66975131334251,1.00000000263137,0.621475392324621
10400.0000000203,8.76457049930108,1.00000000239527,0.607766419160858
10500.0000000207,8.84261149309478,1.00000000239837,0.627572487784051
10600.000000021,8.89975884815855,1.00000000236055,0.64701941026198
10700.0000000214,8.94059638320407,1.00000000227344,0.643406650563861
10800.0000000218,8.97026313219739,1.00000000225949,0.64783807327548
10900.0000000221,8.99574297585539,1.00000000235752,0.641375327312094
11000.0000000225,9.01157512924785,1.00000000268756,0.652168438944126
11100.0000000229,9.0194204328354,1.0000000022384,0.645496855697938
11200.0000000232,9.02222875193253,1.00000000246986,0.64159679331973
11300.0000000236,9.01376776041331,1.00000000250556,0.638113224312364
11400.0000000239,9.00290713729918,1.00000000232952,0.641354704700461
11500.0000000243,8.98424106631473,1.00000000231333,0.645613899560581
11600.0000000247,8.96063731147128,1.00000000227445,0.642039338752594
11700.000000025,8.93395460862944,1.00000000241829,0.658370538038013
11800.0000000254,8.90320537790933,1.00000000244969,0.657217714722879
11900.0000000258,8.86981800559215,1.00000000241827,0.652867798239654
12000.0000000261,8.83742838751434,1.00000000241396,0.635962597402698
12100.0000000265,8.80990857958132,1.00000000251951,0.622091912361383
12200.0000000269,8.79320811795038,1.00000000224571,0.610214667236314
12300.0000000272,8.78420852445397,1.00000000230059,0.611811076983705
12400.0000000276,8.78500502824462,1.00000000230664,0.622445786767722
12500.0000000279,8.78680478502799,1.00000000248346,0.617702479726183
12600.0000000283,8.78359396462279,1.00000000261173,0.633347074993092
12700.0000000287,8.77465177392111,1.00000000232517,0.629104704762541
12800.000000029,8.76923173295877,1.0000000023975,0.628175987708381
12900.0000000294,8.76158569588285,1.00000000231815,0.620711127946162
13000.0000000298,8.75414241495751,1.00000000254001,0.624082579525948
13100.0000000301,8.75091264636856,1.00000000250333,0.626611110798297
13200.0000000305,8.74734608080485,1.00000000253361,0.628103744546667
13300.0000000309,8.73604978447769,1.00000000254516,0.632727016878001
13400.0000000312,8.72675962260538,1.00000000246846,0.626957286308602
13500.0000000316,8.72125911264638,1.00000000251123,0.636634913936133
13600.0000000319,8.71641492788524,1.00000000234983,0.639761093075875
13700.0000000323,8.71764298422152,1.0000000025148,0.637857680451167
13800.0000000327,8.71480703933784,1.00000000263331,0.62438170155471
13900.000000033,8.70793486900418,1.00000000259988,0.639926982379172
14000.0000000334,8.70287855778824,1.00000000249923,0.643725889786008
14100.0000000338,8.69993549590888,1.00000000259495,0.660949214271468
14200.0000000341,8.69035889542365,1.00000000255086,0.659830551334749
14300.0000000345,8.68387151829753,1.00000000233654,0.654874958302936
14400.0000000349,8.67609775500119,1.00000000263718,0.671984491074152
14500.0000000352,8.6625288668646,1.00000000249444,0.663082373866463
14600.0000000356,8.65013784723918,1.00000000249949,0.656610573621935
14700.0000000359,8.63431081295937,1.00000000257996,0.65384193068949
14800.0000000363,8.62160981613978,1.00000000249782,0.676404851578168
14900.0000000367,8.60845730199311,1.00000000266623,0.66544008705048
15000.000000037,8.59388158967347,1.00000000267049,0.657831708493861
15100.0000000374,8.57415765685293,1.0000000028327,0.653538524933273
15200.0000000378,8.5539734599655,1.00000000232383,0.64711117594593
15300.0000000381,8.53469349808567,1.00000000266982,0.656402935650024
15400.0000000385,8.51162191434118,1.00000000277588,0.656265893916581
15500.0000000389,8.49217917502697,1.00000000254591,0.651209743666972
15600.0000000392,8.47540753846952,1.00000000277498,0.657751865221571
15700.0000000396,8.45154834740249,1.00000000245693,0.663835175447972
15800.0000000399,8.42690650347789,1.0000000027443,0.663548141310039
15900.0000000403,8.40164866008064,1.0000000024314,0.665317885345325
16000.0000000407,8.37379371444739,1.00000000258573,0.659014588713174
16100.000000041,8.34588194385974,1.00000000261866,0.662139337660104
16200.0000000414,8.31154741066931,1.00000000284001,0.669798988090326
16300.0000000418,8.27485842447457,1.00000000235572,0.658965260821413
16400.0000000418,8.24113385140386,1.00000000271421,0.666512124714615
16500.0000000404,8.20095328452276,1.00000000294046,0.6586967576529
16600.0000000389,8.15733005838575,1.00000000287252,0.661124115107059
16700.0000000375,8.11274174446761,1.00000000321452,0.654477989660253
16800.000000036,8.06798066820194,1.00000000275421,0.6732277977444
16900.0000000346,8.02261427815402,1.0000000023772,0.676580499937655
17000.0000000331,7.97734900068039,1.00000000232356,0.672808182780623
17100.0000000317,7.93314587860757,1.00000000267787,0.673425777542045
17200.0000000302,7.89008490414353,1.00000000241504,0.671287234187189
17300.0000000287,7.85040924431715,1.00000000270636,0.669404222362812
17400.0000000273,7.81449382138701,1.00000000265354,0.660769209283184
17500.0000000258,7.78446184572613,1.00000000312671,0.675023333112446
17600.0000000244,7.76258909726705,1.00000000303173,0.678931600229269
17700.0000000229,7.74516438829841,1.00000000303138,0.683418115610829
17800.0000000215,7.73820669825627,1.00000000320716,0.68471241222605
17900.00000002,7.72817562854538,1.00000000309688,0.678967040428732
18000.0000000186,7.72264923325612,1.00000000303398,0.66339340406913
18100.0000000171,7.70376794183995,1.00000000298897,0.643156317095049
18200.0000000156,7.67793458161151,1.00000000290542,0.621148328996734
18300.0000000142,7.64175322583298,1.00000000224994,0.606761731878587
18400.0000000127,7.6041958008654,1.00000000227981,0.585325028051567
18500.0000000113,7.58218250908935,1.0000000019209,0.553363494365593
18600.0000000098,7.5929235367044,1.00000000217089,0.533857894269724
18700.0000000084,7.65933663133935,1.00000000226494,0.516102955948124
18800.0000000069,7.79366281958036,1.00000000202449,0.502779032723648
18900.0000000055,8.01351295060618,1.00000000213437,0.500218012361311
19000.000000004,8.29743520502727,1.00000000238363,0.507010544907386
19100.0000000026,8.66002135589338,1.0000000026827,0.509917328715628
19200.0000000011,9.04269433916828,1.00000000277992,0.513291925900432
19299.9999999996,9.47163572985815,1.00000000287593,0.527678550152346
19399.9999999982,9.8842351137136,1.00000000290728,0.53247522742503
19499.9999999967,10.3159388981142,1.00000000322566,0.537426442514576
19599.9999999953,10.7295872651239,1.00000000287531,0.549213293881646
19699.9999999938,11.1361813251517,1.0000000031009,0.554976246243599
19799.9999999924,11.5378881306916,1.00000000301367,0.561140236162061
19899.9999999909,11.9135876733932,1.0000000032473,0.569967591423205
19999.9999999895,12.2990158807277,1.00000000274571,0.573715612258827
20099.999999988,12.6562962361265,1.00000000310298,0.589869530513701
20199.9999999865,13.0129996154911,1.00000000276894,0.600469750094316
20299.9999999851,13.3561118994826,1.00000000291955,0.613442914381726
20399.9999999836,13.6771074534012,1.00000000326859,0.608945068059552
20499.9999999822,13.9904455732626,1.00000000295459,0.628535593464003
20599.9999999807,14.2807062345887,1.00000000326724,0.64075979369192
20699.9999999793,14.559260694784,1.00000000306238,0.643635970587337
20799.9999999778,14.8098950754391,1.00000000290641,0.651384815714055
20899.9999999764,15.0530683573285,1.00000000319997,0.665309615685101
20999.9999999749,15.273828755195,1.00000000293331,0.658355746308671
21099.9999999734,15.4872520416626,1.00000000275489,0.665149716325697
21199.999999972,15.6891446289022,1.00000000313883,0.681549929743617
21299.9999999705,15.8765785928565,1.00000000314447,0.6733111215343
21399.9999999691,16.0615346676892,1.00000000298007,0.673000516853247
21499.9999999676,16.2322897501323,1.00000000308276,0.678166454104716
21599.9999999662,16.3978871149399,1.00000000317476,0.687116548583277
21699.9999999647,16.5416851323157,1.00000000310523,0.69040533652088
21799.9999999633,16.6871804649768,1.000000002818,0.675829648899449
21899.9999999618,16.8309435166047,1.00000000316393,0.673209748359403
21999.9999999603,16.957490617907,1.00000000361999,0.6896510089407
22099.9999999589,17.0723401793242,1.00000000314054,0.687456496036059
22199.9999999574,17.1796182593964,1.00000000300956,0.689277959321581
22299.999999956,17.2905188967451,1.00000000299649,0.683097508762144
22399.9999999545,17.3958908485914,1.0000000030168,0.666221024508881
22499.9999999531,17.4958433149903,1.00000000335159,0.674620129912173
22599.9999999516,17.5834510962652,1.00000000307371,0.68918291363356
22699.9999999502,17.672294937479,1.00000000314884,0.685998470563343
22799.9999999487,17.7688414983114,1.00000000335112,0.693260484778031
22899.9999999473,17.866508264812,1.0000000032395,0.687764668285021
22999.9999999458,17.9687236798397,1.00000000315388,0.679869229966185
23099.9999999443,18.0607952257162,1.00000000374535,0.687600346642542
23199.9999999429,18.1389446487413,1.00000000342389,0.688569356058817
23299.9999999414,18.2113514636815,1.00000000335736,0.695683988342227
23399.99999994,18.2856632505883,1.00000000304133,0.688941006333893
23499.9999999385,18.3733598529234,1.00000000315745,0.665135531552739
23599.9999999371,18.4581226182587,1.00000000350604,0.687832596819825
23699.9999999356,18.5329576526653,1.00000000352816,0.681802298656961
23799.9999999342,18.5958987325616,1.00000000365114,0.692054533669914
23899.9999999327,18.6719797116338,1.00000000262947,0.660012770986616
23999.9999999312,18.7626731704216,1.00000000302294,0.691558470298209
24099.9999999298,18.8555540261323,1.0000000031882,0.695917917129312
24199.9999999283,18.9393281090292,1.00000000331669,0.678836981776675
24299.9999999269,19.0190806759701,1.00000000347579,0.694980932644556
24399.9999999254,19.1074922107768,1.00000000318917,0.66811398480338
24499.999999924,19.1989721244373,1.00000000333787,0.679235303723789
24599.9999999225,19.2849556802257,1.00000000329854,0.67770961836061
24699.9999999211,19.3645974231047,1.00000000336427,0.689698100699902
24799.9999999196,19.4553880658621,1.00000000307201,0.660575778545088
24899.9999999181,19.5527880429218,1.00000000318824,0.673314754051899
24999.9999999167,19.6351406306098,1.00000000351418,0.676567663811286
25099.9999999152,19.7078559382347,1.00000000356807,0.674086625933203
25199.9999999138,19.785306162965,1.00000000310428,0.631908136823607
25299.9999999123,19.8855249561046,1.00000000342611,0.668699474867272
25399.9999999109,19.9839951198103,1.0000000035635,0.692064240084607
25499.9999999094,20.0667517255717,1.00000000385013,0.678984152392345
25599.999999908,20.1485016185534,1.00000000308554,0.678016645217087
25699.9999999065,20.2448188083191,1.00000000327633,0.664712191357019
25799.9999999051,20.3515356900508,1.0000000033276,0.676377004517298
25899.9999999036,20.4564357741143,1.00000000347558,0.684245265711328
25999.9999999021,20.5483776390185,1.000000003962,0.681343360698207
26099.9999999007,20.6361649836467,1.00000000349543,0.676262483925647
26199.9999998992,20.7191320988385,1.00000000361507,0.693665202190593
26299.9999998978,20.799660262666,1.00000000336542,0.688912948819127
26399.9999998963,20.882268473271,1.00000000332569,0.690937538969197
26499.9999998949,20.9739194010525,1.00000000347295,0.675379762225554
26599.9999998934,21.0619824279558,1.00000000362816,0.692833893739028
26699.999999892,21.1464818505958,1.00000000358141,0.691541748889714
26799.9999998905,21.2311587790691,1.00000000344366,0.692814200368801
26899.999999889,21.3204604567661,1.00000000335371,0.665652245906987
26999.9999998876,21.4109924042299,1.00000000337949,0.691197328191188
27099.9999998861,21.5025005518987,1.00000000322242,0.688758017147736
27199.9999998847,21.595056920292,1.00000000352699,0.661766709384787
27299.9999998832,21.6970272660424,1.00000000318623,0.641681810977756
27399.9999998818,21.8153769024586,1.00000000386672,0.689390775744998
27499.9999998803,21.9288200613493,1.00000000374932,0.69436688868324
27599.9999998789,22.038288441687,1.00000000375896,0.675561436072142
27699.9999998774,22.1434357895408,1.00000000362002,0.678387616812176
27799.9999998759,22.2531117380295,1.00000000357903,0.679754415059436
27899.9999998745,22.3586948769952,1.00000000363401,0.687177564073279
27999.999999873,22.4583540712422,1.00000000389002,0.700964264627656
28099.9999998716,22.5669455216484,1.00000000353413,0.687357349401105
28199.9999998701,22.6867808067075,1.00000000345845,0.684036422845241
28299.9999998687,22.80535489068,1.00000000369938,0.686077700695038
28399.9999998672,22.9280992241329,1.0000000038078,0.688901351083865
28499.9999998658,23.0599615530904,1.0000000036312,0.691491067348879
28599.9999998643,23.1996095947011,1.00000000383041,0.688778364432068
28699.9999998629,23.3473510300736,1.00000000368348,0.685565053507805
28799.9999998614,23.5070586109497,1.00000000382081,0.698298563207953
28899.9999998599,23.6699278980068,1.00000000423238,0.690152872025284
28999.9999998585,23.8191680620815,1.0000000041643,0.683320107385343
29099.999999857,23.9733040317209,1.00000000367303,0.647522608780702
