Time,AGPnorm,Energy,Entropy
0,0,1,-1.17725924015197e-17
99.9999999999986,3.33252668908977e-05,0.99999999999597,0.00138571844668861
199.999999999993,0.00313876380188254,0.999999999999034,0.00228220842232215
300,0.00766546899082684,0.999999999998458,0.00386548400478078
400.000000000022,0.0107406848947175,0.999999999996315,0.00668987356487304
500.000000000045,0.0128278177304455,1.00000000000004,0.00894748883066795
600.000000000068,0.0181946179059539,0.999999999996469,0.0123261574009793
700.000000000091,0.0225475063310683,0.999999999998235,0.0159371737160642
800.000000000113,0.0287968732899235,0.999999999999241,0.019399668398048
900.000000000136,0.0360071586887434,0.999999999995975,0.0239186514007941
1000.00000000016,0.0413168267619021,0.999999999999685,0.0281424316800526
1100.0000000001,0.0493994819310011,0.999999999997248,0.0327980562691709
1200,0.0582575878034631,0.999999999997501,0.038084710068392
1299.99999999991,0.0666965451015828,0.999999999999695,0.043073727502822
1399.99999999982,0.0758143279288585,0.999999999995958,0.048872179403177
1499.99999999973,0.0842421239467398,0.999999999999107,0.0547271963033186
1599.99999999964,0.0946678303887573,0.99999999999816,0.0606980083153867
1699.99999999955,0.106136717600308,0.999999999996885,0.0675400198722064
1799.99999999946,0.116000910775369,0.999999999999714,0.074153128003518
1899.99999999937,0.126389661347673,0.999999999996306,0.0813524636873758
1999.99999999928,0.137352455498734,0.999999999998522,0.0890412726005648
2099.99999999919,0.149107961304895,0.999999999998979,0.0967927365667874
2199.99999999909,0.161271535456834,0.999999999996464,0.105589681535421
2299.999999999,0.171801661285466,0.999999999999408,0.114424285061447
2399.99999999891,0.183023360255143,0.999999999996994,0.123891142969744
2499.99999999882,0.195433162325513,0.999999999998093,0.134488193527155
2599.99999999873,0.207513082557183,0.999999999999771,0.145469533411898
2699.99999999864,0.219050927962131,0.99999999999754,0.15801941081251
2799.99999999855,0.229573388923068,1.00000000000284,0.171563426742409
2899.99999999846,0.241766876751359,1.00000000000775,0.186388176861863
2999.99999999837,0.253143381111451,1.00000000002041,0.203304601182884
3099.99999999828,0.265503975503323,1.00000000004428,0.220573589642946
3199.99999999819,0.279310870665198,1.00000000007075,0.238795288124789
3299.99999999809,0.289191170918795,1.00000000011513,0.257074798494968
3399.999999998,0.316488811747068,1.00000000016396,0.274896839482277
3499.99999999791,0.343764572879765,1.00000000021827,0.293193419375975
3599.99999999782,0.387016071546005,1.00000000027337,0.310365698899982
3699.99999999773,0.469896867427705,1.00000000032779,0.327132640985018
3799.99999999764,0.565911160260874,1.00000000039234,0.343860508559433
3899.99999999755,0.733292410121198,1.00000000046697,0.359267116039008
3999.99999999746,0.962049102113278,1.00000000051014,0.374792818896827
4099.99999999738,1.25466376755955,1.00000000056547,0.389338329177673
4199.99999999775,1.67999199313711,1.00000000061987,0.402844550197785
4299.99999999811,2.19302472934661,1.00000000064712,0.416772448445124
4399.99999999848,2.85019717532333,1.00000000072277,0.429030619317668
4499.99999999884,3.6801374350312,1.00000000076559,0.440935489251418
4599.9999999992,4.64087147601747,1.00000000081335,0.452509789788099
4699.99999999957,5.81917341840478,1.00000000085567,0.462756033763473
4799.99999999993,7.18082234372343,1.00000000090535,0.473166313196565
4900.00000000029,8.73149669356826,1.00000000089332,0.482762952522783
5000.00000000066,10.5369425737577,1.00000000092271,0.491212196561537
5100.00000000102,12.5245091272434,1.00000000093701,0.500008667247927
5200.00000000139,14.7524333809461,1.00000000098088,0.507401370989874
5300.00000000175,17.2228532837547,1.00000000099425,0.514670406229021
5400.00000000211,19.8822429347748,1.00000000100746,0.521671869555768
5500.00000000248,22.8047044490612,1.00000000103378,0.527425751431834
5600.00000000284,25.9246838067521,1.0000000010206,0.533673788063549
5700.00000000321,29.2466033068208,1.00000000104341,0.539004272351331
5800.00000000357,32.8079976494579,1.0000000010784,0.543653608373135
5900.00000000393,36.5248337952121,1.00000000100152,0.548919753351512
6000.0000000043,40.4490118994917,1.00000000104861,0.55268585349227
6100.00000000466,44.548015819719,1.00000000105947,0.556671982346304
6200.00000000502,48.7779295821929,1.00000000106536,0.560473629825837
6300.00000000539,53.1915932004226,1.00000000106272,0.563437025812422
6400.00000000575,57.7101428563982,1.00000000102801,0.566966977192659
6500.00000000612,62.3487910040971,1.00000000102916,0.569660116749949
6600.00000000648,67.1097652756333,1.00000000105577,0.571986090926575
6700.00000000684,71.9255754382464,1.00000000097945,0.57488289897349
6800.00000000721,76.8428700681113,1.00000000099744,0.576389251082754
6900.00000000757,81.8086076632102,1.00000000104685,0.578272815776245
7000.00000000793,86.8051013099673,1.00000000097771,0.580464130799381
7100.0000000083,91.8567875081929,1.00000000099869,0.58138219911613
7200.00000000866,96.8971120019296,1.00000000100703,0.582882739350578
7300.00000000903,101.954747429539,1.00000000095408,0.584162729988559
7400.00000000939,107.004776500806,1.00000000094757,0.585318433096879
7500.00000000975,112.011982224356,1.00000000093394,0.586161388260758
7600.00000001012,117.008009355648,1.00000000095789,0.58629991481213
7700.00000001048,121.940823196693,1.00000000092653,0.587490352504697
7800.00000001084,126.819643154275,1.00000000094226,0.588097006016695
7900.00000001121,131.642746993922,1.0000000009194,0.587965135471904
8000.00000001157,136.369390331751,1.00000000089523,0.588942709784061
8100.00000001194,141.030664080537,1.00000000091304,0.588587238362772
8200.0000000123,145.590040601803,1.00000000087736,0.589159937674558
8300.00000001266,150.046062213544,1.00000000086954,0.58903320312957
8400.00000001303,154.408814616642,1.00000000086521,0.58903901211013
8500.00000001339,158.642551720642,1.00000000086871,0.588798243582092
8600.00000001376,162.770008589347,1.00000000083707,0.589169768723371
8700.00000001412,166.773585004184,1.00000000082189,0.588226628266952
8800.00000001448,170.640897529107,1.00000000080969,0.588910652755144
8900.00000001485,174.391489083114,1.00000000080128,0.587744771227642
9000.00000001521,177.993423851952,1.00000000079942,0.588022787044548
9100.00000001557,181.467024736821,1.00000000076885,0.587674500609515
9200.00000001594,184.801659090919,1.00000000076133,0.586711633186471
9300.0000000163,187.987646554537,1.00000000077054,0.587343787779011
9400.00000001667,191.040711645621,1.00000000075182,0.5858302152332
9500.00000001703,193.94288264366,1.00000000073868,0.586437774822693
9600.00000001739,196.703176880531,1.00000000070618,0.585120859122721
9700.00000001776,199.323311452586,1.00000000070959,0.585510858325428
9800.00000001812,201.791938584424,1.00000000069019,0.584244351639077
9900.00000001848,204.123668023753,1.00000000069382,0.58447059465747
10000.0000000188,206.310497387435,1.00000000070095,0.584040999252115
10100.0000000192,208.354756465385,1.00000000067891,0.582927545332409
10200.0000000196,210.264232534834,1.00000000067992,0.583970432234944
10300.0000000199,212.030645078008,1.00000000065514,0.58240545312467
10400.0000000203,213.664635632101,1.00000000064272,0.581803690097384
10500.0000000207,215.163920649509,1.00000000064309,0.582568125774751
10600.000000021,216.530029984957,1.00000000064436,0.580867254111656
10700.0000000214,217.769946611437,1.00000000064118,0.581250160441748
10800.0000000218,218.879328798564,1.00000000061858,0.581152180255074
10900.0000000221,219.86789583224,1.00000000061528,0.579705769173008
11000.0000000225,220.734213121091,1.00000000062247,0.581449702280707
11100.0000000229,221.483266947082,1.0000000005997,0.580015078328369
11200.0000000232,222.119364533965,1.00000000057652,0.577614853927009
11300.0000000236,222.639020475692,1.00000000059256,0.58208100146443
11400.0000000239,223.060152145003,1.00000000059117,0.580368086813805
11500.0000000243,223.37563456334,1.00000000055368,0.574061683600014
11600.0000000247,223.584971690214,1.00000000057295,0.579422169857016
11700.000000025,223.710094076361,1.0000000005997,0.581723967550275
11800.0000000254,223.745445154045,1.00000000055004,0.574786680839815
11900.0000000258,223.689383077181,1.000000000537,0.571767798924878
12000.0000000261,223.548759591516,1.0000000005488,0.579168444217739
12100.0000000265,223.33734526697,1.0000000005915,0.580216635616079
12200.0000000269,223.06057520953,1.00000000053809,0.571695719888209
12300.0000000272,222.702938813865,1.00000000050376,0.565163347461209
12400.0000000276,222.277097855453,1.0000000005618,0.576856708491879
12500.0000000279,221.804387802022,1.00000000059692,0.580199774078914
12600.0000000283,221.281417423668,1.00000000055394,0.568517041290572
12700.0000000287,220.696362407676,1.00000000047194,0.557648801642246
12800.000000029,220.048179139462,1.00000000055245,0.571414138872794
12900.0000000294,219.368157330547,1.00000000064267,0.582284248058708
13000.0000000298,218.662384530506,1.00000000058305,0.569799837265675
13100.0000000301,217.909008645045,1.00000000047402,0.553016746956226
13200.0000000305,217.103959211252,1.00000000049276,0.555280986684356
13300.0000000309,216.265911927707,1.00000000064266,0.580529976733338
13400.0000000312,215.419256149891,1.00000000066526,0.577834454850571
13500.0000000316,214.553895572203,1.00000000052868,0.556545625168563
13600.0000000319,213.645493478809,1.00000000046641,0.541593714291706
13700.0000000323,212.701033879464,1.00000000055519,0.556487810109544
13800.0000000327,211.743712049783,1.00000000068033,0.584089198658613
13900.000000033,210.791024007681,1.0000000006614,0.571038690877696
14000.0000000334,209.826229971281,1.00000000055562,0.549305128968345
14100.0000000338,208.828126418921,1.0000000004648,0.533189109824052
14200.0000000341,207.80267447391,1.00000000055038,0.548368890707459
14300.0000000345,206.77226832554,1.00000000072888,0.583042455504723
14400.0000000349,205.753870083335,1.00000000069372,0.571226201501201
14500.0000000352,204.734960282832,1.00000000058088,0.546766651254254
14600.0000000356,203.695797896123,1.00000000046565,0.530433398100378
14700.0000000359,202.633521322536,1.00000000050595,0.532251540757527
14800.0000000363,201.562972981578,1.00000000065624,0.566082676896049
14900.0000000367,200.504967283316,1.00000000075402,0.581821660633359
15000.000000037,199.460206787141,1.00000000064706,0.552371780431788
15100.0000000374,198.410007428851,1.00000000054242,0.531890942110785
15200.0000000378,197.346862791854,1.00000000049277,0.525821584280034
15300.0000000381,196.270399822574,1.00000000053821,0.534054447958018
15400.0000000385,195.194909764256,1.00000000069102,0.565430135196427
15500.0000000389,194.135112932242,1.00000000075481,0.575158926271484
15600.0000000392,193.087333364911,1.00000000065276,0.54719419212437
15700.0000000396,192.040389435243,1.00000000052141,0.52416623605738
15800.0000000399,190.986324276091,1.0000000005367,0.527000410594131
15900.0000000403,189.926056196022,1.00000000055347,0.53089245695127
16000.0000000407,188.868243400797,1.00000000064168,0.547034222202311
16100.000000041,187.820718107181,1.00000000072199,0.567969947329959
16200.0000000414,186.787015527211,1.00000000070789,0.55552643762491
16300.0000000418,185.761276912133,1.00000000057086,0.525901815512504
16400.0000000418,184.735405055364,1.00000000054379,0.524746543580858
16500.0000000404,183.710492393135,1.00000000055149,0.531207907178706
16600.0000000389,182.685763755146,1.00000000059799,0.532063640288804
16700.0000000375,181.666414904111,1.00000000063496,0.541516333601117
16800.000000036,180.657708566356,1.00000000068841,0.554654348919723
16900.0000000346,179.659500628632,1.00000000067331,0.546634776917702
17000.0000000331,178.669783552536,1.00000000061694,0.528474913471022
17100.0000000317,177.685458035586,1.00000000057312,0.523077182465292
17200.0000000302,176.705403937488,1.0000000005671,0.530745687893502
17300.0000000287,175.730188258589,1.00000000058491,0.534562611757777
17400.0000000273,174.760032968102,1.00000000060539,0.531419274416428
17500.0000000258,173.797900665201,1.00000000060846,0.532450475719185
17600.0000000244,172.844765389412,1.00000000065478,0.540268830744104
17700.0000000229,171.900311256421,1.00000000066321,0.540169173557464
17800.0000000215,170.964779163986,1.00000000059554,0.528465768505132
17900.00000002,170.036226859181,1.00000000055824,0.525262492610234
18000.0000000186,169.115225453775,1.00000000056119,0.534489190789469
18100.0000000171,168.200836538824,1.00000000058524,0.535561090998057
18200.0000000156,167.29328963093,1.00000000057886,0.528189659277305
18300.0000000142,166.393433552889,1.0000000005949,0.521107725371747
18400.0000000127,165.501438829142,1.0000000006116,0.527377969968983
18500.0000000113,164.617811464181,1.00000000063513,0.537623364101998
18600.0000000098,163.743101729146,1.00000000062165,0.537095605745082
18700.0000000084,162.876482181803,1.00000000060051,0.532395312154084
18800.0000000069,162.018651601723,1.00000000058404,0.531470746198866
18900.0000000055,161.168898678819,1.00000000060715,0.538813755718508
19000.000000004,160.327551928738,1.00000000055848,0.534123063612065
19100.0000000026,159.494019250854,1.00000000057216,0.525454811626859
19200.0000000011,158.668327124624,1.0000000005727,0.518341731220479
19299.9999999996,157.851382302528,1.00000000056834,0.518360552471075
19399.9999999982,157.043040499939,1.00000000060615,0.528954251456206
19499.9999999967,156.242672457154,1.00000000062573,0.543172153982512
19599.9999999953,155.450650382698,1.00000000061324,0.541462766082453
19699.9999999938,154.666663577702,1.00000000061126,0.53598611255226
19799.9999999924,153.89125952279,1.00000000060563,0.539264467934235
19899.9999999909,153.124372874181,1.00000000059705,0.542012156837051
19999.9999999895,152.366570505733,1.00000000056868,0.534146716148624
20099.999999988,151.618190478792,1.00000000052107,0.51791099012851
20199.9999999865,150.879074602919,1.0000000005552,0.513547679208775
20299.9999999851,150.149106411081,1.00000000059758,0.517396431716546
20399.9999999836,149.427785285825,1.00000000059703,0.524843865927631
20499.9999999822,148.713950447377,1.00000000062401,0.537741352586191
20599.9999999807,148.007621957302,1.00000000061354,0.544282359586348
20699.9999999793,147.308664252671,1.00000000058773,0.542129086622184
20799.9999999778,146.61714234396,1.00000000061211,0.54096554003898
20899.9999999764,145.932572930158,1.00000000066294,0.547225941681461
20999.9999999749,145.255864844576,1.00000000057516,0.540469004670059
21099.9999999734,144.589173668056,1.00000000052745,0.529325002095217
21199.999999972,143.933632600198,1.00000000049343,0.512605491512592
21299.9999999705,143.289207541513,1.00000000051969,0.507400682112666
21399.9999999691,142.654133724951,1.00000000062547,0.514839911869875
21499.9999999676,142.026350601087,1.00000000061478,0.523079209416597
21599.9999999662,141.405654787977,1.00000000058777,0.520213359055549
21699.9999999647,140.791650070101,1.00000000058646,0.530181281564341
21799.9999999633,140.183486490693,1.00000000061378,0.544513847874123
21899.9999999618,139.581151169975,1.00000000062817,0.545389686901014
21999.9999999603,138.98390634108,1.00000000065314,0.546403499564847
22099.9999999589,138.391692698054,1.00000000064546,0.548099611191464
22199.9999999574,137.806249930093,1.00000000059276,0.539357225111301
22299.999999956,137.230539379861,1.000000000524,0.525379112960839
22399.9999999545,136.667382258646,1.0000000004789,0.514498551646013
22499.9999999531,136.116755021839,1.0000000005119,0.505950596267827
22599.9999999516,135.576550982486,1.00000000058007,0.50451916645054
22699.9999999502,135.043998863853,1.00000000064043,0.515041925284204
22799.9999999487,134.516850898286,1.00000000063697,0.516841328276925
22899.9999999473,133.995765009777,1.00000000060932,0.514759803411311
22999.9999999458,133.47958094371,1.00000000061335,0.525795808459502
23099.9999999443,132.967081956082,1.00000000060935,0.539934343289056
23199.9999999429,132.457681420945,1.00000000062361,0.549301023546228
23299.9999999414,131.95109978077,1.00000000064149,0.547233860575833
23399.99999994,131.448008681464,1.00000000066043,0.544360740483343
23499.9999999385,130.949413468964,1.00000000064401,0.540370603257884
23599.9999999371,130.458376108829,1.00000000056514,0.529401700514686
23699.9999999356,129.978293910197,1.00000000055375,0.518675224018487
23799.9999999342,129.510342188047,1.00000000051804,0.516405301846705
23899.9999999327,129.053878039693,1.00000000053074,0.511728744722473
23999.9999999312,128.607972286951,1.00000000055128,0.504172545385557
24099.9999999298,128.169930231166,1.00000000060207,0.506485648746478
24199.9999999283,127.73776920614,1.00000000063177,0.512916692038267
24299.9999999269,127.309666446508,1.0000000006239,0.515292188915962
24399.9999999254,126.885585725358,1.00000000060966,0.516902862439393
24499.999999924,126.463789675815,1.00000000062623,0.526783377994644
24599.9999999225,126.04228619464,1.00000000066927,0.539138672133559
24699.9999999211,125.620612138015,1.00000000067643,0.548775250210889
24799.9999999196,125.199767493472,1.00000000061377,0.547177553350852
24899.9999999181,124.78245837035,1.00000000060184,0.539144749070679
24999.9999999167,124.370222703803,1.00000000060962,0.535401980068868
25099.9999999152,123.964020147973,1.00000000060292,0.534187213742517
25199.9999999138,123.565287510486,1.00000000059161,0.529613547424574
25299.9999999123,123.17617907212,1.00000000054595,0.52082378389128
25399.9999999109,122.79767342477,1.00000000053642,0.518713551318511
25499.9999999094,122.429765026493,1.00000000053991,0.517993100627974
25599.999999908,122.070767933808,1.00000000056209,0.511077872976221
25699.9999999065,121.72070328233,1.00000000056052,0.506515195515595
25799.9999999051,121.377750746373,1.00000000060269,0.511091739925097
25899.9999999036,121.039568018127,1.00000000061892,0.513693367937202
25999.9999999021,120.704710158225,1.00000000061431,0.522462648003295
26099.9999999007,120.37070128523,1.00000000063772,0.526846657184736
26199.9999998992,120.035670927534,1.00000000066552,0.531847876648972
26299.9999998978,119.699354272949,1.0000000006515,0.535803467823451
26399.9999998963,119.361506589388,1.00000000064592,0.544320150104893
26499.9999998949,119.024342902242,1.00000000061334,0.543787494309968
26599.9999998934,118.690188091429,1.00000000058911,0.541801322517363
26699.999999892,118.360521514952,1.00000000059679,0.537840945118597
26799.9999998905,118.036140737939,1.00000000059471,0.535829416221647
26899.999999889,117.717295160338,1.00000000059162,0.536883769092359
26999.9999998876,117.404232752958,1.00000000061044,0.535304184284828
27099.9999998861,117.098060927767,1.00000000058422,0.528700214313668
27199.9999998847,116.801162582965,1.00000000055514,0.522996495147993
27299.9999998832,116.514770914024,1.00000000054177,0.521657772871613
27399.9999998818,116.237491593191,1.00000000056684,0.520645525927469
27499.9999998803,115.968849819188,1.0000000005762,0.515626452130291
27599.9999998789,115.707235576684,1.00000000056956,0.516932009832706
27699.9999998774,115.451861839696,1.00000000059601,0.519424508864186
27799.9999998759,115.200123605225,1.00000000061673,0.525062133278895
27899.9999998745,114.950446181918,1.00000000060971,0.531296178455411
27999.999999873,114.701001089561,1.00000000065607,0.539632119549154
28099.9999998716,114.449955566318,1.00000000064421,0.536527692807839
28199.9999998701,114.196500783842,1.00000000066214,0.542083274299772
28299.9999998687,113.940613080831,1.00000000064112,0.543061091808722
28399.9999998672,113.683371490792,1.00000000062181,0.545755858908684
28499.9999998658,113.427628519471,1.00000000059774,0.544665147667124
28599.9999998643,113.175455450622,1.00000000056418,0.542197573513699
28699.9999998629,112.927976861866,1.00000000061053,0.544081924145932
28799.9999998614,112.683919374614,1.00000000061429,0.544511032670611
28899.9999998599,112.442673909673,1.00000000059328,0.543377810432452
