Time,AGPnorm,Energy,Entropy
0,0,1,-1.4035012369839e-17
99.9999999999986,3.78883963177127e-05,0.999999999999945,0.00152929023598455
199.999999999993,0.00350499054959869,0.999999999997808,0.00251958538191162
300,0.00871562555884929,1.00000000000124,0.00439192185651267
400.000000000022,0.0122349090697894,0.999999999998157,0.00741372195606379
500.000000000045,0.0147627435636148,0.999999999999307,0.0101524689865109
600.000000000068,0.0208231149726212,1.00000000000061,0.0138881851320989
700.000000000091,0.026129058117213,0.999999999997506,0.017870959284868
800.000000000113,0.0331427786817899,1.0000000000011,0.0220385825539217
900.000000000136,0.0410117440161976,0.999999999998687,0.0268886970371552
1000.00000000016,0.0475206634669003,0.999999999998532,0.0318587993636904
1100.0000000001,0.0567996991090042,1.00000000000119,0.0371496045702274
1200,0.0671780862567973,0.999999999997515,0.0429456822500211
1299.99999999991,0.0765563901523769,1.00000000000058,0.0489567480894343
1399.99999999982,0.0864250505420594,0.999999999999353,0.0553018245802045
1499.99999999973,0.0965974578334027,0.999999999997955,0.0621011420443486
1599.99999999964,0.108307983383306,1.00000000000156,0.069124180159461
1699.99999999955,0.121040269085602,0.999999999997719,0.0767206690213795
1799.99999999946,0.132013891450644,0.999999999999744,0.0847185883119638
1899.99999999937,0.14347494107609,1.00000000000009,0.0929381349155848
1999.99999999928,0.156316300989806,0.999999999997711,0.10198056415464
2099.99999999919,0.169048929437456,1.00000000000156,0.111488706329675
2199.99999999909,0.18185465558466,0.999999999998149,0.121692659754174
2299.999999999,0.193529628832844,0.999999999999018,0.132792872392885
2399.99999999891,0.2060371655891,1.00000000000111,0.144610553508237
2499.99999999882,0.219716576937273,0.999999999999085,0.158092335357738
2599.99999999873,0.232414543093616,1.00000000000597,0.172985789923201
2699.99999999864,0.244216615764785,1.00000000001216,0.189409956615225
2799.99999999855,0.255160317354157,1.00000000003185,0.207625599053007
2899.99999999846,0.270820280242922,1.00000000006301,0.226736455676366
2999.99999999837,0.282613401677527,1.00000000010116,0.246715256552201
3099.99999999828,0.300877437377222,1.00000000016173,0.266575964052386
3199.99999999819,0.328528632946361,1.00000000022415,0.285769955905135
3299.99999999809,0.360424840305489,1.00000000030222,0.304991455664291
3399.999999998,0.42896835171956,1.00000000036687,0.323519320456453
3499.99999999791,0.521048710377851,1.00000000043314,0.341538166248288
3599.99999999782,0.659300617830145,1.00000000053655,0.358999562773131
3699.99999999773,0.874002072737699,1.00000000059264,0.375207923983456
3799.99999999764,1.15564711301121,1.00000000068134,0.39141831876836
3899.99999999755,1.54517226061302,1.00000000075192,0.40664436835227
3999.99999999746,2.05982427260529,1.00000000081347,0.420588981778343
4099.99999999738,2.70047883999884,1.0000000008504,0.434652824467
4199.99999999775,3.50840120076223,1.0000000009233,0.447116489832033
4299.99999999811,4.49089617418123,1.0000000009467,0.459488020522586
4399.99999999848,5.64732535098051,1.00000000101954,0.470980785961907
4499.99999999884,7.02366432397876,1.00000000107083,0.48097909788414
4599.9999999992,8.60140840261705,1.00000000103222,0.491515606729707
4699.99999999957,10.3864301727547,1.00000000112872,0.500588689538329
4799.99999999993,12.4213951433569,1.0000000011546,0.508817542201561
4900.00000000029,14.6533560388943,1.00000000113177,0.517408455322339
5000.00000000066,17.1223429878156,1.00000000118013,0.52430131394693
5100.00000000102,19.8249659750327,1.00000000121366,0.531360742683766
5200.00000000139,22.7091370780761,1.00000000120987,0.537978787574337
5300.00000000175,25.8427955438263,1.00000000122994,0.543075837079935
5400.00000000211,29.1546079419434,1.00000000121889,0.549051863220959
5500.00000000248,32.6463936227901,1.00000000121731,0.553894299065179
5600.00000000284,36.3508562099429,1.00000000123329,0.558267301862337
5700.00000000321,40.1736922046949,1.00000000123293,0.56295603690946
5800.00000000357,44.1802361850513,1.00000000123195,0.566198488290078
5900.00000000393,48.3193449926399,1.00000000121642,0.570022843234265
6000.0000000043,52.54730658905,1.00000000121393,0.573290255072338
6100.00000000466,56.9257483472718,1.0000000011945,0.575584149754582
6200.00000000502,61.3516694861654,1.0000000011779,0.578916811842209
6300.00000000539,65.8656558836205,1.00000000114871,0.580811152054391
6400.00000000575,70.4529313109599,1.00000000116968,0.582814262819899
6500.00000000612,75.0401408486347,1.00000000116017,0.585299329635681
6600.00000000648,79.6961580972984,1.00000000114601,0.586312891127614
6700.00000000684,84.3375588380648,1.00000000115156,0.588104007140088
6800.00000000721,88.9732374197782,1.00000000111944,0.589202854088682
6900.00000000757,93.6211068061766,1.00000000115335,0.589854921575841
7000.00000000793,98.1980908293299,1.00000000110119,0.591893397509784
7100.0000000083,102.765221162216,1.0000000010923,0.591781844874674
7200.00000000866,107.268847906064,1.00000000109047,0.592443970548749
7300.00000000903,111.693908336015,1.00000000102152,0.593534012823593
7400.00000000939,116.074763184305,1.00000000105456,0.593369710534692
7500.00000000975,120.33844095909,1.00000000104569,0.594030888815752
7600.00000001012,124.529703426846,1.00000000102479,0.593568919102998
7700.00000001048,128.622153921168,1.00000000101502,0.594164903133247
7800.00000001084,132.58731069714,1.00000000097285,0.594523565912683
7900.00000001121,136.465724775524,1.00000000095609,0.594093261398129
8000.00000001157,140.201165694039,1.00000000098686,0.593912422662905
8100.00000001194,143.822688026179,1.00000000093952,0.594588399074355
8200.0000000123,147.323130800633,1.0000000009036,0.593057886616279
8300.00000001266,150.671253529559,1.00000000094731,0.594294920801896
8400.00000001303,153.906649482042,1.00000000091129,0.592103216204331
8500.00000001339,156.98878716051,1.00000000088175,0.593754821840673
8600.00000001376,159.935272647748,1.00000000087569,0.591793587799017
8700.00000001412,162.749869997861,1.00000000086874,0.592473351781133
8800.00000001448,165.405085481477,1.00000000085914,0.591175511621347
8900.00000001485,167.933025163901,1.00000000083414,0.591613214705666
9000.00000001521,170.311084076404,1.00000000084096,0.590237847587331
9100.00000001557,172.543084241029,1.00000000082031,0.590669010261179
9200.00000001594,174.646382769817,1.00000000080868,0.589306306020929
9300.0000000163,176.590704576394,1.00000000079924,0.589266125424387
9400.00000001667,178.410480887026,1.00000000079468,0.589119699618464
9500.00000001703,180.086135289491,1.00000000077093,0.587679671463329
9600.00000001739,181.622497099251,1.00000000079404,0.588684381015779
9700.00000001776,183.035255919151,1.0000000007428,0.587134398238122
9800.00000001812,184.303656992055,1.00000000073847,0.587354193976407
9900.00000001848,185.452360295319,1.0000000007266,0.58657958113118
10000.0000000188,186.473011485111,1.0000000007227,0.58656062052621
10100.0000000192,187.367434851391,1.00000000068954,0.585623106128903
10200.0000000196,188.149322355176,1.00000000069773,0.585351360082913
10300.0000000199,188.807772839208,1.00000000071355,0.587034290645995
10400.0000000203,189.360704543234,1.00000000066767,0.584191553798049
10500.0000000207,189.802179207044,1.00000000067116,0.584627935604472
10600.000000021,190.137103279223,1.00000000066622,0.58699462770644
10700.0000000214,190.380867129131,1.0000000006659,0.583434358571574
10800.0000000218,190.520243555024,1.00000000064087,0.582358739403397
10900.0000000221,190.572769088,1.00000000067533,0.584988902550637
11000.0000000225,190.543424151734,1.00000000067782,0.583990442124153
11100.0000000229,190.428830100401,1.00000000063824,0.579209445833894
11200.0000000232,190.236582576566,1.00000000067275,0.579957578510057
11300.0000000236,189.970517365316,1.00000000069211,0.58582395951705
11400.0000000239,189.64630809073,1.00000000066414,0.579890889633396
11500.0000000243,189.250901517358,1.00000000059853,0.56988977220713
11600.0000000247,188.788495862876,1.00000000068946,0.583377776370032
11700.000000025,188.28919312557,1.00000000072041,0.583282578171266
11800.0000000254,187.737618093079,1.00000000061884,0.568086081116784
11900.0000000258,187.127034671222,1.00000000061337,0.56676294403451
12000.0000000261,186.476183756504,1.00000000072129,0.584602954525995
12100.0000000265,185.796758938101,1.00000000068392,0.577912222188914
12200.0000000269,185.082802387645,1.00000000060309,0.562650690064563
12300.0000000272,184.316737018512,1.00000000060366,0.561722701010499
12400.0000000276,183.524316604473,1.00000000074741,0.583449761175292
12500.0000000279,182.722319988396,1.00000000075097,0.575960273115736
12600.0000000283,181.89352733086,1.00000000060936,0.56001080085925
12700.0000000287,181.03034870663,1.00000000059583,0.550106195997388
12800.000000029,180.139415043208,1.00000000074066,0.577938741000022
12900.0000000294,179.247926234146,1.00000000079619,0.579715555157064
13000.0000000298,178.350558660835,1.00000000065547,0.560899842121827
13100.0000000301,177.425470091651,1.00000000057077,0.543959438872874
13200.0000000305,176.476619807285,1.00000000063424,0.554298122710132
13300.0000000309,175.524169703491,1.00000000087048,0.586913599107078
13400.0000000312,174.578876761869,1.00000000074617,0.563927998990119
13500.0000000316,173.628664824568,1.00000000064598,0.550397131512671
13600.0000000319,172.656165046265,1.00000000056495,0.535617783914663
13700.0000000323,171.671297671082,1.00000000069591,0.557939909733713
13800.0000000327,170.693928328209,1.00000000086679,0.584209956299099
13900.000000033,169.725215624129,1.00000000072739,0.5564406329807
14000.0000000334,168.756866532012,1.00000000066004,0.543576671610542
14100.0000000338,167.774366217382,1.00000000060294,0.534737612568835
14200.0000000341,166.784921245569,1.00000000069521,0.548284339904874
14300.0000000345,165.802053265103,1.00000000087161,0.576964978531406
14400.0000000349,164.830732214837,1.00000000077802,0.560635983934449
14500.0000000352,163.865609161515,1.00000000069501,0.539215401183311
14600.0000000356,162.89584250475,1.00000000061128,0.536309115181856
14700.0000000359,161.922249872848,1.00000000065604,0.540539308350316
14800.0000000363,160.950467887706,1.0000000007327,0.553664080170191
14900.0000000367,159.988739759719,1.00000000083404,0.569420919917053
15000.000000037,159.038682025439,1.00000000071475,0.547041788225763
15100.0000000374,158.091816881482,1.00000000067545,0.531022741714911
15200.0000000378,157.146986261991,1.00000000065013,0.539030057416528
15300.0000000381,156.203329240136,1.00000000070349,0.544120535313524
15400.0000000385,155.263870898673,1.00000000071893,0.546009508704252
15500.0000000389,154.333986669734,1.00000000077096,0.554970039434144
15600.0000000392,153.413046124843,1.00000000077089,0.548795070818014
15700.0000000396,152.499683914762,1.00000000066618,0.528747767951671
15800.0000000399,151.590887461401,1.00000000066759,0.534317383736149
15900.0000000403,150.686580965176,1.00000000072948,0.54881325773804
16000.0000000407,149.789259024957,1.00000000070313,0.543133199747874
16100.000000041,148.897943730563,1.00000000070736,0.5381502815272
16200.0000000414,148.014695821521,1.00000000075433,0.546242122226369
16300.0000000418,147.140581001356,1.00000000072558,0.540279729257888
16400.0000000418,146.273081577513,1.00000000070431,0.531572651696274
16500.0000000404,145.413501546067,1.00000000069811,0.538416606691488
16600.0000000389,144.560709427001,1.00000000071785,0.548096152291327
16700.0000000375,143.715369686875,1.00000000070292,0.544781943097498
16800.000000036,142.877491068346,1.00000000070489,0.534888597724574
16900.0000000346,142.046788700162,1.00000000068369,0.532382057976101
17000.0000000331,141.224467134266,1.00000000073334,0.538786863861346
17100.0000000317,140.410231636101,1.00000000071911,0.541542922783111
17200.0000000302,139.604103801804,1.00000000067152,0.537812659419535
17300.0000000287,138.806555281317,1.00000000071476,0.543516725061969
17400.0000000273,138.016797853589,1.00000000068299,0.549213198349399
17500.0000000258,137.235319995513,1.00000000068087,0.542055556672752
17600.0000000244,136.461611128407,1.0000000006704,0.530120300884772
17700.0000000229,135.696028952485,1.00000000063171,0.529229182454668
17800.0000000215,134.939116198387,1.00000000072868,0.538004331248557
17900.00000002,134.190119512584,1.0000000007196,0.548886716982114
18000.0000000186,133.449445440353,1.00000000069124,0.543283511926548
18100.0000000171,132.717143579513,1.00000000072052,0.542137542584656
18200.0000000156,131.993267455463,1.00000000071127,0.550299391025708
18300.0000000142,131.278217472037,1.00000000064181,0.546620210725457
18400.0000000127,130.572036809019,1.0000000006297,0.531793931959136
18500.0000000113,129.874954151042,1.00000000067084,0.528523776719825
18600.0000000098,129.186526864509,1.00000000072098,0.533314373945159
18700.0000000084,128.506398121925,1.00000000069076,0.538083086909233
18800.0000000069,127.834441741354,1.00000000071352,0.548649402719147
18900.0000000055,127.170001772507,1.000000000703,0.550257096291732
19000.000000004,126.513173185964,1.00000000072616,0.546177595251489
19100.0000000026,125.864279328076,1.0000000007452,0.548479045076231
19200.0000000011,125.223719953847,1.00000000068876,0.547738776807587
19299.9999999996,124.593437107717,1.00000000060168,0.535286141874122
19399.9999999982,123.973631457608,1.00000000061618,0.525225007552383
19499.9999999967,123.362786804851,1.0000000006954,0.529290758110051
19599.9999999953,122.759677083064,1.0000000007503,0.531992874894147
19699.9999999938,122.164497971309,1.00000000069051,0.533809878650232
19799.9999999924,121.576476844943,1.0000000007135,0.54383760157112
19899.9999999909,120.994716202872,1.00000000072551,0.553253335896804
19999.9999999895,120.419169948285,1.00000000072808,0.550423388314418
20099.999999988,119.850204879823,1.00000000073001,0.548811883841509
20199.9999999865,119.288484750126,1.00000000074562,0.54643083641537
20299.9999999851,118.736375619957,1.000000000624,0.537401011000532
20399.9999999836,118.195819843151,1.00000000059838,0.52893275694655
20499.9999999822,117.665928766597,1.00000000063863,0.521528091174118
20599.9999999807,117.144508472815,1.00000000076273,0.525599037263511
20699.9999999793,116.629483941705,1.00000000074048,0.529558236590229
20799.9999999778,116.120603724392,1.00000000070533,0.525901615504706
20899.9999999764,115.617643813812,1.0000000007237,0.53267557797882
20999.9999999749,115.118900288479,1.00000000073432,0.549471882065068
21099.9999999734,114.624274607339,1.00000000073242,0.554744154515491
21199.999999972,114.134564401499,1.00000000075789,0.549349357560667
21299.9999999705,113.650095519638,1.00000000075715,0.545924210243641
21399.9999999691,113.173469217797,1.00000000066893,0.538445322372372
21499.9999999676,112.707350910165,1.00000000062949,0.530452388468269
21599.9999999662,112.252536648709,1.00000000063017,0.53046539690334
21699.9999999647,111.807802186299,1.00000000065306,0.524862301120799
21799.9999999633,111.370535132857,1.00000000070317,0.520710935648815
21899.9999999618,110.939409380977,1.00000000074577,0.524053538025054
21999.9999999603,110.513116578157,1.00000000070831,0.522736555301019
22099.9999999589,110.091848723911,1.00000000072378,0.525321011685252
22199.9999999574,109.673751311858,1.00000000075948,0.534965706086687
22299.999999956,109.256578173357,1.00000000076578,0.548925098504372
22399.9999999545,108.841369213773,1.00000000073531,0.554485728254649
22499.9999999531,108.430210073121,1.00000000072378,0.546554084885306
22599.9999999516,108.024671980886,1.00000000072341,0.538232171356394
22699.9999999502,107.626963015073,1.00000000066905,0.535359536983369
22799.9999999487,107.238313052511,1.00000000066581,0.535469856946721
22899.9999999473,106.859401008598,1.00000000066412,0.532495077314126
22999.9999999458,106.489687465155,1.00000000067348,0.533782035128781
23099.9999999443,106.127691390964,1.0000000006876,0.52675614072671
23199.9999999429,105.773381126644,1.00000000067873,0.519891946676487
23299.9999999414,105.424670615085,1.00000000071984,0.519732265937112
23399.99999994,105.08049240947,1.00000000071992,0.522417373540763
23499.9999999385,104.739343278325,1.00000000070774,0.529591032101542
23599.9999999371,104.39935440896,1.00000000074425,0.531978942736672
23699.9999999356,104.059005998349,1.0000000007959,0.538548694237703
23799.9999999342,103.718257289664,1.00000000074972,0.548417916102554
23899.9999999327,103.379231175838,1.00000000073173,0.549894435310376
23999.9999999312,103.045050560949,1.00000000065427,0.541173846142134
24099.9999999298,102.717609856772,1.00000000067473,0.536492375127952
24199.9999999283,102.397535092668,1.00000000069608,0.538664017722325
24299.9999999269,102.084578371238,1.00000000068844,0.541056075347305
24399.9999999254,101.778778006077,1.00000000067878,0.540644260719974
24499.999999924,101.481332823538,1.00000000068658,0.534626446448838
24599.9999999225,101.191623993233,1.00000000068882,0.533599312912596
24699.9999999211,100.909068977984,1.00000000072212,0.528966014406498
24799.9999999196,100.632482992271,1.00000000068357,0.524763169339902
24899.9999999181,100.362196054059,1.000000000671,0.524027019840612
24999.9999999167,100.095833719849,1.0000000007175,0.529703301249771
25099.9999999152,99.8308407353885,1.00000000072768,0.535066964695743
25199.9999999138,99.5669349453881,1.00000000073935,0.537507930853583
25299.9999999123,99.3015888955549,1.00000000079227,0.539577645412348
25399.9999999109,99.0345371775264,1.00000000078082,0.540069905363949
25499.9999999094,98.767687366973,1.00000000073324,0.547977994075444
25599.999999908,98.5033578444942,1.00000000068078,0.548029870873238
25699.9999999065,98.244186031537,1.00000000069632,0.544274930866352
25799.9999999051,97.9908367291377,1.00000000068941,0.543882149328957
25899.9999999036,97.7432857090932,1.00000000069841,0.545072289699719
25999.9999999021,97.5011432732652,1.00000000068928,0.546911895597362
26099.9999999007,97.2642923496401,1.00000000068301,0.545668495445011
26199.9999998992,97.0345983545432,1.0000000006634,0.540395763993429
26299.9999998978,96.8130649622754,1.00000000066511,0.535093638144465
26399.9999998963,96.5988294091377,1.00000000068921,0.534281402462581
26499.9999998949,96.3901942699913,1.00000000071969,0.534466202344362
26599.9999998934,96.1856205995914,1.00000000070486,0.531683560673924
26699.999999892,95.9860878057636,1.00000000066541,0.531030923145452
26799.9999998905,95.79072546127,1.00000000067319,0.533093103570165
26899.999999889,95.5976452188271,1.00000000071635,0.539316509524927
26999.9999998876,95.4052886706397,1.00000000073085,0.545325719040116
27099.9999998861,95.2118696168751,1.00000000075694,0.543673502433068
27199.9999998847,95.0164138796741,1.00000000075505,0.544659072203948
27299.9999998832,94.8183654986402,1.00000000074663,0.54674634605606
27399.9999998818,94.620004361351,1.0000000007107,0.545388658538984
27499.9999998803,94.4242008904633,1.00000000069042,0.547341920696405
27599.9999998789,94.2316677223967,1.00000000069692,0.551476780023237
27699.9999998774,94.0429181810145,1.00000000071662,0.552230705402016
27799.9999998759,93.8570575859019,1.000000000723,0.552350215253529
27899.9999998745,93.6738748328803,1.00000000071092,0.550246842858766
27999.999999873,93.4944635540616,1.00000000070859,0.547819279297128
28099.9999998716,93.3198264295857,1.00000000069407,0.545587384206553
28199.9999998701,93.1520004587385,1.00000000066253,0.541480109783668
28299.9999998687,92.9918792807076,1.00000000065487,0.537615689590803
28399.9999998672,92.8376220589331,1.00000000067384,0.539654740168959
28499.9999998658,92.6887797210285,1.00000000069224,0.536917097000638
28599.9999998643,92.5426536946504,1.00000000072991,0.537597708756882
28699.9999998629,92.3994326296187,1.00000000072335,0.535988527656932
28799.9999998614,92.2605617755719,1.00000000067639,0.536654995368892
28899.9999998599,92.1247963518281,1.00000000071862,0.540848152955475
