Time,AGPnorm,Energy,Entropy
0,0,1,-1.23932562866339e-17
99.9999999999986,7.82485053171234e-06,1.0000000000016,0.000390793217713922
199.999999999993,0.000675974756020369,1.0000000000012,0.000605099313468219
300,0.00169038629584404,1.00000000000023,0.00109522144165029
400.000000000022,0.00234164456953226,1.00000000000213,0.00188036871708227
500.000000000045,0.00289554118434572,1.00000000000017,0.00250882286553834
600.000000000068,0.00413894540818063,1.00000000000127,0.00356382746000434
700.000000000091,0.00505844129481848,1.00000000000152,0.00455190042876971
800.000000000113,0.00656985483974759,1.00000000000007,0.00564737039901586
900.000000000136,0.00830748802046071,1.00000000000207,0.00698451834624725
1000.00000000016,0.0097296343419341,1.00000000000042,0.00818862103454092
1100.0000000001,0.0116348801890429,1.00000000000093,0.00969415608306913
1200,0.0135670885432028,1.0000000000018,0.0111841143613496
1299.99999999991,0.0158296924070693,1.00000000000001,0.0127126963587058
1399.99999999982,0.0183170156682652,1.00000000000191,0.014466011933248
1499.99999999973,0.0205781407280514,1.00000000000071,0.0161049460027139
1599.99999999964,0.0232723099342853,1.00000000000062,0.017972970442997
1699.99999999955,0.0261027131480701,1.000000000002,0.0198641228160042
1799.99999999946,0.0290712728151202,1.00000000000006,0.0217540777672434
1899.99999999937,0.0321643346502029,1.00000000000165,0.0238597753461868
1999.99999999928,0.0351672454346778,1.00000000000102,0.0258716297252232
2099.99999999919,0.0386423527471814,1.00000000000037,0.028059069828602
2199.99999999909,0.0422958020395577,1.0000000000021,0.0303054219239525
2299.999999999,0.0459028639433293,1.00000000000018,0.0325234486441554
2399.99999999891,0.0495218392395809,1.00000000000133,0.0349500715790061
2499.99999999882,0.0531861817511454,1.00000000000134,0.0373092171594802
2599.99999999873,0.0573335017825497,1.00000000000022,0.0398016289493303
2699.99999999864,0.0616467524001316,1.00000000000207,0.042389605259655
2799.99999999855,0.0657992614433227,1.00000000000035,0.044925612643316
2899.99999999846,0.0699480329976207,1.000000000001,0.0476656863555272
2999.99999999837,0.0742349210824945,1.00000000000165,0.0503684435592563
3099.99999999828,0.0789181611123138,1.00000000000018,0.0531754707671511
3199.99999999819,0.0836437502987622,1.00000000000193,0.056109907444282
3299.99999999809,0.0882259183345065,1.00000000000056,0.0589790955775242
3399.999999998,0.0929014786385103,1.0000000000007,0.062046680951577
3499.99999999791,0.0977934437053132,1.00000000000189,0.0651152504152784
3599.99999999782,0.102881044980182,1.00000000000021,0.068265960147896
3699.99999999773,0.107821172562454,1.0000000000017,0.07156737267609
3799.99999999764,0.112717121523781,1.00000000000082,0.0748107513784528
3899.99999999755,0.117852632386875,1.00000000000049,0.0782450455012202
3999.99999999746,0.123251406011578,1.00000000000201,0.0817351804938117
4099.99999999738,0.128601099578853,1.00000000000029,0.0852761535796827
4199.99999999775,0.133690262436215,1.00000000000139,0.0889970993861185
4299.99999999811,0.138823450782157,1.00000000000115,0.092685337137004
4399.99999999848,0.144317308599297,1.00000000000039,0.0965638646276386
4499.99999999884,0.149985429726743,1.00000000000203,0.100562416969124
4599.9999999992,0.155458890387168,1.00000000000037,0.104587820330812
4699.99999999957,0.160703080937834,1.00000000000105,0.108833228470824
4799.99999999993,0.166070664596089,1.00000000000151,0.113091208512718
4900.00000000029,0.171812020596502,1.00000000000038,0.117554205960351
5000.00000000066,0.177495470663687,1.00000000000195,0.122209156833376
5100.00000000102,0.182957635710556,1.0000000000005,0.126899457553751
5200.00000000139,0.188363829434398,1.00000000000082,0.131864191248821
5300.00000000175,0.193962114106845,1.00000000000183,0.136943094682238
5400.00000000211,0.199800096747885,1.00000000000054,0.142249890856326
5500.00000000248,0.205385101026335,1.00000000000199,0.147849067152546
5600.00000000284,0.210694617941984,1.00000000000103,0.153534288104001
5700.00000000321,0.216350327390999,1.0000000000012,0.15959599655747
5800.00000000357,0.222057341196811,1.00000000000278,0.16591500033514
5900.00000000393,0.227844494369473,1.00000000000191,0.172487389551739
6000.0000000043,0.233619715964712,1.00000000000363,0.179451012727595
6100.00000000466,0.238699861810572,1.00000000000414,0.186542455707246
6200.00000000502,0.245201290080705,1.00000000000506,0.194045318554037
6300.00000000539,0.251441871882139,1.00000000000813,0.201830507522674
6400.00000000575,0.25769933301567,1.0000000000091,0.209762880292975
6500.00000000612,0.265991842025625,1.000000000012,0.217982066719239
6600.00000000648,0.272864882764125,1.00000000001622,0.226205568250656
6700.00000000684,0.28429554544716,1.00000000001827,0.234625353482345
6800.00000000721,0.297314353254396,1.00000000002432,0.243147743608327
6900.00000000757,0.311652337537884,1.00000000002716,0.251555876902656
7000.00000000793,0.335471627192826,1.00000000003308,0.26003060630733
7100.0000000083,0.360564260162399,1.00000000003821,0.268386120893947
7200.00000000866,0.398638622877489,1.00000000004335,0.276636565421204
7300.00000000903,0.44863531750674,1.00000000005166,0.284894684543901
7400.00000000939,0.507674666568729,1.00000000005598,0.292852345293594
7500.00000000975,0.593857204916475,1.00000000006084,0.300800701489246
7600.00000001012,0.694993603333539,1.00000000007025,0.308560947505131
7700.00000001048,0.827231027064528,1.00000000007701,0.316133930712196
7800.00000001084,0.996070034799272,1.00000000008139,0.323676365598007
7900.00000001121,1.19384814409792,1.00000000009106,0.330842819018383
8000.00000001157,1.44903814959275,1.0000000000986,0.337987392309194
8100.00000001194,1.74847842531245,1.00000000010418,0.34504654643376
8200.0000000123,2.10873563723654,1.00000000011139,0.35182764644335
8300.00000001266,2.5445248501452,1.00000000011865,0.35854816549324
8400.00000001303,3.0424428067842,1.00000000012228,0.365020928293184
8500.00000001339,3.63805601255552,1.00000000013384,0.371318155426501
8600.00000001376,4.32048181100602,1.00000000013556,0.377624579475372
8700.00000001412,5.10226499983931,1.0000000001471,0.383551301059971
8800.00000001448,6.00678764460804,1.00000000014487,0.389516223613582
8900.00000001485,7.01564672567132,1.00000000015648,0.395217498916339
9000.00000001521,8.16617239496047,1.00000000016374,0.400772227032283
9100.00000001557,9.45207137406445,1.00000000016295,0.406302657194768
9200.00000001594,10.8784000296118,1.00000000016829,0.411475225810199
9300.0000000163,12.4746970578133,1.00000000017516,0.416625978697214
9400.00000001667,14.2193861244432,1.00000000018078,0.421617432168248
9500.00000001703,16.1466123238203,1.00000000018928,0.426393890942162
9600.00000001739,18.255024261669,1.00000000019076,0.431154928890628
9700.00000001776,20.5406119812298,1.00000000019446,0.435692233073899
9800.00000001812,23.036150451142,1.00000000020096,0.440050176521213
9900.00000001848,25.7186811214366,1.0000000002002,0.444437946812081
10000.0000000188,28.6161112801049,1.0000000002103,0.44847915274369
10100.0000000192,31.7307260915117,1.00000000021615,0.452512039593005
10200.0000000196,35.0497778803341,1.00000000021542,0.456479641640012
10300.0000000199,38.6071605791214,1.0000000002151,0.46015885569098
10400.0000000203,42.3788531148072,1.00000000022453,0.463892734521568
10500.0000000207,46.3854604198573,1.00000000023195,0.467314049962645
10600.000000021,50.6316890221208,1.00000000023234,0.470735529057169
10700.0000000214,55.0971530241235,1.00000000023431,0.474123400097116
10800.0000000218,59.815503665622,1.00000000022993,0.477321760158956
10900.0000000221,64.761893903928,1.00000000023012,0.48045748626
11000.0000000225,69.9487880824723,1.00000000023871,0.483401754225892
11100.0000000229,75.3833923092259,1.00000000023206,0.486241704024785
11200.0000000232,81.0393964240168,1.00000000024399,0.489041741704747
11300.0000000236,86.9481992955479,1.00000000023446,0.491732020805648
11400.0000000239,93.0852705740887,1.00000000024123,0.494246812842649
11500.0000000243,99.4541869653027,1.00000000024415,0.496846132117368
11600.0000000247,106.065233054364,1.0000000002398,0.499164306339162
11700.000000025,112.888161266953,1.00000000025268,0.501419759627898
11800.0000000254,119.950459464625,1.00000000024443,0.503736263271767
11900.0000000258,127.2301946987,1.00000000024877,0.505701620495457
12000.0000000261,134.720652579939,1.00000000024783,0.507827794607484
12100.0000000265,142.437228663796,1.00000000024937,0.509813759872056
12200.0000000269,150.345633887671,1.00000000025913,0.511516176741421
12300.0000000272,158.468790828751,1.00000000024809,0.513410157412042
12400.0000000276,166.78865215502,1.00000000026567,0.515036749819476
12500.0000000279,175.289368624918,1.00000000025135,0.516697271031936
12600.0000000283,183.990948687371,1.00000000024716,0.518427769176464
12700.0000000287,192.85767511233,1.00000000025707,0.519808447619657
12800.000000029,201.906348714579,1.0000000002485,0.521196863750468
12900.0000000294,211.124168535697,1.00000000025878,0.522591490306212
13000.0000000298,220.487465478008,1.00000000026487,0.523783510539544
13100.0000000301,230.019493049728,1.00000000025404,0.525022892151187
13200.0000000305,239.684591328078,1.00000000026056,0.526261169202363
13300.0000000309,249.492835281829,1.00000000025381,0.527331614016197
13400.0000000312,259.438077768723,1.00000000024133,0.528539491699901
13500.0000000316,269.491422832792,1.00000000025093,0.52938455906969
13600.0000000319,279.677612500309,1.00000000024522,0.530308557322862
13700.0000000323,289.963524199675,1.00000000025163,0.531262924945927
13800.0000000327,300.349806451239,1.00000000025894,0.531962352217942
13900.000000033,310.839444590741,1.00000000024947,0.532831224350967
14000.0000000334,321.398707346234,1.00000000024856,0.533559822028343
14100.0000000338,332.051433505353,1.00000000024278,0.534182763132893
14200.0000000341,342.769569745416,1.00000000023718,0.535063714194837
14300.0000000345,353.546772778156,1.00000000023787,0.535571945971736
14400.0000000349,364.392774811351,1.00000000023614,0.535988059938193
14500.0000000352,375.271187688839,1.00000000024834,0.536567133127653
14600.0000000356,386.203993735449,1.0000000002383,0.537041005732148
14700.0000000359,397.168656793623,1.00000000024165,0.537427208883577
14800.0000000363,408.150957488803,1.00000000023577,0.53801978313369
14900.0000000367,419.168922434504,1.00000000023573,0.538118085769553
15000.000000037,430.186279507169,1.00000000022943,0.538418333496392
15100.0000000374,441.218139146763,1.00000000023786,0.538966118220662
15200.0000000378,452.252783216715,1.00000000024016,0.53928145087912
15300.0000000381,463.267814786105,1.0000000002292,0.539359413544958
15400.0000000385,474.284433099012,1.00000000023107,0.53945350015528
15500.0000000389,485.271830795845,1.0000000002269,0.539688110755622
15600.0000000392,496.23711982574,1.00000000023426,0.539833136822062
15700.0000000396,507.176756372344,1.00000000022525,0.540201905322312
15800.0000000399,518.06525203617,1.00000000022989,0.540450694900536
15900.0000000403,528.924801850706,1.00000000021661,0.540303415138542
16000.0000000407,539.728717426678,1.00000000022575,0.540117289789576
16100.000000041,550.477517584672,1.00000000022682,0.540236291386602
16200.0000000414,561.176944845551,1.00000000022756,0.540431126828662
16300.0000000418,571.797265464815,1.00000000021795,0.540587865858246
16400.0000000418,582.36070849243,1.00000000021874,0.540581269241878
16500.0000000404,592.846755174076,1.00000000021903,0.540290083885736
16600.0000000389,603.249528736225,1.00000000021845,0.540307938195971
16700.0000000375,613.580475849432,1.00000000021826,0.539970236209203
16800.000000036,623.812041614177,1.00000000022061,0.54030208459576
16900.0000000346,633.962225025208,1.00000000020811,0.540156120319259
17000.0000000331,644.01629880788,1.00000000021773,0.540248539939113
17100.0000000317,653.96551374844,1.00000000021412,0.540083849973665
17200.0000000302,663.822326417755,1.00000000020622,0.539831647344129
17300.0000000287,673.565431397995,1.00000000020724,0.539550590913795
17400.0000000273,683.203666434614,1.00000000020668,0.539312688138083
17500.0000000258,692.733771994039,1.00000000020541,0.53931238917077
17600.0000000244,702.13714331384,1.00000000020775,0.539122073321621
17700.0000000229,711.4335421738,1.00000000020717,0.538947722483163
17800.0000000215,720.600452055189,1.00000000020808,0.53874379896433
17900.00000002,729.646278252499,1.00000000019812,0.538521935736684
18000.0000000186,738.569438674584,1.0000000002049,0.538047647448386
18100.0000000171,747.353416986691,1.00000000019295,0.53794827393161
18200.0000000156,756.015118884277,1.00000000019568,0.53758219930399
18300.0000000142,764.538536325953,1.00000000019578,0.537475222734342
18400.0000000127,772.925617129005,1.00000000019119,0.537252403848266
18500.0000000113,781.181243227575,1.00000000019086,0.537151899110326
18600.0000000098,789.289006178352,1.00000000019376,0.536848315584647
18700.0000000084,797.262912922799,1.00000000018924,0.536541005860353
18800.0000000069,805.092330239295,1.00000000018902,0.536002554619295
18900.0000000055,812.773381297429,1.00000000019113,0.535719572747138
19000.000000004,820.317213644956,1.00000000018983,0.53541805731218
19100.0000000026,827.706254789341,1.00000000018522,0.535175322315062
19200.0000000011,834.954600652919,1.00000000018271,0.535100518507471
19299.9999999996,842.054289310861,1.00000000018667,0.534801162597884
19399.9999999982,848.999876752826,1.00000000017322,0.534834475776926
19499.9999999967,855.803007763828,1.00000000017716,0.534110569958567
19599.9999999953,862.448573052358,1.00000000017983,0.533783221785662
19699.9999999938,868.947787308725,1.00000000018269,0.533243974813119
19799.9999999924,875.296929318273,1.00000000018324,0.533015186156994
19899.9999999909,881.489436596813,1.00000000017795,0.532907202258136
19999.9999999895,887.537137091039,1.00000000016892,0.532676385511159
20099.999999988,893.428075804611,1.00000000017868,0.532619727986244
20199.9999999865,899.169292869587,1.00000000016428,0.532198112238356
20299.9999999851,904.761188104968,1.00000000016898,0.531853412154505
20399.9999999836,910.195643281009,1.00000000016945,0.531266824846615
20499.9999999822,915.484450439507,1.00000000017112,0.530797240577099
20599.9999999807,920.619561023224,1.00000000017333,0.53068759095909
20699.9999999793,925.604164640731,1.00000000016482,0.530597813335602
20799.9999999778,930.443234286252,1.00000000016401,0.530778646439638
20899.9999999764,935.126928312104,1.0000000001666,0.530505042665699
20999.9999999749,939.667625666757,1.00000000015825,0.530271064134611
21099.9999999734,944.058935160501,1.00000000016065,0.529677213254542
21199.999999972,948.300631542473,1.00000000015471,0.528737721955413
21299.9999999705,952.399601038926,1.00000000015912,0.528056001030235
21399.9999999691,956.346441323403,1.00000000016062,0.527560227636411
21499.9999999676,960.15224453087,1.00000000015841,0.52785436888336
21599.9999999662,963.81433516756,1.00000000015781,0.528459251401066
21699.9999999647,967.331139458131,1.00000000015927,0.529256073776572
21799.9999999633,970.713375498257,1.00000000015641,0.529716391965588
21899.9999999618,973.95321717897,1.00000000015066,0.52916209237453
21999.9999999603,977.058187033626,1.00000000015471,0.528106445414273
22099.9999999589,980.027097629517,1.00000000014448,0.526310342312718
22199.9999999574,982.853495606916,1.00000000014383,0.524495888337064
22299.999999956,985.547011962819,1.00000000014828,0.523285120967023
22399.9999999545,988.099573150562,1.00000000014559,0.523364746586728
22499.9999999531,990.518799839826,1.00000000014283,0.525209679512568
22599.9999999516,992.808195641404,1.0000000001486,0.52741329055733
22699.9999999502,994.967406517454,1.00000000014776,0.529889416873498
22799.9999999487,997.008811290701,1.00000000014844,0.531172417686271
22899.9999999473,998.929910179932,1.00000000015014,0.530574274727904
22999.9999999458,1000.73327321179,1.0000000001479,0.528236193938452
23099.9999999443,1002.4188517193,1.00000000014066,0.524314854461401
23199.9999999429,1003.97685055241,1.00000000014049,0.520028438510294
23299.9999999414,1005.4108817091,1.00000000013778,0.516966028355487
23399.99999994,1006.71442225439,1.0000000001293,0.516717390004347
23499.9999999385,1007.89028384333,1.00000000013139,0.519475992794324
23599.9999999371,1008.94811861027,1.00000000013487,0.52424762936059
23699.9999999356,1009.89197342082,1.00000000014013,0.529641317364345
23799.9999999342,1010.73816351961,1.00000000014375,0.533889545574136
23899.9999999327,1011.49191101438,1.00000000014802,0.53567314523589
23999.9999999312,1012.15586849669,1.00000000014839,0.534095740845132
24099.9999999298,1012.73298375202,1.00000000014515,0.52894058365896
24199.9999999283,1013.21097063427,1.00000000013587,0.521325649435224
24299.9999999269,1013.58482832867,1.00000000012704,0.513227335229952
24399.9999999254,1013.84287041708,1.00000000011561,0.507456801179405
24499.999999924,1013.97879682377,1.00000000011609,0.506437066250001
24599.9999999225,1013.99984753838,1.00000000011495,0.510520669704234
24699.9999999211,1013.9120750229,1.00000000012382,0.518738830791543
24799.9999999196,1013.73466906996,1.00000000013444,0.528157973824571
24899.9999999181,1013.48355678928,1.00000000014359,0.536183589517569
24999.9999999167,1013.17042852996,1.00000000015244,0.540993909161085
25099.9999999152,1012.80839193911,1.00000000015177,0.541232603487643
25199.9999999138,1012.3942552795,1.00000000015411,0.536333937055593
25299.9999999123,1011.92247084439,1.00000000014476,0.526863176958464
25399.9999999109,1011.37893909049,1.00000000012518,0.514044339762831
25499.9999999094,1010.74364506394,1.00000000011417,0.501233177686809
25599.999999908,1010.00772877065,1.00000000010179,0.49241450266356
25699.9999999065,1009.16216471399,1.00000000009457,0.490754754111829
25799.9999999051,1008.21357765146,1.00000000010217,0.497888223904839
25899.9999999036,1007.1766013063,1.00000000011385,0.510601097446723
25999.9999999021,1006.06935776082,1.00000000013161,0.524868513295257
26099.9999999007,1004.9170238599,1.00000000014639,0.5369312745549
26199.9999998992,1003.73622552559,1.00000000015965,0.54502823863382
26299.9999998978,1002.53961779213,1.00000000016685,0.547506096988853
26399.9999998963,1001.33112635898,1.00000000016368,0.544111050487493
26499.9999998949,1000.10184772004,1.00000000016405,0.534789110262465
26599.9999998934,998.839281612061,1.0000000001419,0.519718489637856
26699.999999892,997.521950277422,1.00000000012006,0.501536046785576
26799.9999998905,996.130035904389,1.00000000009853,0.483930806129075
26899.999999889,994.649843677164,1.0000000000878,0.472341676599987
26999.9999998876,993.073791476849,1.00000000008029,0.471179226865068
27099.9999998861,991.411333372901,1.00000000009048,0.481953362313363
27199.9999998847,989.677910781614,1.00000000010968,0.499898941624822
27299.9999998832,987.896069319422,1.00000000013178,0.519719742450064
27399.9999998818,986.092003831402,1.00000000015209,0.535733278204342
27499.9999998803,984.282978276257,1.00000000017485,0.546891813087554
27599.9999998789,982.485421833888,1.00000000018259,0.552211109973559
27699.9999998774,980.703473714689,1.00000000018509,0.55102245548083
27799.9999998759,978.933523510286,1.00000000018323,0.545124169446429
27899.9999998745,977.166329955375,1.00000000016329,0.530811681758994
27999.999999873,975.380346060849,1.00000000014737,0.512192846350576
28099.9999998716,973.556288700099,1.000000000114,0.488570008043729
28199.9999998701,971.671983132805,1.00000000009353,0.466597531723479
28299.9999998687,969.712573205098,1.00000000007258,0.451886373570657
28399.9999998672,967.675330038504,1.00000000006859,0.44986268273437
28499.9999998658,965.564742706617,1.00000000007827,0.461945640447465
28599.9999998643,963.399137747009,1.00000000010567,0.484547081990421
28699.9999998629,961.199732956218,1.000000000127,0.508457618317591
28799.9999998614,958.987649726377,1.00000000015944,0.529444643842155
