Time,AGPnorm,Energy,Entropy
0,0,1,-1.1612421076329e-17
99.9999999999986,2.23807886561254e-05,1.00000000000155,0.000986320041115178
199.999999999993,0.00194322207049588,1.00000000000092,0.00154436607118946
300,0.00496453259665012,1.0000000000004,0.00275343018255884
400.000000000022,0.00692928757272749,1.00000000000185,0.00467153307426489
500.000000000045,0.00837165994755593,1.00000000000007,0.00627296246724406
600.000000000068,0.0119153933935258,1.00000000000134,0.00878523624956399
700.000000000091,0.0148207147389775,1.00000000000118,0.0111807126523054
800.000000000113,0.0191172536571479,1.00000000000026,0.0138185721087465
900.000000000136,0.0237051657672954,1.00000000000183,0.0169829403294336
1000.00000000016,0.0275062727000661,1.00000000000018,0.0199310718747436
1100.0000000001,0.0331338461036485,1.00000000000115,0.0234414927188114
1200,0.0389912642187358,1.00000000000142,0.0269858215310447
1299.99999999991,0.0449148764535386,1.00000000000013,0.0306688482388562
1399.99999999982,0.0510793741515875,1.00000000000173,0.0347779561380632
1499.99999999973,0.0572357922226849,1.00000000000038,0.0387588084733081
1599.99999999964,0.0647609772023265,1.00000000000099,0.0431700037457524
1699.99999999955,0.072519569842519,1.00000000000158,0.0477181576449206
1799.99999999946,0.0797610515006832,1,0.0523495082921647
1899.99999999937,0.087371418064553,1.00000000000162,0.0573679066210183
1999.99999999928,0.0955117786631812,1.00000000000068,0.0623641157249581
2099.99999999919,0.104280347551183,1.00000000000081,0.067757616793239
2199.99999999909,0.11297076567751,1.00000000000163,0.0733603367222622
2299.999999999,0.121248071407185,0.999999999999943,0.0790309185452894
2399.99999999891,0.130082752049346,1.00000000000155,0.0851445265261724
2499.99999999882,0.139589619364856,1.00000000000099,0.0913640517814169
2599.99999999873,0.148907640846164,1.00000000000058,0.097996996202176
2699.99999999864,0.157875158550279,1.00000000000165,0.104942020337594
2799.99999999855,0.166938670932387,1.00000000000004,0.112051873168121
2899.99999999846,0.176533954144654,1.0000000000015,0.11976860164263
2999.99999999837,0.186569630701008,1.00000000000122,0.127831493148521
3099.99999999828,0.195881999264734,1.00000000000042,0.136417496703171
3199.99999999819,0.204919384886098,1.00000000000192,0.145648422668721
3299.99999999809,0.214342636837096,1.00000000000107,0.155402148958963
3399.999999998,0.224335656866969,1.0000000000032,0.166232195426116
3499.99999999791,0.233736091738898,1.00000000000538,0.177912487116254
3599.99999999782,0.242820982860625,1.00000000000904,0.190427798166644
3699.99999999773,0.252666381890484,1.00000000001779,0.20394961515456
3799.99999999764,0.26107669972467,1.00000000002903,0.217973962760637
3899.99999999755,0.274467123338424,1.00000000004448,0.232667008279611
3999.99999999746,0.285321569837158,1.00000000006348,0.247473527056747
4099.99999999738,0.30026289009413,1.00000000009048,0.262080543166025
4199.99999999775,0.327573360421531,1.0000000001152,0.276761409921678
4299.99999999811,0.354660121927117,1.00000000014158,0.291072454882635
4399.99999999848,0.409379248056593,1.00000000017724,0.305102033626397
4499.99999999884,0.480395428376964,1.00000000021081,0.318776992669954
4599.9999999992,0.579450750900463,1.00000000024914,0.33191430281426
4699.99999999957,0.734296453453112,1.00000000026552,0.345034483386167
4799.99999999993,0.923590347739099,1.0000000003071,0.357534944576758
4900.00000000029,1.19318692528206,1.00000000034443,0.36961785575827
5000.00000000066,1.53974866598825,1.00000000036206,0.381298377201036
5100.00000000102,1.97011544950036,1.00000000040309,0.392476519721758
5200.00000000139,2.52784690603988,1.00000000042735,0.403407359428699
5300.00000000175,3.19083752599453,1.00000000046418,0.413716018099346
5400.00000000211,4.00316256493265,1.00000000048969,0.423604581879505
5500.00000000248,4.97022341252711,1.00000000053549,0.433095603203289
5600.00000000284,6.09047188905913,1.00000000053358,0.442322304817467
5700.00000000321,7.40671687096663,1.00000000055449,0.451093165711816
5800.00000000357,8.90008912209153,1.00000000058675,0.459260260079152
5900.00000000393,10.6004389454446,1.0000000005943,0.467062969067853
6000.0000000043,12.5127649428277,1.00000000059851,0.474683912877985
6100.00000000466,14.6319352075744,1.00000000064091,0.481637294521349
6200.00000000502,16.9864328404222,1.00000000062967,0.488521808783717
6300.00000000539,19.558116860441,1.00000000066891,0.494685505514886
6400.00000000575,22.3646743664282,1.00000000064475,0.500824707776198
6500.00000000612,25.4014422271698,1.00000000065997,0.506594222085231
6600.00000000648,28.6635378874009,1.00000000069996,0.511707554851962
6700.00000000684,32.1641948437993,1.0000000006884,0.516870935320555
6800.00000000721,35.8797166980699,1.00000000069429,0.521566374451302
6900.00000000757,39.8243084225345,1.00000000069826,0.52601702974977
7000.00000000793,43.980780317793,1.00000000069576,0.530362079115152
7100.0000000083,48.3427663254891,1.00000000070153,0.534067893892983
7200.00000000866,52.916440474689,1.00000000070796,0.537695026840159
7300.00000000903,57.6681562311107,1.00000000071556,0.541294519391482
7400.00000000939,62.6138159523037,1.00000000071449,0.544372679490984
7500.00000000975,67.7287300013269,1.00000000070959,0.547503399665579
7600.00000001012,73.0002130152346,1.00000000069636,0.550104098028536
7700.00000001048,78.4372628843343,1.00000000070066,0.552711395447306
7800.00000001084,83.9957690353868,1.00000000071489,0.555271646797235
7900.00000001121,89.6935282821039,1.00000000071336,0.557191422819301
8000.00000001157,95.50631657443,1.00000000070423,0.55928816213012
8100.00000001194,101.41203953988,1.00000000070289,0.561226672357488
8200.0000000123,107.426520887718,1.00000000069096,0.562963608633371
8300.00000001266,113.501221780535,1.00000000067137,0.564867605138371
8400.00000001303,119.65151796695,1.00000000069811,0.565834191630597
8500.00000001339,125.86076513708,1.00000000067388,0.567433685287725
8600.00000001376,132.096588674467,1.00000000069048,0.568784628487559
8700.00000001412,138.382582215161,1.00000000066999,0.569438074823514
8800.00000001448,144.671868647957,1.0000000006651,0.570641412362193
8900.00000001485,150.973098459059,1.0000000006739,0.571405062454822
9000.00000001521,157.2803903392,1.00000000064974,0.571988639419888
9100.00000001557,163.555476458381,1.00000000065036,0.573187121337024
9200.00000001594,169.825045305617,1.00000000065411,0.573159125867117
9300.0000000163,176.049794227004,1.0000000006274,0.574087667825095
9400.00000001667,182.229848844747,1.00000000061694,0.574468562930279
9500.00000001703,188.370015427305,1.00000000061599,0.574624229101807
9600.00000001739,194.431482929726,1.00000000062904,0.57508528279195
9700.00000001776,200.43750653825,1.00000000060853,0.57503442744633
9800.00000001812,206.362436906276,1.00000000062504,0.575327988292629
9900.00000001848,212.196146183667,1.00000000058993,0.57545164751814
10000.0000000188,217.954616385932,1.000000000592,0.57574372850914
10100.0000000192,223.598770566444,1.00000000059798,0.575325999369027
10200.0000000196,229.148707359178,1.00000000059653,0.575689257960525
10300.0000000199,234.591375848921,1.00000000058256,0.575269972628336
10400.0000000203,239.908984101696,1.00000000056424,0.575281508299104
10500.0000000207,245.124304455361,1.00000000057347,0.575605749391319
10600.000000021,250.203467216123,1.00000000054332,0.574669413489567
10700.0000000214,255.159821710561,1.0000000005696,0.575230170319811
10800.0000000218,259.993125662394,1.00000000054582,0.574791442504661
10900.0000000221,264.680606114663,1.00000000052144,0.574052105538251
11000.0000000225,269.245532176835,1.00000000054048,0.57477872480861
11100.0000000229,273.663588224353,1.00000000054127,0.573591211082761
11200.0000000232,277.941236780737,1.00000000051739,0.573277002825729
11300.0000000236,282.083709036667,1.00000000051388,0.573842568097918
11400.0000000239,286.072556637362,1.00000000051718,0.572503865215214
11500.0000000243,289.92466858842,1.00000000051568,0.572267492163179
11600.0000000247,293.626539915851,1.00000000052353,0.572552258725083
11700.000000025,297.181282527408,1.00000000049402,0.57112494178843
11800.0000000254,300.595218230676,1.00000000048718,0.571485126693875
11900.0000000258,303.853496762398,1.00000000048857,0.571195784099738
12000.0000000261,306.973300666069,1.00000000046794,0.570241965963788
12100.0000000265,309.941927337155,1.00000000047188,0.570393296383949
12200.0000000269,312.764496792029,1.00000000047448,0.569859599169198
12300.0000000272,315.448537956393,1.00000000047343,0.568970131380093
12400.0000000276,317.97998537393,1.00000000044575,0.569515188349562
12500.0000000279,320.375635464193,1.00000000045823,0.568050332557571
12600.0000000283,322.627294905171,1.00000000043532,0.567983642483394
12700.0000000287,324.736218575117,1.00000000044728,0.568582872141891
12800.000000029,326.714872042835,1.00000000043478,0.567599213025447
12900.0000000294,328.548210957074,1.00000000043304,0.56678591537315
13000.0000000298,330.252169615087,1.00000000043259,0.56625927945276
13100.0000000301,331.823880736955,1.00000000041444,0.566417342985928
13200.0000000305,333.261671805423,1.00000000042115,0.567379968587081
13300.0000000309,334.579496487825,1.00000000042033,0.566564493220184
13400.0000000312,335.766594378255,1.00000000040074,0.563874942910425
13500.0000000316,336.830078295936,1.00000000038702,0.563642196834976
13600.0000000319,337.774316325595,1.00000000040931,0.567239068097717
13700.0000000323,338.602125962565,1.00000000039581,0.568336114213803
13800.0000000327,339.324028906734,1.00000000039578,0.563760030107172
13900.000000033,339.927506888779,1.00000000038275,0.560108787134318
14000.0000000334,340.418029455645,1.00000000037623,0.562258684894063
14100.0000000338,340.806322860433,1.00000000039278,0.568265171506241
14200.0000000341,341.099139320164,1.00000000041504,0.569137738105779
14300.0000000345,341.30530744849,1.00000000037589,0.562521398016228
14400.0000000349,341.408968081557,1.00000000034733,0.555039186165461
14500.0000000352,341.410790195586,1.00000000036256,0.557629749651044
14600.0000000356,341.325345445046,1.00000000038276,0.568160678359555
14700.0000000359,341.168484775091,1.00000000039696,0.571859070314574
14800.0000000363,340.948552705014,1.00000000039256,0.563143847003935
14900.0000000367,340.647164065056,1.00000000034076,0.550222841029154
15000.000000037,340.255739586522,1.00000000032707,0.548604674384529
15100.0000000374,339.785362382809,1.00000000037518,0.56239405277956
15200.0000000378,339.259706959973,1.00000000041466,0.573124364954986
15300.0000000381,338.698219485697,1.00000000043728,0.570747433723701
15400.0000000385,338.087178956897,1.00000000035601,0.551725007577879
15500.0000000389,337.40402172777,1.0000000003273,0.540700527553693
15600.0000000392,336.646448244105,1.00000000031671,0.542827078671321
15700.0000000396,335.830352714915,1.00000000039772,0.564533179599053
15800.0000000399,334.990930906444,1.00000000045366,0.576670215512173
15900.0000000403,334.135858334511,1.00000000046158,0.568609525686334
16000.0000000407,333.24820653137,1.00000000035542,0.545322410196112
16100.000000041,332.302848593042,1.00000000030151,0.528286215882734
16200.0000000414,331.289718268963,1.00000000030453,0.531299076522208
16300.0000000418,330.234448238886,1.00000000037953,0.558798959024752
16400.0000000418,329.168926059424,1.00000000049138,0.579287138939612
16500.0000000404,328.107609006171,1.00000000047689,0.572611294490848
16600.0000000389,327.037007960922,1.00000000040188,0.547053942137427
16700.0000000375,325.926662424304,1.00000000031299,0.521597454067699
16800.000000036,324.761855358634,1.00000000025947,0.512315668007255
16900.0000000346,323.550479174495,1.00000000034751,0.535828553211074
17000.0000000331,322.325326574807,1.00000000045832,0.570538592516551
17100.0000000317,321.115604269674,1.00000000053402,0.581124592638408
17200.0000000302,319.918687351462,1.000000000468,0.563924664143544
17300.0000000287,318.716330697145,1.00000000037795,0.533189593096259
17400.0000000273,317.481079309023,1.00000000027276,0.505903188125704
17500.0000000258,316.200285279664,1.00000000026811,0.502030877113118
17600.0000000244,314.888310442416,1.00000000035159,0.528431812857259
17700.0000000229,313.570942630795,1.00000000048673,0.567356604918472
17800.0000000215,312.274098198817,1.00000000053481,0.582562176660068
17900.00000002,311.001067904908,1.00000000051389,0.568015678323674
18000.0000000186,309.733531832622,1.00000000039271,0.535161761124451
18100.0000000171,308.450279437894,1.00000000029192,0.503358655847701
18200.0000000156,307.133724750967,1.00000000026522,0.491423962402873
18300.0000000142,305.788728920648,1.00000000029936,0.504565339473281
18400.0000000127,304.432330878286,1.00000000041628,0.540898495269795
18500.0000000113,303.086695989589,1.00000000052329,0.573513898543907
18600.0000000098,301.767632684246,1.00000000055714,0.578944169361285
18700.0000000084,300.470819886306,1.00000000050445,0.558067787960444
18800.0000000069,299.180118957588,1.00000000037889,0.523518438993163
18900.0000000055,297.878973448055,1.0000000003109,0.496012106523498
19000.000000004,296.556003176806,1.00000000028034,0.48690685429804
19100.0000000026,295.215367283591,1.00000000030575,0.497709868199793
19200.0000000011,293.866242366559,1.00000000038432,0.526460135952814
19299.9999999996,292.526409910127,1.0000000004953,0.560583734324901
19399.9999999982,291.2087764619,1.00000000055381,0.573936801965487
19499.9999999967,289.913376395512,1.00000000052375,0.562713158635189
19599.9999999953,288.63313724128,1.00000000044096,0.535489931476022
19699.9999999938,287.355266881167,1.00000000036781,0.506557757456881
19799.9999999924,286.069948996471,1.00000000030077,0.488639801849695
19899.9999999909,284.774396131909,1.0000000002988,0.487869866185149
19999.9999999895,283.469582974387,1.00000000032365,0.499505817166825
20099.999999988,282.165374424307,1.00000000040029,0.522480427196743
20199.9999999865,280.870551429974,1.00000000046509,0.547734051475661
20299.9999999851,279.592212843193,1.0000000005328,0.562281753734754
20399.9999999836,278.333221236009,1.00000000050941,0.556217057124139
20499.9999999822,277.088550089527,1.00000000047996,0.537829424493923
20599.9999999807,275.852480496024,1.0000000003918,0.51486737706444
20699.9999999793,274.618059578674,1.00000000034524,0.4968023101704
20799.9999999778,273.381787953429,1.0000000003156,0.490882146066767
20899.9999999764,272.144319008976,1.00000000032498,0.494782373320093
20999.9999999749,270.906571840964,1.00000000035649,0.505201433947705
21099.9999999734,269.674118735994,1.00000000040304,0.519009397728481
21199.999999972,268.45085186216,1.0000000004493,0.533648286754867
21299.9999999705,267.239844445078,1.00000000049304,0.545776934167955
21399.9999999691,266.043245651961,1.00000000049203,0.546101925970833
21499.9999999676,264.859059864162,1.00000000046907,0.53559650037055
21599.9999999662,263.684554735597,1.0000000004311,0.521135429244718
21699.9999999647,262.516984223071,1.00000000036948,0.507427613796015
21799.9999999633,261.353640493917,1.00000000033725,0.499800188713992
21899.9999999618,260.195042463187,1.00000000034364,0.500504620330184
21999.9999999603,259.040228495503,1.00000000035439,0.502742542917899
22099.9999999589,257.891134955567,1.00000000037363,0.506626578107965
22199.9999999574,256.748476586292,1.00000000037375,0.511691209129351
22299.999999956,255.613712727823,1.00000000042621,0.520111882097809
22399.9999999545,254.4889766353,1.00000000045544,0.5269642402435
22499.9999999531,253.374607430157,1.00000000044849,0.533219490703693
22599.9999999516,252.270136669309,1.00000000045995,0.532833494333462
22699.9999999502,251.175303442489,1.00000000042884,0.526195632827164
22799.9999999487,250.088550706879,1.00000000040588,0.518381126823203
22899.9999999473,249.009878282633,1.00000000037477,0.514811451347955
22999.9999999458,247.938804826806,1.00000000037758,0.513091563160594
23099.9999999443,246.875704582823,1.00000000035428,0.510811283987198
23199.9999999429,245.820332439988,1.00000000035167,0.50914100428117
23299.9999999414,244.772235639229,1.00000000034578,0.504865614255141
23399.99999994,243.732184227276,1.00000000035665,0.504591033333337
23499.9999999385,242.700146618603,1.00000000038292,0.506176497332852
23599.9999999371,241.676674665201,1.00000000041478,0.512453590988218
23699.9999999356,240.662189212113,1.00000000044463,0.518418582966066
23799.9999999342,239.656067413181,1.00000000043772,0.526005290610523
23899.9999999327,238.658197024063,1.00000000042034,0.529945964108005
23999.9999999312,237.668658100117,1.00000000039638,0.527696861871863
24099.9999999298,236.687238881403,1.00000000039504,0.522886082570247
24199.9999999283,235.714289973546,1.00000000038827,0.522028792058123
24299.9999999269,234.749629688582,1.00000000040022,0.525885285857496
24399.9999999254,233.793943080697,1.00000000040338,0.525682733433848
24499.999999924,232.847144361169,1.00000000037846,0.519339649623502
24599.9999999225,231.909854270322,1.00000000035028,0.509298170241928
24699.9999999211,230.982381269011,1.00000000032091,0.498325924963262
24799.9999999196,230.064809654884,1.00000000032987,0.491816692545672
24899.9999999181,229.15734244331,1.00000000036697,0.494616726462087
24999.9999999167,228.259152850484,1.00000000040053,0.503356325716333
25099.9999999152,227.368921583415,1.00000000043342,0.514158877429926
25199.9999999138,226.485568719432,1.00000000046867,0.520658275707796
25299.9999999123,225.608479343979,1.00000000043206,0.52530465298282
25399.9999999109,224.738299430967,1.00000000039783,0.528055994762573
25499.9999999094,223.875902263923,1.00000000038246,0.525374140656401
25599.999999908,223.021475036509,1.00000000037478,0.521845256268853
25699.9999999065,222.174545752869,1.00000000041844,0.530468224464362
25799.9999999051,221.334225893745,1.00000000043099,0.538357660241007
25899.9999999036,220.500985961347,1.00000000042587,0.534957308837837
25999.9999999021,219.675733297159,1.00000000039871,0.524828369643024
26099.9999999007,218.860377961465,1.00000000036501,0.509479784287496
26199.9999998992,218.057013561077,1.0000000003001,0.492526432766078
26299.9999998978,217.266772448979,1.00000000028612,0.479264355674148
26399.9999998963,216.49000342377,1.00000000030901,0.478997978732492
26499.9999998949,215.724505293229,1.00000000037297,0.488835974366013
26599.9999998934,214.967218890615,1.00000000043114,0.50261213068583
26699.999999892,214.215456046675,1.00000000046589,0.511522189615481
26799.9999998905,213.467686329134,1.00000000045852,0.515470557580777
26899.999999889,212.723318108866,1.00000000043855,0.517671220709754
26999.9999998876,211.984427013485,1.00000000038975,0.520180927097348
27099.9999998861,211.252185027356,1.0000000003889,0.524022911357388
27199.9999998847,210.526772876268,1.00000000038189,0.522980439675808
27299.9999998832,209.807318281166,1.0000000004041,0.525818294742614
27399.9999998818,209.092148098946,1.000000000439,0.537839599687026
27499.9999998803,208.380176634435,1.00000000046262,0.54388046696177
27599.9999998789,207.672386592987,1.00000000043004,0.536016257411649
27699.9999998774,206.97115406816,1.00000000041905,0.52093749951517
27799.9999998759,206.279640452277,1.0000000003472,0.505432778097732
27899.9999998745,205.601769363753,1.00000000031166,0.489346285912531
27999.999999873,204.939220288204,1.00000000027193,0.477128941020285
28099.9999998716,204.292584227067,1.00000000029632,0.471661999807872
28199.9999998701,203.659686646949,1.0000000003569,0.478442241724625
28299.9999998687,203.036440585384,1.00000000041041,0.489661287346139
28399.9999998672,202.419136770496,1.00000000042826,0.50128639402933
28499.9999998658,201.805047413696,1.00000000045918,0.50806513675306
28599.9999998643,201.192382427884,1.00000000046344,0.511900545617623
28699.9999998629,200.580878862418,1.00000000043774,0.509155410754409
28799.9999998614,199.972228687793,1.00000000041591,0.512392456173769
28899.9999998599,199.367830549885,1.00000000039165,0.521605141851082
