Time,AGPnorm,Energy,Entropy
0,0,1,-7.57152735794551e-17
99.9999999999986,0.00156773998199524,0.99999999999998,0.00496702665680721
199.999999999993,0.0108466234055314,1.00000000000247,0.0145872042253071
300,0.0215132818453125,1.00000000000349,0.0272540687129231
400.000000000022,0.0328867399219558,1.00000000000141,0.0430805091931322
500.000000000045,0.046436442867779,0.999999999999188,0.062041599456765
600.000000000068,0.063828652121004,1.00000000000111,0.0842970119108607
700.000000000091,0.0798609553990989,1.00000000000343,0.110301893139015
800.000000000113,0.0965655794483064,1.00000000000347,0.140990504045995
900.000000000136,0.113488425898688,1.00000000000773,0.178965886358071
1000.00000000016,0.129606825975787,1.00000000006286,0.22719250380455
1100.0000000001,0.149497940897744,1.0000000002633,0.283972408080552
1200,0.199993199803407,1.00000000061182,0.339920678612561
1299.99999999991,0.311586980172712,1.00000000100739,0.389570370442212
1399.99999999982,0.560911251974336,1.00000000129744,0.431849524526766
1499.99999999973,1.06289092791997,1.00000000162282,0.467143771895729
1599.99999999964,1.907197640892,1.000000001898,0.496697317304186
1699.99999999955,3.15243249092105,1.00000000202436,0.521110172895715
1799.99999999946,4.84010388776162,1.00000000213421,0.540015837312574
1899.99999999937,6.94426119714197,1.00000000232751,0.554581318396767
1999.99999999928,9.40033379832168,1.00000000227587,0.566911295654048
2099.99999999919,12.1722694543984,1.00000000224482,0.576325519713614
2199.99999999909,15.2206803330321,1.00000000222702,0.58212079609252
2299.999999999,18.4392279881969,1.00000000219178,0.585581465112297
2399.99999999891,21.7040733401966,1.00000000213284,0.588590503868277
2499.99999999882,24.9518584065324,1.00000000217752,0.590698779934909
2599.99999999873,28.1536065831071,1.00000000208009,0.590197064742869
2699.99999999864,31.2502926150179,1.00000000192987,0.58909662545176
2799.99999999855,34.1602518631395,1.0000000019417,0.588005016369949
2899.99999999846,36.8347796092372,1.00000000179726,0.587549531191459
2999.99999999837,39.2680582495997,1.00000000178556,0.584710064546015
3099.99999999828,41.4608218024662,1.0000000016563,0.58043706906644
3199.99999999819,43.3903161574234,1.0000000015716,0.578478580595763
3299.99999999809,45.0333982593833,1.00000000156261,0.577627233767291
3399.999999998,46.3930203082154,1.00000000147424,0.576359930562582
3499.99999999791,47.4921639294783,1.0000000014781,0.57343606601647
3599.99999999782,48.3466404120161,1.00000000138619,0.573986078391888
3699.99999999773,48.9575350300186,1.00000000128869,0.57026536382818
3799.99999999764,49.3485298331689,1.00000000131379,0.570062762355808
3899.99999999755,49.521482246433,1.00000000128824,0.573409184443352
3999.99999999746,49.5404790057681,1.00000000121186,0.562626652210468
4099.99999999738,49.3891083235267,1.00000000131565,0.566896473289616
4199.99999999775,49.1357329015732,1.00000000127817,0.565112753926631
4299.99999999811,48.7508884417076,1.00000000108359,0.544807051971463
4399.99999999848,48.2955344832394,1.00000000149354,0.578748994040051
4499.99999999884,47.7801634807887,1.00000000104985,0.532026769743545
4599.9999999992,47.1842868085545,1.00000000140694,0.56609342998195
4699.99999999957,46.5925240811115,1.00000000138621,0.555083117895767
4799.99999999993,45.9470433360524,1.00000000101554,0.509389324436686
4900.00000000029,45.2686784383436,1.00000000172349,0.578000066995845
5000.00000000066,44.6183209562604,1.00000000139614,0.538936609854101
5100.00000000102,43.9386599252938,1.00000000095459,0.49475837584625
5200.00000000139,43.2383899053045,1.00000000154815,0.554613562755641
5300.00000000175,42.571566957832,1.0000000015754,0.550556481757567
5400.00000000211,41.9063155469126,1.00000000106335,0.490793895455714
5500.00000000248,41.223646316689,1.00000000121037,0.501712612998727
5600.00000000284,40.5575718996829,1.00000000170761,0.557315533258785
5700.00000000321,39.9197929251266,1.00000000142372,0.517531296532689
5800.00000000357,39.2871110836257,1.00000000109958,0.486580472335025
5900.00000000393,38.6536367633074,1.00000000123522,0.505029089303815
6000.0000000043,38.0351473402576,1.0000000015991,0.535842281952796
6100.00000000466,37.4394499659788,1.00000000148337,0.529465754958771
6200.00000000502,36.8594519000865,1.00000000113179,0.487592515015231
6300.00000000539,36.2914905347424,1.00000000119944,0.504452604819698
6400.00000000575,35.7349127265629,1.00000000132867,0.517298818127811
6500.00000000612,35.1944004123675,1.00000000144803,0.524021945358894
6600.00000000648,34.6697512685524,1.00000000159209,0.526605227650257
6700.00000000684,34.1618535844056,1.00000000113727,0.498046610011995
6800.00000000721,33.6735113154446,1.00000000114506,0.503634130864211
6900.00000000757,33.1989521053614,1.00000000135963,0.530685732302035
7000.00000000793,32.7402490406904,1.00000000117314,0.508107993367253
7100.0000000083,32.298032488741,1.00000000142511,0.517251181689196
7200.00000000866,31.8665587379374,1.00000000156073,0.526454310548546
7300.00000000903,31.4495482550325,1.00000000131635,0.505871318064009
7400.00000000939,31.0546034065687,1.0000000011513,0.501009584171486
7500.00000000975,30.673740413896,1.00000000144624,0.529020472364457
7600.00000001012,30.3016355291781,1.00000000134377,0.531207911569528
7700.00000001048,29.9483757402255,1.00000000112784,0.496548547298181
7800.00000001084,29.6106620048083,1.00000000138331,0.513785111076344
7900.00000001121,29.2792676120333,1.00000000157791,0.53050469102033
8000.00000001157,28.9555681596519,1.00000000134269,0.50770022705443
8100.00000001194,28.6512324381838,1.00000000122444,0.504145441943783
8200.0000000123,28.3626021456317,1.0000000013167,0.520480327387619
8300.00000001266,28.0810169483136,1.00000000152306,0.52523450262808
8400.00000001303,27.803501813829,1.00000000135395,0.525928545184478
8500.00000001339,27.541150755017,1.00000000111379,0.515789473906339
8600.00000001376,27.2938138832456,1.00000000135385,0.512374240140826
8700.00000001412,27.0533315526842,1.00000000140405,0.533293172738173
8800.00000001448,26.8177167638491,1.00000000144421,0.528348543626236
8900.00000001485,26.5905496024173,1.00000000132002,0.517287845496147
9000.00000001521,26.3794269631816,1.00000000124339,0.516225421580512
9100.00000001557,26.178527085514,1.00000000141554,0.53668029970111
9200.00000001594,25.9860865303959,1.00000000127328,0.528241118793098
9300.0000000163,25.8008307870009,1.00000000142752,0.525490808767547
9400.00000001667,25.618829124456,1.00000000140843,0.527782726315323
9500.00000001703,25.440842536056,1.0000000014288,0.550009432605939
9600.00000001739,25.2693876355412,1.00000000124859,0.536838074192935
9700.00000001776,25.1077030003868,1.00000000129122,0.526155927924391
9800.00000001812,24.953954307742,1.00000000147256,0.542264089610024
9900.00000001848,24.8046914759168,1.00000000136193,0.538346965686724
10000.0000000188,24.6598575118613,1.00000000130766,0.53387240253244
10100.0000000192,24.528387801124,1.00000000128763,0.532143579310498
10200.0000000196,24.4085762994162,1.00000000134235,0.532432168998072
10300.0000000199,24.2870995761902,1.00000000148446,0.54475542962308
10400.0000000203,24.1689675967513,1.00000000127402,0.533913847034771
10500.0000000207,24.0660131345322,1.00000000116623,0.523424654006462
10600.000000021,23.9700814479259,1.00000000141835,0.536545455011711
10700.0000000214,23.8701801452256,1.00000000148783,0.545843434603799
10800.0000000218,23.7617792859915,1.00000000148884,0.560006780021703
10900.0000000221,23.6514488058583,1.0000000013006,0.561447362183237
11000.0000000225,23.5469368365776,1.00000000127166,0.547417489139394
11100.0000000229,23.4489088102503,1.00000000136447,0.552834699571572
11200.0000000232,23.3563249941038,1.00000000143337,0.550669259476169
11300.0000000236,23.268363829649,1.00000000127194,0.543329731651859
11400.0000000239,23.1864025101834,1.00000000137507,0.53528523825717
11500.0000000243,23.1132484964291,1.00000000136451,0.543556786490637
11600.0000000247,23.0488249215861,1.00000000133254,0.548592614947743
11700.000000025,22.9900690715676,1.00000000144898,0.550935447819232
11800.0000000254,22.932348999295,1.00000000147556,0.546112372529286
11900.0000000258,22.8739534117528,1.00000000140163,0.549516670252048
12000.0000000261,22.8210956506776,1.00000000137175,0.54159388845678
12100.0000000265,22.7792983316556,1.00000000125565,0.538435635332908
12200.0000000269,22.7409980947731,1.00000000143252,0.557230271637695
12300.0000000272,22.6991427287332,1.00000000148408,0.56791469511603
12400.0000000276,22.6538448952182,1.00000000149514,0.560038541090568
12500.0000000279,22.6040766013122,1.00000000144716,0.563704439108082
12600.0000000283,22.5486689429097,1.00000000146391,0.566373974874966
12700.0000000287,22.4862070582054,1.00000000152685,0.583369202144675
12800.000000029,22.4195065869048,1.00000000140716,0.583591686596663
12900.0000000294,22.3543818764371,1.00000000131585,0.574367941321973
13000.0000000298,22.2961595659846,1.0000000014393,0.570064343578105
13100.0000000301,22.2459619312804,1.00000000144075,0.562877962161344
13200.0000000305,22.201882840168,1.00000000131042,0.548855116944635
13300.0000000309,22.1637575590293,1.00000000142606,0.549686525684917
13400.0000000312,22.1337325586141,1.00000000139022,0.557479452993014
13500.0000000316,22.1106787630265,1.00000000141414,0.564550173258022
13600.0000000319,22.0923222280412,1.00000000146318,0.566624905548698
13700.0000000323,22.0722574662939,1.00000000146694,0.564429458566575
13800.0000000327,22.0514362421765,1.00000000138929,0.56175754311337
13900.000000033,22.0363159479846,1.00000000130986,0.553662311169615
14000.0000000334,22.0274512420359,1.00000000135716,0.551090472676079
14100.0000000338,22.020882694672,1.00000000142203,0.560341070303009
14200.0000000341,22.0155739022196,1.00000000143897,0.570528586510813
14300.0000000345,22.0116693039048,1.00000000134328,0.575905290477527
14400.0000000349,22.0061611770238,1.00000000142953,0.583681826550063
14500.0000000352,21.9960899081661,1.0000000015549,0.59470685485201
14600.0000000356,21.9800778918413,1.00000000146602,0.591092723417471
14700.0000000359,21.9625024217117,1.00000000143632,0.589940267625313
14800.0000000363,21.9441891890358,1.00000000139095,0.591843091318767
14900.0000000367,21.9257604904089,1.00000000148027,0.589527222860252
15000.000000037,21.902650223696,1.00000000145177,0.588179295351558
15100.0000000374,21.8693506048834,1.00000000160809,0.589145065843081
15200.0000000378,21.8262690254201,1.00000000156802,0.592695243768925
15300.0000000381,21.776727351471,1.0000000014961,0.603081528889996
15400.0000000385,21.7256125772934,1.00000000143446,0.601154166443353
15500.0000000389,21.677718023522,1.00000000129986,0.588225819496418
15600.0000000392,21.6364465738646,1.00000000139377,0.58540540228931
15700.0000000396,21.6038587631472,1.00000000150486,0.583429481752378
15800.0000000399,21.5782533269374,1.00000000147025,0.581162003826356
15900.0000000403,21.5590176715935,1.00000000146218,0.58172446542453
16000.0000000407,21.5482542345072,1.00000000141802,0.577918124013878
16100.000000041,21.5421583602124,1.00000000144792,0.582249377420202
16200.0000000414,21.5426604810465,1.00000000134399,0.586707960708227
16300.0000000418,21.5471625321897,1.00000000151065,0.588469496423384
16400.0000000418,21.5507226886499,1.00000000150924,0.582574655407064
16500.0000000404,21.5546374341626,1.00000000150554,0.583660562596345
16600.0000000389,21.5623891392849,1.00000000136318,0.573098269218647
16700.0000000375,21.5731961291577,1.00000000145068,0.570816070457229
16800.000000036,21.5878295405183,1.00000000145875,0.577876508282494
16900.0000000346,21.6058759952757,1.00000000142881,0.586670254141544
17000.0000000331,21.6255451169579,1.00000000151184,0.590424153902751
17100.0000000317,21.6444194251728,1.00000000152718,0.590642943400021
17200.0000000302,21.6576526733582,1.00000000159673,0.588821572921893
17300.0000000287,21.668995699987,1.00000000149282,0.580299591867698
17400.0000000273,21.6784126034162,1.00000000151079,0.589436094820481
17500.0000000258,21.6889012723578,1.00000000150417,0.606593137018566
17600.0000000244,21.7001590643547,1.00000000149337,0.609459860123288
17700.0000000229,21.7075003536715,1.0000000014982,0.615846915243598
17800.0000000215,21.7108920909668,1.00000000156635,0.631273010809296
17900.00000002,21.7116342631857,1.0000000014709,0.628001873334398
18000.0000000186,21.7095263242296,1.00000000151386,0.625286922392969
18100.0000000171,21.7053317628223,1.00000000153062,0.633918643437197
18200.0000000156,21.6977773749032,1.0000000015557,0.640766450535287
18300.0000000142,21.6870451065906,1.00000000151292,0.642521435603471
18400.0000000127,21.6724683143403,1.00000000143806,0.644352132661037
18500.0000000113,21.6556205864086,1.00000000146527,0.63673818958122
18600.0000000098,21.6345136305786,1.00000000156655,0.638368795026437
18700.0000000084,21.6079581687084,1.00000000157481,0.641131975019139
18800.0000000069,21.5768498252929,1.00000000158307,0.638176626147777
18900.0000000055,21.5390809853626,1.00000000164716,0.64151255595505
19000.000000004,21.4973477846562,1.00000000154342,0.633680836823254
19100.0000000026,21.4517550607237,1.00000000147665,0.637908614743378
19200.0000000011,21.4058725678087,1.00000000141799,0.639415968262639
19299.9999999996,21.362913071721,1.0000000014813,0.640085331755806
19399.9999999982,21.3238670880643,1.00000000148134,0.641279804203382
19499.9999999967,21.2910997670253,1.00000000149964,0.638583872189646
19599.9999999953,21.2646805870162,1.00000000149088,0.629254421180175
19699.9999999938,21.2439753965483,1.000000001488,0.628951436752078
19799.9999999924,21.2289182829838,1.00000000150248,0.622217643738969
19899.9999999909,21.2210632705208,1.00000000146739,0.610109053681658
19999.9999999895,21.2203040786014,1.00000000150033,0.598267595235078
20099.999999988,21.2246877379744,1.00000000149402,0.600516413925789
20199.9999999865,21.2340863875935,1.00000000152594,0.605467743451478
20299.9999999851,21.2477311835295,1.00000000155105,0.604891219485227
20399.9999999836,21.2629905326342,1.00000000157064,0.613232645221636
20499.9999999822,21.2788190360468,1.00000000156737,0.61079551981252
20599.9999999807,21.2961919467276,1.00000000158109,0.604364367575691
20699.9999999793,21.3129697364969,1.00000000150457,0.603636358743007
20799.9999999778,21.3345704483549,1.00000000144063,0.595662170883717
20899.9999999764,21.3597410971768,1.00000000147465,0.592798464606859
20999.9999999749,21.3880063008041,1.00000000156047,0.599445303867506
21099.9999999734,21.4166241115161,1.00000000155432,0.604809686069352
21199.999999972,21.4469585255061,1.00000000157834,0.605727446762373
21299.9999999705,21.4760999600117,1.00000000163421,0.60655538764525
21399.9999999691,21.5046130670483,1.00000000154763,0.611794495663826
21499.9999999676,21.5327522066676,1.00000000161454,0.61211002802623
21599.9999999662,21.5586538338754,1.00000000158805,0.61059600020923
21699.9999999647,21.5787750782218,1.00000000171292,0.615371611887549
21799.9999999633,21.5911933170048,1.00000000166936,0.616920326994294
21899.9999999618,21.6015164682383,1.00000000154482,0.620081187299364
21999.9999999603,21.6121413628022,1.00000000153826,0.633392148239404
22099.9999999589,21.6246084080769,1.00000000156776,0.635042577438696
22199.9999999574,21.6371497538153,1.00000000161094,0.637395556847585
22299.999999956,21.6496073682876,1.00000000162477,0.636509127172041
22399.9999999545,21.6589559004305,1.00000000171817,0.639165699016983
22499.9999999531,21.6688695308544,1.00000000151159,0.637147776168251
22599.9999999516,21.6802570329809,1.00000000158819,0.639222469476151
22699.9999999502,21.6909324007737,1.00000000168579,0.639361620354768
22799.9999999487,21.6993099704354,1.00000000163804,0.642150807651898
22899.9999999473,21.7043678193007,1.00000000171448,0.635771321675801
22999.9999999458,21.7041369252304,1.00000000164799,0.635603732512688
23099.9999999443,21.7021293265122,1.00000000162046,0.641597611190148
23199.9999999429,21.6988761991998,1.00000000158723,0.640013523172986
23299.9999999414,21.6963237560098,1.0000000016661,0.640376911585647
23399.99999994,21.6941965087211,1.00000000158183,0.643300969252675
23499.9999999385,21.6916830132038,1.0000000016423,0.646618749282651
23599.9999999371,21.6904003208652,1.00000000153875,0.64070139855455
23699.9999999356,21.6885862136683,1.00000000167022,0.645736271325742
23799.9999999342,21.6834596832294,1.00000000173261,0.653838158279232
23899.9999999327,21.6742942789796,1.00000000174531,0.652964837583058
23999.9999999312,21.6611154482398,1.00000000170021,0.655294210250833
24099.9999999298,21.6456631041513,1.00000000171205,0.652400627671601
24199.9999999283,21.6299920349615,1.00000000157762,0.651648992777304
24299.9999999269,21.6127558202499,1.00000000164871,0.651629851986692
24399.9999999254,21.5937721519837,1.00000000152387,0.650551305565995
24499.999999924,21.5746666485992,1.00000000168562,0.659024407038693
24599.9999999225,21.5533547275027,1.00000000156812,0.655057409793042
24699.9999999211,21.5316903368659,1.00000000156346,0.652257894795811
24799.9999999196,21.5090892000414,1.0000000016708,0.652642616602959
24899.9999999181,21.4836200054991,1.00000000171387,0.654035579785851
24999.9999999167,21.454536732071,1.00000000173657,0.660080499020258
25099.9999999152,21.4228333176625,1.00000000170273,0.658456241484148
25199.9999999138,21.3888204696441,1.00000000161665,0.658124734277145
25299.9999999123,21.3525929864208,1.00000000177158,0.659461243775162
25399.9999999109,21.3134589322129,1.00000000167922,0.658154851184757
25499.9999999094,21.2732192932123,1.00000000164818,0.656930485164668
25599.999999908,21.2324061071082,1.00000000169822,0.657905836434768
25699.9999999065,21.191793391103,1.00000000162675,0.65317856868072
25799.9999999051,21.1532318285854,1.00000000162596,0.647471669398983
25899.9999999036,21.1174098118956,1.00000000160469,0.634141036558215
25999.9999999021,21.0858154609653,1.0000000015555,0.624419418006694
26099.9999999007,21.0593473611076,1.00000000160965,0.629991993256986
26199.9999998992,21.0392219469037,1.00000000166782,0.629143288839007
26299.9999998978,21.0238406935496,1.00000000162174,0.628974625753653
26399.9999998963,21.0127906754999,1.0000000015895,0.634159143189762
26499.9999998949,21.0077020805111,1.00000000158336,0.623414930774937
26599.9999998934,21.0089336966911,1.0000000017038,0.616571963056377
26699.999999892,21.0164069002696,1.00000000159841,0.608333369362683
26799.9999998905,21.0304226521694,1.0000000016823,0.597059582215006
26899.999999889,21.0490126363122,1.00000000175895,0.601035948593675
26999.9999998876,21.0706589812589,1.00000000169069,0.603342523176725
27099.9999998861,21.0964148487054,1.00000000167013,0.599485078433405
27199.9999998847,21.1239763642346,1.00000000185074,0.605593313654565
27299.9999998832,21.1505999366255,1.0000000017564,0.605295480030834
27399.9999998818,21.1793211812932,1.00000000170091,0.600721294230649
27499.9999998803,21.2097261241479,1.00000000178799,0.594804395139497
27599.9999998789,21.2407272241036,1.00000000165133,0.594452040556699
27699.9999998774,21.2767377473357,1.00000000159671,0.596480239518078
27799.9999998759,21.3156875056068,1.00000000179802,0.602332144383611
27899.9999998745,21.3536882532627,1.00000000177643,0.594024727047202
27999.999999873,21.3936548264217,1.00000000171142,0.597206827359015
28099.9999998716,21.4372760232162,1.00000000161902,0.597191854358229
28199.9999998701,21.4837485685892,1.0000000017463,0.610251552836393
28299.9999998687,21.5304251040778,1.00000000171354,0.61243424133481
28399.9999998672,21.5769494885994,1.00000000174821,0.62212801848461
28499.9999998658,21.6230928990447,1.00000000167575,0.626677741696618
28599.9999998643,21.6701937496211,1.0000000017273,0.622512352106622
28699.9999998629,21.7144010709082,1.00000000186533,0.622447275420305
28799.9999998614,21.7534997813844,1.00000000188937,0.623281015570599
28899.9999998599,21.7893775850157,1.00000000173675,0.625674951735857
28999.9999998585,21.8203368192693,1.00000000182192,0.641034718657337
