Time,AGPnorm,Energy,Entropy
0,0,1,3.25681694554516e-18
99.9999999999986,0.00779468309816392,0.999999999999401,0.0231252277662198
199.999999999993,0.0217379364817312,1,0.0664410131540494
300,0.0433119601698948,1.00000000000079,0.133087153979431
400.000000000022,0.0642067725416551,1.00000000007371,0.231218067831855
500.000000000045,0.092571544073838,1.00000000079201,0.3675670700944
600.000000000068,0.374435136260865,1.00000000196484,0.477380873183368
700.000000000091,1.24391715528762,1.00000000281396,0.54097426740605
800.000000000113,2.94462513589743,1.00000000296,0.572492395176794
900.000000000136,5.32376096805977,1.00000000294859,0.584223593759006
1000.00000000016,8.03469195617891,1.00000000297599,0.584579631514511
1100.0000000001,10.7589248951657,1.00000000272169,0.579382318017447
1200,13.1880427662223,1.00000000269935,0.568716704788444
1299.99999999991,15.171643431247,1.00000000228737,0.562689411622069
1399.99999999982,16.6323501147298,1.00000000210416,0.551581345733608
1499.99999999973,17.569744190126,1.00000000200335,0.554135695665592
1599.99999999964,18.0228264407328,1.00000000196193,0.554546364626013
1699.99999999955,18.120050180652,1.00000000148935,0.507641930991638
1799.99999999946,17.9521511166874,1.00000000236983,0.577853959496786
1899.99999999937,17.5763329908982,1.00000000112936,0.459757486154848
1999.99999999928,17.1199074222605,1.00000000259566,0.581517280063231
2099.99999999919,16.6087221971498,1.00000000101149,0.40816925283055
2199.99999999909,16.0193486594512,1.00000000255741,0.561892254412416
2299.999999999,15.5108441259296,1.00000000187391,0.502745117486044
2399.99999999891,14.9568225996519,1.00000000123407,0.40249945979083
2499.99999999882,14.3990396677256,1.00000000251972,0.54980415387519
2599.99999999873,13.9088154711722,1.00000000200526,0.540476567783234
2699.99999999864,13.4423348857345,1.00000000111419,0.382824043121136
2799.99999999855,12.9902534588719,1.00000000180113,0.47947956466373
2899.99999999846,12.5500749945186,1.00000000210837,0.531085921779025
2999.99999999837,12.1383919941242,1.00000000246747,0.564680434371305
3099.99999999828,11.7690269782521,1.00000000129966,0.437619903186472
3199.99999999819,11.4680233648473,1.00000000144594,0.406091923465926
3299.99999999809,11.172627226932,1.00000000223823,0.521878490917498
3399.999999998,10.8814271385555,1.00000000175631,0.519994584927063
3499.99999999791,10.5985475285472,1.00000000221655,0.530950472962696
3599.99999999782,10.309550638361,1.00000000255675,0.566183953859356
3699.99999999773,10.0527049353326,1.00000000139597,0.471157364701088
3799.99999999764,9.88525689468906,1.00000000120034,0.404442195344005
3899.99999999755,9.77232240477773,1.00000000193565,0.474468729711135
3999.99999999746,9.63777212356011,1.00000000204676,0.526298341639528
4099.99999999738,9.49413488256876,1.00000000198811,0.548610395498397
4199.99999999775,9.34042254241356,1.00000000180118,0.554214396470141
4299.99999999811,9.18315760455882,1.00000000181428,0.549162801595137
4399.99999999848,9.01738936244359,1.00000000215006,0.543606979667318
4499.99999999884,8.83520182612838,1.00000000246609,0.574513107375209
4599.9999999992,8.66747815218641,1.00000000149986,0.515632831628943
4699.99999999957,8.58035571712389,1.00000000105648,0.420382457655268
4799.99999999993,8.59575056946512,1.00000000158618,0.430650890230184
4900.00000000029,8.62620025330974,1.00000000192014,0.487403464148109
5000.00000000066,8.62914175859176,1.00000000209916,0.53981069098442
5100.00000000102,8.60827486554421,1.00000000189773,0.553709354118226
5200.00000000139,8.57206134472841,1.00000000199266,0.575642251868795
5300.00000000175,8.52536342999132,1.00000000201474,0.566738139170645
5400.00000000211,8.46691333817963,1.00000000197943,0.560075229324209
5500.00000000248,8.38967289467653,1.00000000201267,0.580039981286475
5600.00000000284,8.30360684081914,1.00000000182373,0.578655514016038
5700.00000000321,8.21904792432048,1.00000000180865,0.588014963562712
5800.00000000357,8.12502806636454,1.00000000208061,0.582469417397377
5900.00000000393,8.01891981268881,1.00000000243719,0.586277370381131
6000.0000000043,7.90376017919476,1.00000000258214,0.581483953084822
6100.00000000466,7.78874806588218,1.00000000180056,0.553386782579577
6200.00000000502,7.71617841841327,1.00000000125239,0.478943233243652
6300.00000000539,7.73879641915224,1.0000000012678,0.43756173671477
6400.00000000575,7.85383785683525,1.00000000151191,0.454006483032101
6500.00000000612,7.99018087276449,1.00000000202607,0.497384299462928
6600.00000000648,8.10657723674732,1.0000000020665,0.531384833832413
6700.00000000684,8.20055909592228,1.00000000196715,0.553960251656267
6800.00000000721,8.27547978663591,1.0000000019912,0.579989759811001
6900.00000000757,8.32156890467379,1.00000000214572,0.597441667564678
7000.00000000793,8.34672451224593,1.00000000207825,0.60927254947678
7100.0000000083,8.35104720228935,1.00000000224478,0.618984847093057
7200.00000000866,8.33473632481167,1.00000000216994,0.616238398979655
7300.00000000903,8.31052005436766,1.00000000201668,0.605911196358288
7400.00000000939,8.28656318706948,1.00000000194674,0.59768172283272
7500.00000000975,8.26663972704807,1.00000000204978,0.57566371218551
7600.00000001012,8.23506654673433,1.00000000208391,0.582487909611739
7700.00000001048,8.19741590582032,1.00000000215907,0.597037350005048
7800.00000001084,8.16658187704008,1.00000000184718,0.602863465003461
7900.00000001121,8.13041135298875,1.00000000228875,0.617874353072949
8000.00000001157,8.09336352902933,1.00000000200388,0.606900156838825
8100.00000001194,8.0505397958105,1.00000000221183,0.602668885368279
8200.0000000123,8.00475382116157,1.00000000209577,0.594074145650776
8300.00000001266,7.94768798703796,1.00000000216873,0.622514227547256
8400.00000001303,7.88315446063563,1.00000000216749,0.630440871233656
8500.00000001339,7.81605021089317,1.00000000184523,0.624271669190885
8600.00000001376,7.74920748310928,1.00000000216791,0.631138582234272
8700.00000001412,7.68034999264306,1.00000000217655,0.629428701879472
8800.00000001448,7.61006252347568,1.00000000242676,0.638122606823369
8900.00000001485,7.54129834804328,1.00000000245124,0.637438005229583
9000.00000001521,7.47141829982041,1.00000000253618,0.617697166041205
9100.00000001557,7.3948251144645,1.00000000233139,0.593474158389273
9200.00000001594,7.3196905112833,1.00000000178766,0.549468999211172
9300.0000000163,7.27553945113831,1.00000000154093,0.502697025307347
9400.00000001667,7.30102189740768,1.0000000012821,0.461339370118591
9500.00000001703,7.41609570000447,1.00000000149923,0.455797051994343
9600.00000001739,7.60794915910517,1.00000000196217,0.469168594994769
9700.00000001776,7.82766830170219,1.00000000197554,0.493275130946696
9800.00000001812,8.04223663171456,1.00000000245283,0.512981471626667
9900.00000001848,8.24208203882808,1.00000000205401,0.537109632663707
10000.0000000188,8.41980439650628,1.00000000240241,0.558458803209058
10100.0000000192,8.57884974026378,1.00000000219368,0.564601801635596
10200.0000000196,8.71931658095859,1.00000000214625,0.586364729822873
10300.0000000199,8.83904369598995,1.00000000215509,0.611398640014599
10400.0000000203,8.93819008821979,1.00000000243219,0.611359395558388
10500.0000000207,9.01623459990401,1.00000000219832,0.608565919642503
10600.000000021,9.07529399178398,1.00000000234691,0.632459660715394
10700.0000000214,9.11374050265866,1.00000000218797,0.642740119570784
10800.0000000218,9.13765566496958,1.00000000225949,0.639796247815459
10900.0000000221,9.15420476508376,1.00000000196536,0.632385333662787
11000.0000000225,9.16605603307314,1.0000000022927,0.636479375689179
11100.0000000229,9.16590346169907,1.00000000226926,0.640754952499349
11200.0000000232,9.16304012867759,1.00000000219261,0.637904322579834
11300.0000000236,9.14968595553806,1.00000000232877,0.63346248339473
11400.0000000239,9.13106296810746,1.00000000220795,0.626793683157475
11500.0000000243,9.10814791679297,1.0000000024417,0.641138538185844
11600.0000000247,9.07744736815429,1.00000000233454,0.629549724211648
11700.000000025,9.04403995776267,1.000000002278,0.647788267457055
11800.0000000254,9.00606542148484,1.00000000223141,0.653753459890911
11900.0000000258,8.96562395485424,1.00000000238819,0.655387006901586
12000.0000000261,8.9235473104241,1.00000000229763,0.638018843332832
12100.0000000265,8.8857876557893,1.00000000215154,0.624479734126332
12200.0000000269,8.85524837392216,1.00000000215552,0.601310640212386
12300.0000000272,8.83227223660938,1.00000000212563,0.603786738840259
12400.0000000276,8.81697568718911,1.00000000210065,0.611169633146952
12500.0000000279,8.80731145989544,1.00000000220168,0.61663106214497
12600.0000000283,8.79703164825467,1.00000000229203,0.62403644998619
12700.0000000287,8.78038249238387,1.00000000245328,0.627231075599047
12800.000000029,8.76308008967234,1.00000000209672,0.616607620753191
12900.0000000294,8.7468990589144,1.00000000252622,0.609291190328754
13000.0000000298,8.7302840725438,1.00000000236057,0.623132334119303
13100.0000000301,8.71570272353892,1.00000000223659,0.618206986544262
13200.0000000305,8.70248802735346,1.00000000227902,0.612647948734727
13300.0000000309,8.68634600029975,1.00000000252216,0.625387353128598
13400.0000000312,8.66733786101938,1.00000000216256,0.618053754589465
13500.0000000316,8.6506792458506,1.00000000222412,0.623884598388024
13600.0000000319,8.63439482410237,1.00000000227449,0.64213841778071
13700.0000000323,8.62174111401739,1.00000000221073,0.637692963933632
13800.0000000327,8.61191177228482,1.000000002419,0.627564269662409
13900.000000033,8.59858849490065,1.00000000246608,0.618245506896539
14000.0000000334,8.58535817619976,1.00000000249312,0.632344902850347
14100.0000000338,8.5723920110368,1.00000000227111,0.65068845524433
14200.0000000341,8.5548837032052,1.00000000259161,0.662702223450856
14300.0000000345,8.53593033948234,1.00000000221901,0.654999766986515
14400.0000000349,8.51888734133219,1.00000000231449,0.665864554174372
14500.0000000352,8.49554146192278,1.00000000253848,0.66216724604352
14600.0000000356,8.47171260028263,1.00000000221245,0.641920560661593
14700.0000000359,8.44707633152473,1.00000000251343,0.655289210975173
14800.0000000363,8.42405926241066,1.0000000020569,0.65935502584569
14900.0000000367,8.40241895290638,1.00000000232473,0.664769733083687
15000.000000037,8.38003913610201,1.00000000218184,0.655844030051088
15100.0000000374,8.35504886349656,1.00000000249101,0.647277204820637
15200.0000000378,8.32704947943144,1.00000000234779,0.650818750714426
15300.0000000381,8.30033253504429,1.00000000247803,0.646662701345976
15400.0000000385,8.27003331392527,1.0000000025762,0.64963119439195
15500.0000000389,8.24113870930628,1.00000000235977,0.642835890756259
15600.0000000392,8.21581712535469,1.0000000023663,0.651075080408105
15700.0000000396,8.18763458910667,1.00000000241296,0.653580314948357
15800.0000000399,8.15613945455017,1.00000000241334,0.660913276632801
15900.0000000403,8.12486775063018,1.00000000233126,0.652039197749223
16000.0000000407,8.09262821847674,1.00000000249298,0.65992991470015
16100.000000041,8.05838886195974,1.00000000239244,0.648820558173716
16200.0000000414,8.0228042881302,1.00000000259125,0.659990869177821
16300.0000000418,7.98388544266142,1.00000000260758,0.670333865333982
16400.0000000418,7.94552714554173,1.00000000218078,0.651059610881984
16500.0000000404,7.90520482100798,1.00000000278205,0.671047261780413
16600.0000000389,7.86110026801239,1.00000000276992,0.643143066855363
16700.0000000375,7.81658667277861,1.00000000251842,0.662931800972166
16800.000000036,7.7717027507476,1.00000000231692,0.660989213425163
16900.0000000346,7.72697110543573,1.00000000250411,0.681831650792341
17000.0000000331,7.68277309151644,1.00000000239589,0.67178424737687
17100.0000000317,7.63947493200484,1.00000000237363,0.672342914839063
17200.0000000302,7.59776327934151,1.00000000238466,0.667174668865629
17300.0000000287,7.55935443863486,1.00000000237098,0.667416005957476
17400.0000000273,7.52520365197282,1.00000000264032,0.663743940588973
17500.0000000258,7.49667957906072,1.00000000287603,0.671573256365154
17600.0000000244,7.47792304196661,1.00000000267114,0.674038979035475
17700.0000000229,7.46384566037304,1.00000000295035,0.683021362183269
17800.0000000215,7.46348209515097,1.00000000271857,0.679026593922502
17900.00000002,7.46161864914097,1.00000000298894,0.675801219202716
18000.0000000186,7.46991896872844,1.00000000269165,0.664429957961661
18100.0000000171,7.46582874915246,1.00000000295053,0.651249611087877
18200.0000000156,7.4588673667894,1.00000000296926,0.630251011818703
18300.0000000142,7.43502007894593,1.00000000277178,0.610164979446863
18400.0000000127,7.40136273270429,1.00000000219328,0.597122223173784
18500.0000000113,7.3668876927485,1.00000000205059,0.568225440780663
18600.0000000098,7.34480945934082,1.00000000209818,0.542498610425574
18700.0000000084,7.35925759889747,1.00000000195261,0.517343461213391
18800.0000000069,7.425702844126,1.00000000184302,0.499908276847011
18900.0000000055,7.5668419897055,1.00000000179716,0.491267179982471
19000.000000004,7.77665069538751,1.00000000192356,0.48794368526461
19100.0000000026,8.07277741381037,1.00000000212408,0.498170669561411
19200.0000000011,8.40394372895257,1.00000000230001,0.496358932075265
19299.9999999996,8.79377759162072,1.00000000242843,0.508236013268686
19399.9999999982,9.16980776312367,1.00000000257351,0.515311946280369
19499.9999999967,9.57273823074444,1.0000000026608,0.525338717303964
19599.9999999953,9.9499585911674,1.0000000026015,0.537032427067893
19699.9999999938,10.3297112255579,1.00000000288741,0.541635272793127
19799.9999999924,10.6917749349099,1.00000000270441,0.557065963444643
19899.9999999909,11.0358158685965,1.00000000287441,0.549898947683332
19999.9999999895,11.3762724238509,1.00000000248351,0.565067252269814
20099.999999988,11.6989769111202,1.00000000281191,0.571014891070517
20199.9999999865,12.0156669618539,1.00000000295256,0.586347876787707
20299.9999999851,12.3210552618035,1.00000000257533,0.596597461412294
20399.9999999836,12.6209695920696,1.00000000296887,0.606646125473589
20499.9999999822,12.903357200766,1.00000000274321,0.60841453881564
20599.9999999807,13.1726054424414,1.00000000287055,0.622962747617998
20699.9999999793,13.4357581680521,1.0000000029679,0.640950650037224
20799.9999999778,13.6696822102143,1.00000000273612,0.639933049939553
20899.9999999764,13.9022878404942,1.00000000265888,0.66293390292494
20999.9999999749,14.1086577960892,1.00000000296621,0.658388908574404
21099.9999999734,14.3038195893524,1.00000000285547,0.651712729825649
21199.999999972,14.4812435001563,1.00000000294311,0.671207184573019
21299.9999999705,14.6439453883438,1.00000000307377,0.668732713063235
21399.9999999691,14.8058096870504,1.00000000298788,0.671215885429048
21499.9999999676,14.9423795392468,1.00000000276731,0.668991461189868
21599.9999999662,15.0723442714331,1.00000000296049,0.675502820178123
21699.9999999647,15.1853719890028,1.0000000029224,0.685669968943736
21799.9999999633,15.295102054808,1.0000000027505,0.685740817533856
21899.9999999618,15.403725885609,1.00000000265903,0.687446427235533
21999.9999999603,15.5095669037379,1.00000000298483,0.685001632262702
22099.9999999589,15.5989827331098,1.00000000298008,0.686495356697186
22199.9999999574,15.6736597423716,1.00000000293791,0.681789856141738
22299.999999956,15.7497392817998,1.00000000295953,0.685914951052347
22399.9999999545,15.8250436315072,1.0000000027286,0.681302654912359
22499.9999999531,15.9010413898873,1.00000000284085,0.678115953329548
22599.9999999516,15.9691375783196,1.00000000292744,0.681692819500803
22699.9999999502,16.0290189054589,1.00000000300409,0.686352233548275
22799.9999999487,16.0945723647998,1.00000000260664,0.678631703642416
22899.9999999473,16.1618031366645,1.00000000281573,0.677610547748485
22999.9999999458,16.2320877549428,1.00000000295277,0.684154126533862
23099.9999999443,16.297168794236,1.00000000295133,0.677137856192529
23199.9999999429,16.3552722143202,1.00000000318873,0.675139836017778
23299.9999999414,16.4018593257131,1.00000000291863,0.675354046125771
23399.99999994,16.4478662244548,1.00000000313004,0.678226141143982
23499.9999999385,16.5025516367402,1.00000000290634,0.674668959223361
23599.9999999371,16.5558307286507,1.00000000313811,0.669865930512468
23699.9999999356,16.610850104375,1.00000000313337,0.677207908750947
23799.9999999342,16.6598055975818,1.00000000307182,0.673019473902812
23899.9999999327,16.7035169945182,1.00000000294756,0.684648189419013
23999.9999999312,16.7507676240695,1.00000000278249,0.667107863128098
24099.9999999298,16.8013084472592,1.00000000308193,0.676434104648215
24199.9999999283,16.852226293716,1.00000000317673,0.684806795067153
24299.9999999269,16.8977869396584,1.00000000329986,0.684756503704034
24399.9999999254,16.9463893014262,1.00000000307375,0.683853374861616
24499.999999924,17.005562401376,1.00000000262976,0.665778783442813
24599.9999999225,17.0714957466328,1.00000000308536,0.684309651462317
24699.9999999211,17.1343813221346,1.00000000323225,0.674362304088039
24799.9999999196,17.201114477708,1.00000000279902,0.661363049686668
24899.9999999181,17.2758243347275,1.00000000296102,0.650538119464006
24999.9999999167,17.3475399050628,1.00000000322468,0.67304159937926
25099.9999999152,17.4083719100475,1.00000000320047,0.676326784290899
25199.9999999138,17.4658326200076,1.00000000302794,0.670226564170428
25299.9999999123,17.5302751269384,1.00000000299092,0.65488991856536
25399.9999999109,17.5969467170664,1.00000000295443,0.670651116859572
25499.9999999094,17.658634667273,1.00000000313072,0.682338907610966
25599.999999908,17.7197028916677,1.00000000292427,0.682826853754151
25699.9999999065,17.7826518070512,1.00000000268796,0.66839329374286
25799.9999999051,17.8517596199967,1.00000000306091,0.656638550888863
25899.9999999036,17.9205741793353,1.00000000317424,0.669330387966744
25999.9999999021,17.9786286640022,1.0000000036846,0.671660297919993
26099.9999999007,18.032090074958,1.00000000269411,0.657901848809105
26199.9999998992,18.096222878625,1.00000000302783,0.671518015227305
26299.9999998978,18.1678866706481,1.00000000302248,0.67850195421088
26399.9999998963,18.2430325314685,1.0000000030533,0.680842551326628
26499.9999998949,18.3184137201468,1.00000000315971,0.67386357258978
26599.9999998934,18.3896976498968,1.00000000315865,0.680216751925793
26699.999999892,18.444665243721,1.00000000350633,0.683538608175233
26799.9999998905,18.4929698451875,1.00000000293386,0.685268711889731
26899.999999889,18.540626925063,1.00000000306796,0.690005072307281
26999.9999998876,18.5914677736058,1.00000000327313,0.688039738728933
27099.9999998861,18.6495519212315,1.0000000035044,0.686120474203317
27199.9999998847,18.7187684958812,1.00000000314701,0.672569645482743
27299.9999998832,18.7981275662068,1.00000000322344,0.667824114102963
27399.9999998818,18.8883959609399,1.00000000291555,0.662169718433839
27499.9999998803,18.9910394342393,1.00000000318808,0.676900292565641
27599.9999998789,19.0940383973817,1.00000000305414,0.6638338086997
27699.9999998774,19.1953235688559,1.00000000366089,0.691812678018551
27799.9999998759,19.2900404320768,1.00000000307269,0.678396748139514
27899.9999998745,19.3954865063543,1.00000000310471,0.676037982252142
27999.999999873,19.4998938896321,1.00000000320481,0.694801973989408
28099.9999998716,19.5960089712304,1.00000000345474,0.693484496596936
28199.9999998701,19.6936653672435,1.00000000327627,0.690692868910609
28299.9999998687,19.7861989561887,1.0000000037059,0.68809878481606
28399.9999998672,19.877574804948,1.00000000322083,0.677366237426024
28499.9999998658,19.9730268750591,1.00000000350141,0.685984196986396
28599.9999998643,20.0802255120558,1.00000000325916,0.67619629325247
28699.9999998629,20.1944534648188,1.00000000338593,0.68800985037988
28799.9999998614,20.3130293035099,1.00000000341872,0.68334068116795
28899.9999998599,20.4309875374547,1.00000000324459,0.68069417435358
28999.9999998585,20.5465597143879,1.00000000381401,0.685552291092353
29099.999999857,20.6539449462791,1.0000000037145,0.674605716461206
