Time,AGPnorm,Energy,Entropy
0,0,1,-1.12119927633524e-18
99.9999999999986,0.0157687433809051,0.999999999995407,0.0373877650926115
199.999999999993,0.0384699612310667,1.000000000001,0.111964583240959
300,0.0693365619033462,1.00000000014997,0.2439051511531
400.000000000022,0.14671170329408,1.00000000236174,0.426229004023971
500.000000000045,0.667116571513035,1.00000000468752,0.538754335135159
600.000000000068,1.93145360836277,1.00000000539964,0.590169234259514
700.000000000091,3.8540202417004,1.00000000524024,0.603732162049154
800.000000000113,5.84784448798868,1.00000000515661,0.605772745415793
900.000000000136,7.64432860943751,1.00000000466912,0.592688540953656
1000.00000000016,8.9486993002527,1.00000000378547,0.586375596680102
1100.0000000001,9.75160983555089,1.000000003723,0.578058589815867
1200,10.0921876784877,1.00000000357547,0.577777107203601
1299.99999999991,10.0752644161639,1.00000000331556,0.577691530669909
1399.99999999982,9.834915785108,1.00000000348596,0.563201033336317
1499.99999999973,9.4914811488215,1.0000000024329,0.48880848740065
1599.99999999964,9.12194271700438,1.00000000356896,0.522995105155631
1699.99999999955,8.70276587916202,1.00000000434735,0.551891607641356
1799.99999999946,8.31578856230978,1.00000000241777,0.467400863233527
1899.99999999937,7.9192192985301,1.0000000039851,0.532478072421964
1999.99999999928,7.55866100142685,1.00000000265761,0.483254815393564
2099.99999999919,7.22411576438362,1.00000000329312,0.515138345658811
2199.99999999909,6.90444228910776,1.0000000040451,0.554835321170796
2299.999999999,6.62355694819938,1.00000000244709,0.47719389740795
2399.99999999891,6.38064162744231,1.00000000386552,0.518531467342882
2499.99999999882,6.15092724046671,1.0000000033869,0.524276277269935
2599.99999999873,5.92645450932223,1.00000000402495,0.545359081316442
2699.99999999864,5.75025820477343,1.00000000262172,0.478409707903899
2799.99999999855,5.61213730294219,1.00000000353701,0.522596647916069
2899.99999999846,5.47079112962015,1.00000000325239,0.549002680603413
2999.99999999837,5.33282285961349,1.00000000373197,0.579085651910902
3099.99999999828,5.19383910382956,1.00000000422926,0.561401555307447
3199.99999999819,5.07597221806959,1.00000000309913,0.521698702490704
3299.99999999809,5.02885761026937,1.00000000342458,0.518951514016534
3399.999999998,4.97809991218705,1.00000000362219,0.556201491001573
3499.99999999791,4.92513138154209,1.00000000375633,0.575438007218228
3599.99999999782,4.87448706530866,1.00000000364424,0.577165361260304
3699.99999999773,4.80294711162857,1.0000000040485,0.605058971310596
3799.99999999764,4.72575164195723,1.00000000394069,0.603360531067804
3899.99999999755,4.64895529380607,1.00000000403556,0.573376748525421
3999.99999999746,4.59250136094164,1.00000000295675,0.535891064160621
4099.99999999738,4.60986028372547,1.0000000031095,0.526915878292492
4199.99999999775,4.63843983951138,1.00000000391236,0.569090297173574
4299.99999999811,4.65652093497403,1.00000000397882,0.574567529227088
4399.99999999848,4.67225495821326,1.00000000373914,0.600113768179281
4499.99999999884,4.67131937459266,1.00000000420639,0.617987094751175
4599.9999999992,4.67057564015344,1.00000000361687,0.621165438268046
4699.99999999957,4.65930218213047,1.00000000373528,0.64422705140073
4799.99999999993,4.63981744625558,1.00000000405531,0.631091673720222
4900.00000000029,4.60318073535411,1.00000000407999,0.645524370234879
5000.00000000066,4.55787886703673,1.00000000374941,0.652128178600035
5100.00000000102,4.51066592541308,1.0000000042754,0.651817704826769
5200.00000000139,4.4642811347413,1.00000000429516,0.634035777501344
5300.00000000175,4.42914375283441,1.00000000377884,0.57859487737702
5400.00000000211,4.4488659883207,1.00000000317235,0.556818853244438
5500.00000000248,4.52356286808761,1.00000000366642,0.571867527356437
5600.00000000284,4.60193648699659,1.00000000426944,0.599061615295623
5700.00000000321,4.67480679094162,1.00000000431068,0.615231635315773
5800.00000000357,4.73898821332586,1.00000000407397,0.628555782369242
5900.00000000393,4.78977596202829,1.00000000442241,0.636063002247706
6000.0000000043,4.83481106526405,1.00000000420719,0.661026227920921
6100.00000000466,4.85687370445528,1.00000000414804,0.659398958139713
6200.00000000502,4.87182370733712,1.00000000416847,0.669869179507298
6300.00000000539,4.88066445864508,1.00000000393625,0.664109758704112
6400.00000000575,4.88959439970011,1.00000000396557,0.665006596358017
6500.00000000612,4.90439538243084,1.0000000044426,0.681766146936178
6600.00000000648,4.90894096434382,1.00000000421157,0.660436239546057
6700.00000000684,4.90950361016283,1.00000000407239,0.660481886867565
6800.00000000721,4.91507248037489,1.0000000042886,0.676388708678587
6900.00000000757,4.91712229056604,1.00000000429828,0.684787445784621
7000.00000000793,4.90200819020926,1.00000000426182,0.686190512146732
7100.0000000083,4.89085690565012,1.00000000403544,0.662277179714073
7200.00000000866,4.87477920184415,1.00000000443643,0.665083667895765
7300.00000000903,4.85095165213864,1.00000000445662,0.670891183508813
7400.00000000939,4.82092504640001,1.000000004542,0.668065717486706
7500.00000000975,4.78288768222573,1.00000000390479,0.674588254948965
7600.00000001012,4.74372472817151,1.00000000480944,0.671747421134723
7700.00000001048,4.70653285951221,1.00000000510763,0.679682305787881
7800.00000001084,4.67359846917389,1.00000000471334,0.688259661328002
7900.00000001121,4.64531912740028,1.00000000438116,0.650763236837337
8000.00000001157,4.63670207225654,1.00000000391753,0.602725532835509
8100.00000001194,4.67759072102987,1.00000000346,0.59302236171088
8200.0000000123,4.77513847508057,1.00000000438548,0.590992677730587
8300.00000001266,4.89734712194222,1.00000000438607,0.60717197836741
8400.00000001303,5.01935838242942,1.00000000479519,0.609360631908463
8500.00000001339,5.1374491469437,1.0000000046893,0.615919636425891
8600.00000001376,5.25164363112493,1.00000000456326,0.624347069920853
8700.00000001412,5.35287552298858,1.00000000414004,0.626732751515143
8800.00000001448,5.45362188037919,1.00000000490252,0.650791170992733
8900.00000001485,5.53896185233461,1.00000000485642,0.669138709686254
9000.00000001521,5.61170167588678,1.00000000439254,0.676201037812192
9100.00000001557,5.68522225414202,1.00000000468481,0.677411742034493
9200.00000001594,5.75163827635854,1.00000000516385,0.673581195369373
9300.0000000163,5.80314676705955,1.0000000047519,0.676866267325961
9400.00000001667,5.85196376755802,1.00000000515433,0.693431498174978
9500.00000001703,5.90854494429635,1.00000000524898,0.697291138040851
9600.00000001739,5.9599704045274,1.00000000538379,0.699888128446769
9700.00000001776,6.01354367279168,1.0000000050868,0.715753810335439
9800.00000001812,6.05965240541769,1.00000000535261,0.715723067112899
9900.00000001848,6.11186241322558,1.00000000603819,0.715993897737193
10000.0000000188,6.15774567199244,1.00000000549971,0.711796011857174
10100.0000000192,6.20636254313435,1.00000000546505,0.691609469301351
10200.0000000196,6.24416233895398,1.00000000534995,0.71527224376793
10300.0000000199,6.28422542800879,1.00000000532592,0.711528562453645
10400.0000000203,6.33187171699916,1.00000000524464,0.709230685993672
10500.0000000207,6.37962173035429,1.00000000528328,0.68620623522619
10600.000000021,6.43690268699624,1.00000000528592,0.67762112143265
10700.0000000214,6.49965690418506,1.00000000461751,0.707439692273195
10800.0000000218,6.56799832890458,1.00000000582365,0.696481727954269
10900.0000000221,6.64469747229007,1.00000000536843,0.682035666461789
11000.0000000225,6.7185299244493,1.00000000558484,0.696717870851946
11100.0000000229,6.79732203938791,1.00000000503438,0.672442395048909
11200.0000000232,6.87381525890207,1.00000000515501,0.679449619765286
11300.0000000236,6.95037364475601,1.00000000475867,0.685405349266097
11400.0000000239,7.04197929193463,1.00000000534791,0.717885181173023
11500.0000000243,7.11415366804814,1.00000000550959,0.713337853697735
11600.0000000247,7.1817071090451,1.00000000499084,0.70970972925278
11700.000000025,7.24820297099816,1.00000000555558,0.713297606603137
11800.0000000254,7.32409392877182,1.00000000550629,0.707272591783796
11900.0000000258,7.40114821253405,1.00000000539546,0.694560617302836
12000.0000000261,7.48680340185837,1.00000000575829,0.705306821967012
12100.0000000265,7.56620307022831,1.0000000053889,0.708334574381028
12200.0000000269,7.64012415161653,1.00000000562355,0.70563032128315
12300.0000000272,7.71664029844015,1.00000000650842,0.700426010763582
12400.0000000276,7.79358426963007,1.00000000537362,0.710200253439591
12500.0000000279,7.86954457885061,1.00000000537035,0.708574386249168
12600.0000000283,7.9472276958003,1.00000000611251,0.719941820175308
12700.0000000287,8.03024965461674,1.00000000553536,0.712462182088176
12800.000000029,8.10833209877707,1.00000000578166,0.714199292047696
12900.0000000294,8.18333887464056,1.00000000586751,0.699584506783627
13000.0000000298,8.2624326649691,1.00000000568269,0.709542762119708
13100.0000000301,8.33943036518393,1.00000000571737,0.71622410775125
13200.0000000305,8.41498636030316,1.00000000545386,0.720980532284525
13300.0000000309,8.48845160812419,1.00000000544661,0.718750437883391
13400.0000000312,8.5516910946421,1.00000000555453,0.726505370597271
13500.0000000316,8.62184086929865,1.00000000549371,0.704729066045284
13600.0000000319,8.69970717276793,1.00000000631899,0.715443262847477
13700.0000000323,8.76506854114739,1.00000000667968,0.718950812486286
13800.0000000327,8.82530250577505,1.00000000586585,0.710808201813852
13900.000000033,8.88948425812546,1.00000000631292,0.720442184771779
14000.0000000334,8.94908975474337,1.00000000608374,0.716518220985347
14100.0000000338,9.0047091585134,1.00000000587023,0.716257840325656
14200.0000000341,9.06265050443488,1.00000000579291,0.717166960009214
14300.0000000345,9.11294101571087,1.00000000600071,0.710892363494573
14400.0000000349,9.15214523405136,1.00000000633949,0.705579679597347
14500.0000000352,9.19207664434318,1.00000000597586,0.70515279893806
14600.0000000356,9.2257293207635,1.00000000631939,0.724625428588994
14700.0000000359,9.2541442459733,1.00000000603474,0.708383688560774
14800.0000000363,9.27750725943478,1.00000000633186,0.709137753812213
14900.0000000367,9.28747669514394,1.00000000666036,0.711109740747406
15000.000000037,9.29172821658292,1.00000000645514,0.706178987617389
15100.0000000374,9.29496306784812,1.00000000623255,0.714113835143085
15200.0000000378,9.3056341156176,1.00000000630131,0.734998428970106
15300.0000000381,9.31518651535029,1.00000000612475,0.715862897334601
15400.0000000385,9.33065438050422,1.00000000619061,0.72549769015005
15500.0000000389,9.34970194764729,1.00000000647543,0.724316958187267
15600.0000000392,9.37045224873644,1.00000000667206,0.72502733947515
15700.0000000396,9.40949578751601,1.00000000637427,0.716593760291751
15800.0000000399,9.45051416230543,1.00000000653914,0.71249518895336
15900.0000000403,9.51387447854068,1.00000000663788,0.690983404230934
16000.0000000407,9.59775585087012,1.00000000629891,0.680381043812398
16100.000000041,9.71419094310325,1.00000000555247,0.66859958680162
16200.0000000414,9.87197394795602,1.00000000617892,0.658857262229098
16300.0000000418,10.0827732150108,1.00000000582013,0.653350299910296
16400.0000000418,10.3358977381571,1.00000000612641,0.665401605537257
16500.0000000404,10.6419047362753,1.0000000063312,0.671198662843624
16600.0000000389,10.9528569226741,1.00000000603675,0.67028043834367
16700.0000000375,11.2938006520198,1.00000000647415,0.672580360890313
16800.000000036,11.6254268327138,1.00000000682205,0.666073371082435
16900.0000000346,11.9733816537712,1.00000000713339,0.662706134625859
17000.0000000331,12.3178539278579,1.0000000062402,0.659450909011711
17100.0000000317,12.6775103270209,1.00000000667511,0.66511329833905
17200.0000000302,13.0470830537805,1.0000000066017,0.670726142097695
17300.0000000287,13.4105888002781,1.00000000674074,0.660914441339362
17400.0000000273,13.792545362165,1.00000000678667,0.677004697092847
17500.0000000258,14.1756374155474,1.00000000645708,0.67685301781071
17600.0000000244,14.5776570671836,1.00000000663317,0.686999512168658
17700.0000000229,14.9806415547954,1.00000000677534,0.692766934222664
17800.0000000215,15.3733956747763,1.00000000632343,0.694774966395491
17900.00000002,15.7667210323225,1.00000000707585,0.706131040563127
18000.0000000186,16.1405114451339,1.00000000719193,0.708839679545335
18100.0000000171,16.4957427832751,1.00000000748096,0.719257185837805
18200.0000000156,16.8224202080368,1.00000000649885,0.728868401194533
18300.0000000142,17.1497825511866,1.00000000817988,0.726089727618711
18400.0000000127,17.4625444832962,1.00000000681168,0.719317144666928
18500.0000000113,17.7834878027649,1.00000000778624,0.726653524222652
18600.0000000098,18.0910910704598,1.00000000707258,0.727457716007516
18700.0000000084,18.3978509429096,1.00000000788034,0.726208834837143
18800.0000000069,18.7099109903085,1.00000000673376,0.731019363491067
18900.0000000055,19.0078354935964,1.0000000074574,0.73629559325838
19000.000000004,19.3193460021885,1.00000000721766,0.722282422390565
19100.0000000026,19.6202447351217,1.00000000659468,0.744662202638112
19200.0000000011,19.9251804810173,1.00000000696196,0.735526106144748
19299.9999999996,20.2120740068085,1.00000000795243,0.740256405285393
19399.9999999982,20.4857980934582,1.00000000671751,0.738288328864422
19499.9999999967,20.7732327470293,1.00000000663434,0.73356847004691
19599.9999999953,21.0644565262109,1.00000000698968,0.73344295765036
19699.9999999938,21.3742826817702,1.00000000760227,0.738664196210051
19799.9999999924,21.6772305701333,1.00000000741711,0.735206311833411
19899.9999999909,21.9694048339365,1.00000000686271,0.727489656422061
19999.9999999895,22.2480269269151,1.0000000071224,0.724762691639563
20099.999999988,22.5228465396432,1.00000000766734,0.741566364053205
20199.9999999865,22.8070340840375,1.00000000692495,0.73648652753294
20299.9999999851,23.1082624936577,1.00000000692976,0.72669190179704
20399.9999999836,23.4378791781595,1.00000000647919,0.736206860004463
20499.9999999822,23.7739675829266,1.00000000764084,0.749392813263408
20599.9999999807,24.0974802890954,1.0000000079091,0.732931114283874
20699.9999999793,24.4060720770447,1.00000000814562,0.743176690962562
20799.9999999778,24.7090721201404,1.00000000732848,0.740732309454873
20899.9999999764,25.010302640136,1.00000000789781,0.74424629711636
20999.9999999749,25.3238846157325,1.00000000736695,0.718028724298041
21099.9999999734,25.6518302595276,1.00000000835765,0.735797563508899
21199.999999972,25.9692957834703,1.00000000785871,0.752405150683961
21299.9999999705,26.2752903890444,1.0000000068005,0.741487443444166
21399.9999999691,26.5887905488997,1.00000000697484,0.750969801275745
21499.9999999676,26.9000541319759,1.00000000855062,0.752885826122116
21599.9999999662,27.2183217307938,1.00000000722129,0.74270293259978
21699.9999999647,27.5511215469371,1.00000000767515,0.743479425384607
21799.9999999633,27.8958855464592,1.00000000823038,0.735066622159891
21899.9999999618,28.2496347414398,1.00000000766066,0.748935249570184
21999.9999999603,28.6007718069655,1.00000000837104,0.746709147656083
22099.9999999589,28.9575885965961,1.00000000789686,0.744418633591179
22199.9999999574,29.3198779087025,1.00000000818549,0.742288848142209
22299.999999956,29.6821804319312,1.00000000801632,0.748660994450583
22399.9999999545,30.0448727222273,1.00000000815244,0.744422510761675
22499.9999999531,30.4132249297302,1.00000000799227,0.732873543581403
22599.9999999516,30.7955723900449,1.00000000769073,0.733423336472854
22699.9999999502,31.1668847282047,1.00000000790416,0.744231509161055
22799.9999999487,31.5398096297553,1.00000000812726,0.748223811947816
22899.9999999473,31.9302549814828,1.00000000767049,0.748989126142765
22999.9999999458,32.3369598251269,1.00000000815307,0.745470682116194
23099.9999999443,32.7436595665528,1.00000000914555,0.746970728909901
23199.9999999429,33.1392766003625,1.00000000856804,0.74346717693518
23299.9999999414,33.5236689632322,1.00000000795179,0.751116448839171
23399.99999994,33.9066014741978,1.00000000799541,0.741543052584242
23499.9999999385,34.3130323515828,1.00000000775105,0.727502340981554
23599.9999999371,34.7375142314561,1.00000000813254,0.737073985879844
23699.9999999356,35.1792547941681,1.0000000076795,0.751428903696928
23799.9999999342,35.6361154754784,1.00000000774498,0.746143978274077
23899.9999999327,36.098352620824,1.00000000825753,0.750119227379538
23999.9999999312,36.5600537037258,1.00000000917306,0.746983472449957
24099.9999999298,37.0168851192037,1.00000000923505,0.761465915054829
24199.9999999283,37.4691089706255,1.00000000875021,0.742919036420504
24299.9999999269,37.9320035808378,1.00000000824448,0.740348275982008
24399.9999999254,38.4063924842927,1.00000000789588,0.751853560766656
24499.999999924,38.8710323480795,1.00000000798494,0.748010955996823
24599.9999999225,39.3369175148865,1.00000000853588,0.748953412654805
24699.9999999211,39.8038653635956,1.00000000874759,0.746311728269852
24799.9999999196,40.2681510239425,1.00000000947559,0.743622279995353
24899.9999999181,40.7484779954106,1.00000000825007,0.747392353235204
24999.9999999167,41.2548220868611,1.00000000837761,0.749765028544272
25099.9999999152,41.7732979419445,1.00000000846637,0.749781956639076
25199.9999999138,42.2932519713841,1.00000000865382,0.745331415540999
25299.9999999123,42.8138820078904,1.00000000872811,0.746315140360105
25399.9999999109,43.338459894727,1.00000000900942,0.751310644461315
25499.9999999094,43.8660101603772,1.00000000930668,0.742105461433036
25599.999999908,44.3872656814604,1.00000000915645,0.745948214447307
25699.9999999065,44.9074373912545,1.00000000869327,0.742194981838304
25799.9999999051,45.4290338521228,1.00000000920494,0.736053085449005
25899.9999999036,45.9576750184727,1.00000000899827,0.739028497224853
25999.9999999021,46.5048056279642,1.00000000863667,0.73276665368414
26099.9999999007,47.0738619056141,1.00000000895079,0.752147131680856
26199.9999998992,47.6340608612582,1.000000008397,0.746940567939254
26299.9999998978,48.1821188684201,1.00000000914799,0.753474693981176
26399.9999998963,48.7350474936823,1.00000000865835,0.745668102542729
26499.9999998949,49.2902596972214,1.00000000906093,0.747759055781109
26599.9999998934,49.8493795616891,1.0000000086007,0.741645067109214
26699.999999892,50.4124466540633,1.00000000955854,0.742742421386337
26799.9999998905,50.9832604162574,1.00000000938697,0.747965059700774
26899.999999889,51.5453736118397,1.00000000981547,0.752988568659529
26999.9999998876,52.1022728951483,1.00000000906786,0.746186686422724
27099.9999998861,52.6629757173107,1.00000000950476,0.761141581622164
27199.9999998847,53.225572541228,1.0000000088997,0.752803283371229
27299.9999998832,53.8024751407491,1.00000000947804,0.731881997747166
27399.9999998818,54.4086936635845,1.0000000102419,0.751524423427292
27499.9999998803,55.0267170675431,1.00000000839509,0.755239980433807
27599.9999998789,55.6509794187744,1.00000000968691,0.755397769305883
27699.9999998774,56.2724397762787,1.00000000940258,0.755381163050065
27799.9999998759,56.8980424152241,1.00000000978548,0.763679054417691
27899.9999998745,57.5219606616276,1.00000000936334,0.76288253638915
27999.999999873,58.1435256060514,1.0000000096486,0.754631177150378
28099.9999998716,58.768687480807,1.00000000940319,0.749833466507419
28199.9999998701,59.4023691883731,1.00000000987296,0.754604883432037
28299.9999998687,60.0379515655694,1.00000000935052,0.749251803625856
28399.9999998672,60.6860863062295,1.00000000978726,0.753933187437891
28499.9999998658,61.3379793467083,1.00000000909735,0.753244644582051
28599.9999998643,61.9843169421502,1.00000000952941,0.757535345119621
28699.9999998629,62.6299430890224,1.00000000960009,0.759792152430221
28799.9999998614,63.2816004759043,1.00000000973052,0.759569807869551
28899.9999998599,63.937094732155,1.00000001008105,0.750207997503996
28999.9999998585,64.5944712790301,1.00000000931058,0.758514666359889
29099.999999857,65.2625858348222,1.00000001030049,0.748565688588878
