Time,AGPnorm,Energy,Entropy
0,0,1,-7.49144169535014e-17
99.9999999999986,0.00127160391303014,0.999999999998995,0.00415196836024198
199.999999999993,0.00879898509948158,1.00000000000011,0.0121331699420082
300,0.0174403198250593,1.00000000000169,0.0226324303329397
400.000000000022,0.0267058806690536,1.00000000000104,0.0358216005395557
500.000000000045,0.0377003793130614,0.999999999998859,0.0516426581016549
600.000000000068,0.0523957659912422,0.999999999999297,0.0699000259693898
700.000000000091,0.0660810658346035,1.00000000000115,0.0906534075447089
800.000000000113,0.0810388494777858,1.00000000000206,0.114542526729087
900.000000000136,0.0956285043287508,1.00000000000019,0.142602369564918
1000.00000000016,0.112201555455697,1.00000000000422,0.176355427650191
1100.0000000001,0.127371054709829,1.00000000003895,0.218516939428883
1200,0.148713892378382,1.00000000015599,0.267910579446135
1299.99999999991,0.178830933463292,1.00000000035861,0.319048502176989
1399.99999999982,0.242293149058433,1.00000000065247,0.365632992262198
1499.99999999973,0.419225633243001,1.00000000091817,0.40661160645267
1599.99999999964,0.798680138417821,1.00000000115361,0.441539079872356
1699.99999999955,1.44649034203871,1.00000000140034,0.4718019665743
1799.99999999946,2.44737127198414,1.00000000159289,0.496527085074319
1899.99999999937,3.86675206922247,1.00000000166665,0.516932816997702
1999.99999999928,5.71251140101909,1.00000000185359,0.533474843547588
2099.99999999919,7.96982581342552,1.00000000174836,0.547950191093065
2199.99999999909,10.642035822483,1.00000000180388,0.558481903312453
2299.999999999,13.6808537800523,1.00000000175944,0.566626544711944
2399.99999999891,16.9815836412057,1.00000000184421,0.572345579348128
2499.99999999882,20.4623302106603,1.00000000184519,0.577983697350448
2599.99999999873,24.0883808560417,1.00000000183787,0.580301869994816
2699.99999999864,27.8013230884577,1.00000000176652,0.581707864987614
2799.99999999855,31.4984722376983,1.00000000169692,0.582101982051085
2899.99999999846,35.0962701578076,1.00000000165276,0.582527426232791
2999.99999999837,38.5654639420367,1.000000001583,0.582136147507757
3099.99999999828,41.88617698076,1.00000000155257,0.580197509811726
3199.99999999819,45.0074360456245,1.00000000155124,0.579241990687607
3299.99999999809,47.8753337014762,1.00000000146316,0.577833072714428
3399.999999998,50.4751666589812,1.00000000137738,0.574491304183023
3499.99999999791,52.8155932428732,1.00000000138257,0.571900671371653
3599.99999999782,54.8934281226289,1.00000000129554,0.571401228358387
3699.99999999773,56.6898791821695,1.00000000125445,0.568820301911845
3799.99999999764,58.2039800641631,1.00000000120557,0.565760212884729
3899.99999999755,59.442209395634,1.00000000118627,0.569033587401617
3999.99999999746,60.4310823989758,1.00000000107317,0.56027981566192
4099.99999999738,61.1788397010717,1.00000000109481,0.565897246461485
4199.99999999775,61.7024455615512,1.0000000010402,0.559426175906317
4299.99999999811,61.9975411295679,1.00000000099747,0.558544714200256
4399.99999999848,62.1199982757721,1.00000000110331,0.566841307854372
4499.99999999884,62.0683549399256,1.00000000088238,0.540844375666392
4599.9999999992,61.8701632378785,1.00000000109379,0.572617460086207
4699.99999999957,61.5788104205848,1.00000000096337,0.545827877502335
4799.99999999993,61.1374230505333,1.00000000085183,0.534548123601382
4900.00000000029,60.6356368126417,1.00000000127884,0.580548402685372
5000.00000000066,60.0907935728464,1.00000000085865,0.527467877422546
5100.00000000102,59.4369593055668,1.00000000089043,0.522326281701621
5200.00000000139,58.7655855749505,1.00000000134529,0.58209605871521
5300.00000000175,58.0956146894526,1.00000000093762,0.524809029931452
5400.00000000211,57.3483614738382,1.00000000078248,0.491449796644311
5500.00000000248,56.5785180229611,1.00000000138956,0.567855481728224
5600.00000000284,55.8499092366463,1.00000000133216,0.55590573794849
5700.00000000321,55.105329931546,1.00000000077459,0.478942097289724
5800.00000000357,54.3123315602596,1.00000000088992,0.490822671731177
5900.00000000393,53.5325410057359,1.00000000147047,0.565235514574438
6000.0000000043,52.7965431062522,1.00000000126496,0.540363723134731
6100.00000000466,52.0614597127124,1.00000000078199,0.470329308479729
6200.00000000502,51.3025245153127,1.00000000083886,0.470553985268023
6300.00000000539,50.5472303416682,1.00000000121347,0.530553035051276
6400.00000000575,49.8262220179324,1.00000000136926,0.552384678131719
6500.00000000612,49.1302899706928,1.00000000105459,0.499260054422977
6600.00000000648,48.4365393118335,1.000000000812,0.465561530974298
6700.00000000684,47.7424516820768,1.00000000091752,0.480808687153582
6800.00000000721,47.0589552483326,1.00000000116321,0.514046298256407
6900.00000000757,46.397848010486,1.00000000131899,0.538516722278654
7000.00000000793,45.7581593893826,1.00000000116568,0.517251860707599
7100.0000000083,45.1325053464342,1.00000000087927,0.477034492779613
7200.00000000866,44.5202336678999,1.0000000008687,0.480414927953244
7300.00000000903,43.9212183509252,1.00000000097047,0.50165263753372
7400.00000000939,43.3371184772026,1.00000000105165,0.501603674469487
7500.00000000975,42.7685959085818,1.00000000118348,0.523732343743095
7600.00000001012,42.2136337698944,1.00000000122558,0.528144468933743
7700.00000001048,41.6748377260001,1.00000000092824,0.496081385749206
7800.00000001084,41.1566192955902,1.00000000079223,0.47752863732088
7900.00000001121,40.656752509929,1.00000000104631,0.499879992546763
8000.00000001157,40.1699015456772,1.00000000114346,0.518653269365843
8100.00000001194,39.7001422359012,1.0000000008913,0.488601626080066
8200.0000000123,39.2472447760421,1.00000000102905,0.505014793304885
8300.00000001266,38.8025968567651,1.00000000124421,0.527906432248914
8400.00000001303,38.3636697314121,1.00000000125208,0.519024987469405
8500.00000001339,37.9423745764262,1.00000000095176,0.492209015382659
8600.00000001376,37.5451458934501,1.00000000089793,0.484563128891505
8700.00000001412,37.1641158580454,1.00000000113012,0.503297789493369
8800.00000001448,36.7880995589211,1.00000000125603,0.513427389027251
8900.00000001485,36.423326922534,1.00000000097654,0.509496840521202
9000.00000001521,36.0785248260031,1.00000000089542,0.487174936831804
9100.00000001557,35.7458135259843,1.00000000109394,0.511329914780554
9200.00000001594,35.4163912258804,1.00000000130398,0.531504023535809
9300.0000000163,35.0870466106511,1.00000000123264,0.526491362664177
9400.00000001667,34.7680055967679,1.000000000994,0.507275035289556
9500.00000001703,34.4701689226268,1.00000000089106,0.49641646632106
9600.00000001739,34.1911289515727,1.00000000099727,0.50300189959822
9700.00000001776,33.9236982849399,1.00000000107074,0.509425095322433
9800.00000001812,33.660269355959,1.00000000121632,0.510999858926878
9900.00000001848,33.4014939822789,1.00000000109337,0.516471641180678
10000.0000000188,33.1520671724132,1.00000000100139,0.523356638867111
10100.0000000192,32.9144437178499,1.00000000103245,0.513589107324569
10200.0000000196,32.6839829113702,1.00000000104509,0.520211471807964
10300.0000000199,32.4573549189338,1.00000000106355,0.531168946179317
10400.0000000203,32.2328965175412,1.00000000121486,0.535048964268958
10500.0000000207,32.0107942780769,1.00000000116594,0.533107457570183
10600.000000021,31.800968877934,1.00000000090436,0.514801356023692
10700.0000000214,31.6105889070004,1.00000000092736,0.504090497707871
10800.0000000218,31.4326495978562,1.00000000107582,0.518721344616488
10900.0000000221,31.2594226880705,1.00000000111184,0.522491454056631
11000.0000000225,31.0966664947077,1.00000000100381,0.510987030823052
11100.0000000229,30.9455524980012,1.00000000103253,0.515195326914157
11200.0000000232,30.7995420679753,1.00000000107335,0.516195972587565
11300.0000000236,30.6496795388047,1.00000000118374,0.543604130860427
11400.0000000239,30.4933249886052,1.00000000118782,0.554276319200997
11500.0000000243,30.3376895537521,1.0000000010798,0.5486565530663
11600.0000000247,30.1871389955275,1.0000000009754,0.535093795058185
11700.000000025,30.0440928753529,1.0000000010363,0.53774073222428
11800.0000000254,29.904648997393,1.00000000114757,0.538937600009602
11900.0000000258,29.765914313701,1.00000000119427,0.54036790264308
12000.0000000261,29.6282851641347,1.00000000115939,0.538667090010004
12100.0000000265,29.5004350906243,1.00000000103947,0.532465501658865
12200.0000000269,29.3872483382305,1.00000000093772,0.527978877361654
12300.0000000272,29.2886964999942,1.00000000100746,0.522322651930937
12400.0000000276,29.1968052532787,1.00000000115237,0.528311664211786
12500.0000000279,29.1029458032842,1.00000000115942,0.536122418599214
12600.0000000283,29.0117682801631,1.00000000098442,0.530477956898932
12700.0000000287,28.9325178490431,1.00000000096634,0.517611594713182
12800.000000029,28.8637394734705,1.00000000101629,0.536158035431344
12900.0000000294,28.7976246968463,1.00000000108376,0.552697792837561
13000.0000000298,28.7283480961154,1.00000000108413,0.543591419423736
13100.0000000301,28.6515093753908,1.00000000114595,0.557034387061729
13200.0000000305,28.5649440637984,1.00000000109132,0.562008900492675
13300.0000000309,28.4729881782653,1.00000000113119,0.572431830808911
13400.0000000312,28.3757930889999,1.00000000108307,0.573750678150404
13500.0000000316,28.2780671197262,1.0000000010105,0.5742452231292
13600.0000000319,28.183906501665,1.00000000098629,0.565414974633929
13700.0000000323,28.0960859464292,1.00000000102162,0.558029394324367
13800.0000000327,28.0137792246626,1.00000000110142,0.551265266291785
13900.000000033,27.9347613697125,1.00000000116651,0.55451222344455
14000.0000000334,27.8576907244112,1.00000000115687,0.551237059207537
14100.0000000338,27.7877734483111,1.00000000102677,0.548987118446315
14200.0000000341,27.7315356099767,1.00000000098965,0.549924132364035
14300.0000000345,27.6874062740436,1.00000000104567,0.541942024230121
14400.0000000349,27.6471148289344,1.00000000116424,0.549123614322423
14500.0000000352,27.6101780517804,1.00000000110019,0.54370793316235
14600.0000000356,27.5791661595659,1.00000000111094,0.538068066971607
14700.0000000359,27.5527171532888,1.00000000105028,0.534191533628897
14800.0000000363,27.5290964694969,1.00000000102345,0.539246650542472
14900.0000000367,27.5090034999302,1.00000000106389,0.551766077801081
15000.000000037,27.4889141392964,1.00000000107227,0.563056646700175
15100.0000000374,27.466173101691,1.00000000112976,0.571217948026114
15200.0000000378,27.4402705277164,1.00000000114643,0.580021182722596
15300.0000000381,27.4120026522474,1.00000000106995,0.58266338554188
15400.0000000385,27.3841628971014,1.00000000105909,0.583460016995205
15500.0000000389,27.357241062608,1.00000000104196,0.575837160920848
15600.0000000392,27.3265909685744,1.00000000118099,0.579791275286771
15700.0000000396,27.2893344271557,1.00000000119614,0.580012392248019
15800.0000000399,27.2431706554939,1.00000000119247,0.583166798352878
15900.0000000403,27.1864293733153,1.00000000118072,0.582130717534597
16000.0000000407,27.1196808016118,1.00000000121031,0.589473208317487
16100.000000041,27.0477746030209,1.00000000108589,0.597014298837432
16200.0000000414,26.9774734946885,1.00000000104403,0.595086048305907
16300.0000000418,26.9117440838712,1.00000000103357,0.586721451361881
16400.0000000418,26.8521994445571,1.00000000105658,0.577880254238787
16500.0000000404,26.7985443539323,1.00000000115364,0.569843561420558
16600.0000000389,26.7490375399375,1.00000000112901,0.568099188477048
16700.0000000375,26.7023660886515,1.0000000011445,0.570325455026905
16800.000000036,26.6597545679024,1.00000000114513,0.569029187636183
16900.0000000346,26.6237322035288,1.00000000106153,0.565772528175717
17000.0000000331,26.596842478687,1.00000000104088,0.567481127507271
17100.0000000317,26.5803131124302,1.00000000101751,0.56574032494912
17200.0000000302,26.5720513678719,1.00000000107305,0.565252580866961
17300.0000000287,26.5679893478153,1.00000000114345,0.56020263235834
17400.0000000273,26.5661656944599,1.00000000107808,0.558192110135491
17500.0000000258,26.5678474424517,1.00000000108301,0.554932299390287
17600.0000000244,26.5737562877841,1.00000000103862,0.557006743227969
17700.0000000229,26.584596544642,1.00000000106145,0.564950934298565
17800.0000000215,26.5985364421723,1.00000000110707,0.56426583249843
17900.00000002,26.6119144427426,1.00000000107315,0.564105512732256
18000.0000000186,26.6227580924925,1.00000000111242,0.561780907669669
18100.0000000171,26.6304593651872,1.00000000114395,0.560467532275399
18200.0000000156,26.6341021216344,1.00000000114206,0.56606601602677
18300.0000000142,26.6353563907588,1.000000001179,0.576998725166156
18400.0000000127,26.6354682059319,1.00000000108338,0.58470037099072
18500.0000000113,26.6366009833456,1.00000000111136,0.588194547827306
18600.0000000098,26.636695614725,1.00000000113353,0.592498854401804
18700.0000000084,26.6320563579468,1.00000000120634,0.588832636272312
18800.0000000069,26.6221060851358,1.00000000113511,0.592622382017818
18900.0000000055,26.6078088596415,1.00000000113964,0.596775661739475
19000.000000004,26.5923943423162,1.00000000110459,0.602467047276882
19100.0000000026,26.5765603461053,1.00000000112448,0.606205704305912
19200.0000000011,26.5591709523036,1.00000000119786,0.61145205954993
19299.9999999996,26.5373575377148,1.00000000119149,0.611894767656804
19399.9999999982,26.5108987179048,1.00000000116615,0.61023534664323
19499.9999999967,26.4819897361907,1.00000000113379,0.605679442769873
19599.9999999953,26.4497267395905,1.00000000113836,0.598813091206631
19699.9999999938,26.4121240265898,1.0000000011952,0.598742836005927
19799.9999999924,26.3664555688805,1.00000000124904,0.601253334285908
19899.9999999909,26.3127161885553,1.00000000128205,0.601714712224042
19999.9999999895,26.2531369946439,1.00000000129654,0.601266986984966
20099.999999988,26.1912300756423,1.00000000114191,0.597998005734476
20199.9999999865,26.1301831724768,1.00000000111585,0.597387523390277
20299.9999999851,26.0718543539788,1.00000000109306,0.591819165188989
20399.9999999836,26.018167683967,1.00000000103222,0.591068160744848
20499.9999999822,25.9690152602256,1.00000000112066,0.589564718495253
20599.9999999807,25.924784775107,1.00000000111089,0.581137755562202
20699.9999999793,25.8846578179099,1.00000000122572,0.583798411085796
20799.9999999778,25.8492749114863,1.0000000011881,0.581941522867678
20899.9999999764,25.8172212966727,1.00000000116802,0.571153280554584
20999.9999999749,25.790013360611,1.00000000115649,0.561831599766002
21099.9999999734,25.7688200973417,1.0000000011053,0.563134944151769
21199.999999972,25.7543944431104,1.00000000120904,0.567518654077199
21299.9999999705,25.7483199471791,1.00000000112611,0.570669805527399
21399.9999999691,25.7506159718536,1.00000000112449,0.574787600968125
21499.9999999676,25.7595033267435,1.00000000120002,0.573676318132376
21599.9999999662,25.7720124837371,1.00000000118846,0.5682062386361
21699.9999999647,25.7874482178303,1.00000000116389,0.570458786973454
21799.9999999633,25.8075795586235,1.00000000112729,0.565564881959788
21899.9999999618,25.8310893663226,1.00000000113853,0.560776557865523
21999.9999999603,25.8585870392934,1.00000000118666,0.55904748936568
22099.9999999589,25.88911129077,1.00000000112318,0.563566188103006
22199.9999999574,25.9233597350537,1.0000000010805,0.567573815059246
22299.999999956,25.9577510845534,1.00000000130045,0.573506736442854
22399.9999999545,25.9896181728895,1.00000000115748,0.575814419128303
22499.9999999531,26.0189413653275,1.00000000119929,0.579299141658821
22599.9999999516,26.0453766077504,1.00000000116614,0.574842621232814
22699.9999999502,26.0687335216453,1.0000000012765,0.580479104541663
22799.9999999487,26.0885197989253,1.00000000116188,0.589068781171138
22899.9999999473,26.1068696631049,1.00000000117994,0.599799640797236
22999.9999999458,26.1242015665221,1.00000000111489,0.606065184578885
23099.9999999443,26.1410773729439,1.00000000116645,0.613800020633472
23199.9999999429,26.1555985967671,1.00000000119134,0.615552722572101
23299.9999999414,26.1666854635866,1.00000000123531,0.618239432643811
23399.99999994,26.1733959176167,1.0000000012213,0.616299033566476
23499.9999999385,26.1764542817412,1.00000000120113,0.620047575329993
23599.9999999371,26.1792193372818,1.00000000114115,0.623661841634257
23699.9999999356,26.1818774106644,1.00000000119509,0.621780207954104
23799.9999999342,26.1851391056919,1.00000000116567,0.617977643111221
23899.9999999327,26.1908533385317,1.00000000117239,0.613856556639457
23999.9999999312,26.1950536013882,1.0000000013388,0.613625181630438
24099.9999999298,26.1941264675372,1.00000000124988,0.62244264508117
24199.9999999283,26.1895010815431,1.00000000127363,0.632020212005015
24299.9999999269,26.1821257851476,1.00000000117718,0.632667005167098
24399.9999999254,26.1743768700266,1.00000000119164,0.630414174232732
24499.999999924,26.1658458488067,1.0000000012399,0.633965830082692
24599.9999999225,26.1559923748472,1.00000000119685,0.634707860146552
24699.9999999211,26.1461524281347,1.00000000116405,0.631930444802373
24799.9999999196,26.1365213601481,1.00000000116764,0.624815979342007
24899.9999999181,26.124077892834,1.0000000012595,0.627517666442929
24999.9999999167,26.1087823205796,1.00000000122918,0.629976238957896
25099.9999999152,26.0908168651967,1.00000000123854,0.63635420379846
25199.9999999138,26.0683090143742,1.00000000122538,0.634727018776499
25299.9999999123,26.0433718568219,1.00000000119318,0.636142882371619
25399.9999999109,26.0169567962819,1.0000000012239,0.642336535730158
25499.9999999094,25.9881721426662,1.00000000128282,0.643302855797168
25599.999999908,25.9596390266582,1.00000000111804,0.640943940649494
25699.9999999065,25.9313266373959,1.00000000118162,0.641332437064614
25799.9999999051,25.899811683853,1.00000000126153,0.637930999585802
25899.9999999036,25.8666937159406,1.00000000116248,0.629556755869257
25999.9999999021,25.8315112788161,1.00000000118245,0.63548787194805
26099.9999999007,25.7943704203409,1.00000000124098,0.639347482685925
26199.9999998992,25.7551871939171,1.00000000120064,0.64125367401466
26299.9999998978,25.7136892355898,1.00000000126624,0.643275226006571
26399.9999998963,25.66887012656,1.00000000129776,0.643113204520128
26499.9999998949,25.6197593170096,1.00000000132351,0.64733240845042
26599.9999998934,25.5662778740755,1.00000000129611,0.650900463302697
26699.999999892,25.5104805662911,1.00000000123849,0.650093008921231
26799.9999998905,25.4534315377909,1.00000000125045,0.652486856918092
26899.999999889,25.3970501935691,1.00000000120111,0.654460906732425
26999.9999998876,25.3417143413017,1.00000000119295,0.652974302194719
27099.9999998861,25.2885734438653,1.00000000115843,0.644619484277169
27199.9999998847,25.2377278898094,1.00000000112309,0.633865619759717
27299.9999998832,25.1903571177702,1.00000000122488,0.631816418469317
27399.9999998818,25.1464360819173,1.00000000119292,0.631583272864033
27499.9999998803,25.1066924616191,1.00000000117636,0.630992438915713
27599.9999998789,25.0706834396531,1.00000000132121,0.636401012652476
27699.9999998774,25.0383014736448,1.00000000125128,0.631968220760137
27799.9999998759,25.0097561936824,1.0000000012445,0.626573863510896
27899.9999998745,24.9845220880653,1.00000000124284,0.622534546424617
27999.999999873,24.9632315578187,1.00000000121081,0.610532797558379
28099.9999998716,24.9477021819561,1.00000000121188,0.601727714294812
28199.9999998701,24.9371956478028,1.00000000120516,0.60419083834198
28299.9999998687,24.9329152297639,1.00000000119085,0.601229537153241
28399.9999998672,24.9359223488506,1.0000000012233,0.593560874843531
28499.9999998658,24.9440009683015,1.00000000129309,0.598952295411964
28599.9999998643,24.9572667115843,1.00000000119327,0.592562752313842
28699.9999998629,24.9775701313586,1.00000000124091,0.588258313954537
28799.9999998614,24.9997008713534,1.00000000137724,0.58690033449686
28899.9999998599,25.0234706900428,1.00000000128134,0.581158909965236
28999.9999998585,25.0525147809801,1.00000000122115,0.579337494169179
