Time,AGPnorm,Energy,Entropy
0,0,1,-1.07715216190776e-17
99.9999999999986,1.31116762771392e-05,0.999999999998991,0.000629602988252832
199.999999999993,0.00121237501782702,0.999999999999266,0.00100616567345343
300,0.00307509230080967,0.999999999999886,0.00176795174087188
400.000000000022,0.0042303903286462,0.999999999998671,0.00305863799635987
500.000000000045,0.00505022770675495,0.99999999999987,0.00412407554252743
600.000000000068,0.00729105864808605,0.999999999999255,0.00575114393437191
700.000000000091,0.00909840129036722,0.999999999999002,0.00740334458767043
800.000000000113,0.0116391894385522,1.00000000000004,0.00911706566533495
900.000000000136,0.0145606156321702,0.999999999998698,0.0112550904242258
1000.00000000016,0.0170225127782517,0.999999999999647,0.0132586095726423
1100.0000000001,0.0205867807532663,0.999999999999567,0.0155411761117282
1200,0.0241059672908965,0.999999999998793,0.0179895846644392
1299.99999999991,0.0275821233451602,1.00000000000005,0.0204129208930385
1399.99999999982,0.0317207740033631,0.999999999998846,0.0231580549786991
1499.99999999973,0.0359045311174422,0.999999999999392,0.0258712190424574
1599.99999999964,0.0408055460024859,0.999999999999851,0.0287193497959938
1699.99999999955,0.0456052984782726,0.999999999998642,0.0317971303124941
1799.99999999946,0.0500343483467124,0.999999999999939,0.0348410017469193
1899.99999999937,0.0552377513244812,0.999999999999128,0.0381115243780438
1999.99999999928,0.0608041019543877,0.99999999999915,0.0414640513048311
2099.99999999919,0.0666410883125535,1.00000000000002,0.0448736327404574
2199.99999999909,0.0724665544802811,0.999999999998565,0.0485182697521014
2299.999999999,0.0780047267487329,0.999999999999752,0.0521637649637588
2399.99999999891,0.0842017671773753,0.999999999999499,0.0559736373724059
2499.99999999882,0.0906612695030715,0.999999999998941,0.0599677752285904
2599.99999999873,0.0969497305007213,1.00000000000004,0.0639814843659914
2699.99999999864,0.103507471334704,0.999999999998625,0.0682161612690939
2799.99999999855,0.110176690512418,0.999999999999528,0.072520807332569
2899.99999999846,0.11723113060259,0.99999999999982,0.0769707045789581
2999.99999999837,0.12418179549587,0.999999999998762,0.0816598215419479
3099.99999999828,0.13070384081862,0.999999999999963,0.0863826966020025
3199.99999999819,0.137709569245618,0.999999999998911,0.0913270599241005
3299.99999999809,0.145229250956766,0.999999999999297,0.0964536647258232
3399.999999998,0.152742755383656,0.999999999999991,0.101730908775181
3499.99999999791,0.15994580496604,0.99999999999857,0.107295930550544
3599.99999999782,0.166754696639206,0.999999999999836,0.112961360357859
3699.99999999773,0.174099678093315,0.999999999999401,0.118900158690739
3799.99999999764,0.181956390631344,0.999999999999127,0.125181331650191
3899.99999999755,0.189439533922158,1.00000000000005,0.131674510745183
3999.99999999746,0.196668261292821,0.999999999998549,0.138570839576629
4099.99999999738,0.203804150445686,0.999999999999912,0.145757281158628
4199.99999999775,0.211516362551973,1.00000000000028,0.153387058059786
4299.99999999811,0.219106823086318,0.999999999999899,0.161592937924261
4399.99999999848,0.226385896580949,1.00000000000175,0.170194197005816
4499.99999999884,0.23354877028372,1.00000000000173,0.179411826554495
4599.9999999992,0.240700135231281,1.00000000000504,0.189184439895167
4699.99999999957,0.249481966297028,1.00000000000905,0.199456482232446
4799.99999999993,0.256424926238395,1.00000000001297,0.210285551100701
4900.00000000029,0.264936714056754,1.00000000002049,0.2212674444683
5000.00000000066,0.275346789566142,1.00000000002739,0.232542253434124
5100.00000000102,0.28497668391006,1.00000000003694,0.244052654949332
5200.00000000139,0.303340500106917,1.00000000004813,0.255487187739704
5300.00000000175,0.321445635262119,1.00000000005738,0.266951643307057
5400.00000000211,0.348730012414619,1.00000000007369,0.278039255984402
5500.00000000248,0.392410915658447,1.00000000008833,0.289008833926973
5600.00000000284,0.442523389128866,1.0000000001067,0.299928594972985
5700.00000000321,0.523057334208246,1.00000000012177,0.310476070841788
5800.00000000357,0.625808353003793,1.0000000001354,0.320876983700863
5900.00000000393,0.759723792060187,1.00000000015563,0.330934384430368
6000.0000000043,0.947944169799719,1.00000000016339,0.34076792190967
6100.00000000466,1.17408018100792,1.00000000017821,0.35050667054409
6200.00000000502,1.47041293063727,1.00000000019899,0.359716675191275
6300.00000000539,1.84067116713733,1.00000000020977,0.368741022839452
6400.00000000575,2.28323210033273,1.00000000023132,0.377626064375242
6500.00000000612,2.83580377217661,1.0000000002516,0.386096238529464
6600.00000000648,3.48356134955007,1.00000000027299,0.394390198577778
6700.00000000684,4.2512167305032,1.0000000002819,0.402320666920522
6800.00000000721,5.15937157438094,1.00000000027859,0.409991947111988
6900.00000000757,6.19416761272302,1.00000000030305,0.417610501078913
7000.00000000793,7.39495775008116,1.00000000030763,0.424727504152535
7100.0000000083,8.7581444566158,1.00000000032309,0.431628814170914
7200.00000000866,10.2876148371151,1.00000000032609,0.438391930727165
7300.00000000903,12.0162203631362,1.00000000035574,0.444663684246281
7400.00000000939,13.9261009564237,1.00000000033767,0.451147824681092
7500.00000000975,16.0423626647225,1.00000000035951,0.456920507433526
7600.00000001012,18.3768188383141,1.00000000037256,0.462494222750849
7700.00000001048,20.9120112453013,1.00000000037309,0.468233848355146
7800.00000001084,23.6808449156132,1.00000000039078,0.473333430525311
7900.00000001121,26.6731421774032,1.00000000039029,0.478505593944843
8000.00000001157,29.8888830485107,1.00000000040092,0.483254669817693
8100.00000001194,33.3522889156169,1.00000000038926,0.487818600508268
8200.0000000123,37.0351178614932,1.00000000041008,0.492341954085194
8300.00000001266,40.9574877196893,1.00000000040675,0.496450576346971
8400.00000001303,45.1232028076484,1.00000000043816,0.500347889483025
8500.00000001339,49.5078215261452,1.0000000004144,0.504375857628102
8600.00000001376,54.1389627480384,1.00000000041261,0.507997670306938
8700.00000001412,58.9919693550702,1.00000000041915,0.511472862209837
8800.00000001448,64.0648508090017,1.00000000042638,0.514702708371667
8900.00000001485,69.3750229896079,1.00000000042047,0.517717245513352
9000.00000001521,74.8838827791884,1.00000000042073,0.520912469342514
9100.00000001557,80.6108964964661,1.00000000041852,0.523724956977225
9200.00000001594,86.546214474599,1.00000000044378,0.52625572823831
9300.0000000163,92.6645078032135,1.00000000043751,0.52879279608165
9400.00000001667,98.991709610781,1.00000000043187,0.531005874965234
9500.00000001703,105.486854002382,1.00000000044262,0.533429712914549
9600.00000001739,112.153845038565,1.00000000043697,0.535515293754177
9700.00000001776,119.000443386629,1.0000000004335,0.537499000022277
9800.00000001812,125.98483140443,1.00000000044079,0.539420369108118
9900.00000001848,133.131940159107,1.00000000043178,0.54118729004069
10000.0000000188,140.410581027767,1.00000000043624,0.542889866673506
10100.0000000192,147.807242824537,1.00000000043698,0.544381594826874
10200.0000000196,155.341299877408,1.00000000044481,0.545763547143671
10300.0000000199,162.967298758179,1.00000000041973,0.547292500175607
10400.0000000203,170.699525275377,1.0000000004265,0.548519161886146
10500.0000000207,178.524913800189,1.00000000042709,0.549792081880173
10600.000000021,186.413298691124,1.00000000042276,0.550736132917571
10700.0000000214,194.390196046167,1.00000000043836,0.551696056940259
10800.0000000218,202.4147764412,1.00000000041823,0.552871869889503
10900.0000000221,210.488162344505,1.00000000042285,0.553374827654023
11000.0000000225,218.613692651867,1.00000000041333,0.554509938832048
11100.0000000229,226.752540369869,1.00000000041012,0.554979971072844
11200.0000000232,234.928293205269,1.00000000041791,0.555371668525534
11300.0000000236,243.11082160044,1.00000000040962,0.556567830432346
11400.0000000239,251.290367205802,1.00000000041215,0.556666901937299
11500.0000000243,259.479625694551,1.0000000003913,0.557372286894544
11600.0000000247,267.640048682248,1.00000000040847,0.557891486793536
11700.000000025,275.788164767044,1.00000000039969,0.557838205059635
11800.0000000254,283.906151859943,1.0000000003997,0.558694341544196
11900.0000000258,291.975305264517,1.00000000040079,0.558588385374255
12000.0000000261,300.014780595409,1.00000000039404,0.558406147984055
12100.0000000265,307.989743906449,1.00000000038406,0.55943648566513
12200.0000000269,315.910612619207,1.00000000038504,0.559056890074287
12300.0000000272,323.769095528548,1.00000000038065,0.559206402357059
12400.0000000276,331.542126949706,1.00000000037302,0.559632404709663
12500.0000000279,339.251790527359,1.00000000037891,0.559111776247281
12600.0000000283,346.868243538285,1.00000000037299,0.559699884606245
12700.0000000287,354.395052458115,1.00000000037544,0.559318191399028
12800.000000029,361.83450160806,1.00000000037353,0.558830643974087
12900.0000000294,369.158865789003,1.00000000037625,0.559438701175939
13000.0000000298,376.391485009593,1.00000000035343,0.559252417458965
13100.0000000301,383.509036964271,1.00000000036328,0.558901304875281
13200.0000000305,390.508941488979,1.00000000035932,0.559289393514417
13300.0000000309,397.401444784816,1.00000000035695,0.558415965121121
13400.0000000312,404.159214115899,1.0000000003572,0.558562778736547
13500.0000000316,410.801146184316,1.00000000035204,0.558668149601056
13600.0000000319,417.315677316032,1.0000000003424,0.557765983630525
13700.0000000323,423.6892759486,1.00000000034344,0.5578974307153
13800.0000000327,429.941644915223,1.00000000033582,0.558017367072232
13900.000000033,436.049259896763,1.000000000332,0.557326593397225
14000.0000000334,442.021173957996,1.00000000034354,0.556978809449506
14100.0000000338,447.856395590614,1.00000000032439,0.557206686710928
14200.0000000341,453.541229528001,1.00000000032561,0.556597848590632
14300.0000000345,459.091962777938,1.00000000032466,0.555915144019253
14400.0000000349,464.491184301253,1.00000000032347,0.556137375570173
14500.0000000352,469.746785988998,1.00000000031887,0.555926153538587
14600.0000000356,474.859677788799,1.0000000003201,0.555005872200484
14700.0000000359,479.814932011129,1.00000000031628,0.555090973145014
14800.0000000363,484.630939506423,1.00000000030259,0.554804495540661
14900.0000000367,489.295411449713,1.00000000031017,0.554168815999506
15000.000000037,493.808749840066,1.00000000029496,0.554145026174215
15100.0000000374,498.177554843298,1.00000000030542,0.553898453466903
15200.0000000378,502.390722826853,1.00000000029373,0.55390002137683
15300.0000000381,506.460800524875,1.00000000028366,0.552983405823652
15400.0000000385,510.380977425952,1.0000000002976,0.552408473192819
15500.0000000389,514.149430984777,1.00000000029655,0.552459697796628
15600.0000000392,517.776561080498,1.00000000028842,0.552255229381088
15700.0000000396,521.250727019754,1.0000000002788,0.552132016289183
15800.0000000399,524.583090197698,1.00000000028826,0.552466089933242
15900.0000000403,527.773025133798,1.00000000028343,0.550768848568687
16000.0000000407,530.81421346753,1.00000000028319,0.550980196692982
16100.000000041,533.719665622135,1.00000000026649,0.549233707778381
16200.0000000414,536.478438758007,1.00000000027589,0.551173413797451
16300.0000000418,539.101734381005,1.00000000026867,0.550700075473884
16400.0000000418,541.58932857088,1.00000000027492,0.55148878427704
16500.0000000404,543.936835711088,1.00000000026342,0.549620000556045
16600.0000000389,546.154374773569,1.00000000026334,0.548201785933778
16700.0000000375,548.23398005688,1.00000000025677,0.546751071569975
16800.000000036,550.1800623568,1.00000000025736,0.547817821710862
16900.0000000346,551.997861518316,1.00000000026211,0.549808868239683
17000.0000000331,553.685170036468,1.0000000002631,0.551793468948485
17100.0000000317,555.255392833695,1.00000000025216,0.550327976040959
17200.0000000302,556.701469237888,1.00000000025207,0.546958135729473
17300.0000000287,558.021681862104,1.00000000024573,0.543195391831591
17400.0000000273,559.217744095666,1.0000000002402,0.543014965866519
17500.0000000258,560.286151699431,1.00000000023718,0.546287458843256
17600.0000000244,561.243459403569,1.00000000024551,0.551457535805388
17700.0000000229,562.094518806873,1.00000000025123,0.553536354219253
17800.0000000215,562.843208607041,1.00000000025627,0.551473183101568
17900.00000002,563.492016755719,1.00000000024222,0.544420074711478
18000.0000000186,564.024743756323,1.00000000022419,0.538032632782524
18100.0000000171,564.443499578201,1.00000000021206,0.536581548261633
18200.0000000156,564.747785291598,1.00000000021558,0.542180625103085
18300.0000000142,564.951615215611,1.00000000024405,0.551438717046702
18400.0000000127,565.07649235151,1.00000000025633,0.557109926398085
18500.0000000113,565.127107013184,1.00000000026067,0.555830656741398
18600.0000000098,565.104257617497,1.00000000024426,0.54652180422896
18700.0000000084,564.992643629729,1.00000000022024,0.534893959061461
18800.0000000069,564.775981194631,1.00000000019739,0.527685183272246
18900.0000000055,564.455745483188,1.00000000019576,0.530671943434603
19000.000000004,564.041051095991,1.00000000021383,0.543096601458928
19100.0000000026,563.559300436212,1.00000000025171,0.555819660981869
19200.0000000011,563.031304464914,1.00000000027283,0.56176563593573
19299.9999999996,562.461941630438,1.00000000026606,0.556993600459553
19399.9999999982,561.845752847101,1.00000000024075,0.543208275733812
19499.9999999967,561.157697961538,1.00000000020235,0.525690761744818
19599.9999999953,560.380306412588,1.00000000017992,0.51487696282129
19699.9999999938,559.509882275561,1.00000000017259,0.518146810426841
19799.9999999924,558.559484815257,1.00000000021414,0.535414680438211
19899.9999999909,557.562786630533,1.00000000025826,0.55455576980019
19999.9999999895,556.543060897893,1.00000000028823,0.564931128347406
20099.999999988,555.513072115869,1.0000000002847,0.5629206450847
20199.9999999865,554.467348756336,1.00000000026369,0.548840439487986
20299.9999999851,553.380389318194,1.00000000022024,0.526457978975804
20399.9999999836,552.23010433089,1.00000000017221,0.50473098972899
20499.9999999822,550.996883509968,1.00000000015158,0.496585426446224
20599.9999999807,549.687417449406,1.00000000017077,0.510302852740653
20699.9999999793,548.327399570666,1.00000000023161,0.536362027936006
20799.9999999778,546.946225189157,1.00000000028135,0.558728424465093
20899.9999999764,545.570621032386,1.00000000030656,0.568547678334736
20999.9999999749,544.208237694006,1.00000000031854,0.565436159816705
21099.9999999734,542.84911867392,1.0000000002914,0.548647169542912
21199.999999972,541.471136012715,1.00000000022965,0.521310858009606
21299.9999999705,540.043372296483,1.00000000016381,0.492996048852016
21399.9999999691,538.550790328306,1.00000000014292,0.478877314079032
21499.9999999676,536.991365838626,1.00000000015074,0.488334387462494
21599.9999999662,535.385512587899,1.000000000203,0.518804342934427
21699.9999999647,533.764493893603,1.00000000027321,0.549259305401862
21799.9999999633,532.153253510769,1.00000000031702,0.568355410848215
21899.9999999618,530.568788282249,1.00000000033997,0.572355046235038
21999.9999999603,529.010679580378,1.00000000032654,0.563573149568166
22099.9999999589,527.462910387067,1.00000000028021,0.542291769840996
22199.9999999574,525.903420893544,1.00000000021719,0.509917458372216
22299.999999956,524.304249580086,1.00000000015561,0.478043093708724
22399.9999999545,522.652177454722,1.00000000013059,0.462580335963008
22499.9999999531,520.947236549399,1.00000000014322,0.472275612447393
22599.9999999516,519.205330781242,1.00000000020244,0.505286708079433
22699.9999999502,517.455057685058,1.00000000027113,0.541161427712884
22799.9999999487,515.718280177596,1.00000000032353,0.564468937701663
22899.9999999473,514.011035740111,1.00000000034927,0.573363871591406
22999.9999999458,512.338223002347,1.0000000003523,0.569478825877817
23099.9999999443,510.690359654056,1.00000000032347,0.554984388793516
23199.9999999429,509.053099062494,1.0000000002685,0.52879768591197
23299.9999999414,507.403279753785,1.00000000019879,0.493267882209245
23399.99999994,505.722357710952,1.00000000015135,0.462186392797991
23499.9999999385,504.001398023669,1.00000000012691,0.449559008580224
23599.9999999371,502.241009330379,1.00000000014074,0.461892331085425
23699.9999999356,500.458343660546,1.00000000019992,0.494900963221756
23799.9999999342,498.671310240743,1.00000000026796,0.532044223362103
23899.9999999327,496.89851526716,1.00000000031589,0.557921450871268
23999.9999999312,495.153693913275,1.00000000035095,0.56893996787447
24099.9999999298,493.440803409287,1.00000000035498,0.56848408726075
24199.9999999283,491.758273741395,1.00000000034859,0.559150745974315
24299.9999999269,490.096444986992,1.00000000030218,0.540185918026645
24399.9999999254,488.439845662897,1.00000000024733,0.512372575959433
24499.999999924,486.775198195334,1.00000000019457,0.479280601846056
24599.9999999225,485.088024727561,1.00000000014771,0.452209171697471
24699.9999999211,483.375590022689,1.00000000013549,0.443256906877812
24799.9999999196,481.63986722942,1.00000000014806,0.454414216078077
24899.9999999181,479.889642213689,1.00000000019147,0.481854005581044
24999.9999999167,478.139445347913,1.00000000025586,0.516712653599025
25099.9999999152,476.400114507629,1.00000000030097,0.543814380481291
25199.9999999138,474.681819889736,1.00000000034056,0.559699303097454
25299.9999999123,472.990213001099,1.00000000033911,0.56131170375657
25399.9999999109,471.324711093665,1.00000000034277,0.556711838635686
25499.9999999094,469.683143374387,1.00000000031007,0.544719909124012
25599.999999908,468.056739778375,1.00000000028471,0.526370669387128
25699.9999999065,466.436575443785,1.00000000025503,0.504059978609235
25799.9999999051,464.81425146007,1.0000000001952,0.477920200096938
25899.9999999036,463.181598908297,1.00000000016728,0.455667763869506
25999.9999999021,461.537892160602,1.00000000015398,0.444421846533939
26099.9999999007,459.882511708783,1.00000000015519,0.448287224568563
26199.9999998992,458.220872827958,1.00000000018447,0.465252364776624
26299.9999998978,456.559364857232,1.00000000021752,0.490178439515074
26399.9999998963,454.904079013289,1.00000000026568,0.516876421035269
26499.9999998949,453.262148539927,1.00000000030349,0.53783974898921
26599.9999998934,451.637983530194,1.00000000032274,0.54655762977516
26699.999999892,450.032884605504,1.00000000033976,0.548179595326203
26799.9999998905,448.448059332863,1.0000000003306,0.542346380078642
26899.999999889,446.880246549788,1.00000000030502,0.532355506628583
26999.9999998876,445.326120187056,1.00000000029466,0.521613214824661
27099.9999998861,443.781430294073,1.00000000025096,0.506682078048115
27199.9999998847,442.240764822144,1.000000000233,0.490972943843872
27299.9999998832,440.701977929228,1.00000000020109,0.474941479678795
27399.9999998818,439.161782690196,1.00000000017793,0.460215106978959
27499.9999998803,437.621034828433,1.00000000017295,0.453190029202918
27599.9999998789,436.080091555635,1.00000000017617,0.453739895029566
27699.9999998774,434.540693081757,1.00000000018594,0.464333503216295
27799.9999998759,433.006145130696,1.00000000021125,0.480367125618458
27899.9999998745,431.478393184296,1.00000000024851,0.499749887842604
27999.999999873,429.960521784148,1.00000000027287,0.516025306183818
28099.9999998716,428.454605779343,1.0000000003024,0.527248423770912
28199.9999998701,426.961606702894,1.00000000031066,0.531453163637367
28299.9999998687,425.482142788936,1.00000000030941,0.529513119089963
28399.9999998672,424.015828211266,1.00000000031312,0.525692187336098
28499.9999998658,422.561110135166,1.00000000027384,0.518786041469323
28599.9999998643,421.116950660202,1.0000000002748,0.513186199832272
28699.9999998629,419.681356038425,1.0000000002472,0.506421718362128
28799.9999998614,418.2532773055,1.00000000024005,0.500054868209038
