Time,AGPnorm,Energy,Entropy
0,0,1,-8.18875900037685e-18
99.9999999999986,1.32600751085399e-05,1.00000000000054,0.00061447822338567
199.999999999993,0.00112494862054469,1.00000000000178,0.000954286073093005
300,0.00281026025298123,0.999999999999377,0.00170074765977424
400.000000000022,0.0039114369088496,1.00000000000183,0.00292256810313063
500.000000000045,0.00479821941772069,1.00000000000042,0.00387191367061842
600.000000000068,0.00685937086120625,1.00000000000012,0.00548728670793778
700.000000000091,0.00841419347082205,1.00000000000198,0.00699772383831573
800.000000000113,0.0109391580258073,0.999999999999499,0.00862553860306083
900.000000000136,0.0137341924031921,1.00000000000147,0.0106751045931184
1000.00000000016,0.0159055040453772,1.00000000000083,0.012477516454056
1100.0000000001,0.0190633019243883,0.999999999999809,0.0147386988156326
1200,0.0223561928661633,1.00000000000205,0.0170004140165427
1299.99999999991,0.0260943031072279,0.99999999999974,0.0192581298588788
1399.99999999982,0.0300145174046316,1.00000000000105,0.02192242717098
1499.99999999973,0.0334642702780437,1.00000000000119,0.0243764988877606
1599.99999999964,0.037813140380964,0.999999999999655,0.0271588496453029
1699.99999999955,0.0424657651905559,1.00000000000199,0.0300397638944995
1799.99999999946,0.0472015595558434,1.00000000000004,0.0328456414116144
1899.99999999937,0.0520621242235249,1.00000000000061,0.0360347295783171
1999.99999999928,0.0567606230729958,1.00000000000148,0.0390720246414255
2099.99999999919,0.0622244437568794,0.999999999999659,0.0423406365109712
2199.99999999909,0.0678993222008445,1.0000000000018,0.0458004727021691
2299.999999999,0.0733326311705087,1.00000000000035,0.0491385603233894
2399.99999999891,0.0789656568316468,1.00000000000023,0.0528374056777871
2499.99999999882,0.0847878918176555,1.00000000000169,0.0564621509153364
2599.99999999873,0.0911911917641215,0.999999999999777,0.0602483337806221
2699.99999999864,0.0975489270049324,1.00000000000149,0.0642984543424112
2799.99999999855,0.103514127852805,1.00000000000065,0.0682094074153611
2899.99999999846,0.109768396285222,0.999999999999995,0.0724650894523194
2999.99999999837,0.116466838679372,1.00000000000182,0.0767491768590146
3099.99999999828,0.123475170414468,0.999999999999959,0.0811460742292129
3199.99999999819,0.130207209287796,1.00000000000109,0.0858553000566473
3299.99999999809,0.136645878936571,1.0000000000009,0.090460310537569
3399.999999998,0.14341665535605,0.999999999999944,0.0954007832387451
3499.99999999791,0.150671800446313,1.00000000000183,0.100504147424893
3599.99999999782,0.157867111835998,1.00000000000019,0.105685897394391
3699.99999999773,0.164756046793367,1.00000000000067,0.111252640013055
3799.99999999764,0.17157896176075,1.00000000000115,0.116802383316615
3899.99999999755,0.178802923532577,1.00000000000001,0.12272148922627
3999.99999999746,0.186249837627945,1.00000000000174,0.128979125004706
4099.99999999738,0.19334934802775,1.00000000000047,0.135333268136642
4199.99999999775,0.200270770349172,1.00000000000049,0.142217102574069
4299.99999999811,0.207273097119714,1.00000000000169,0.149294662904413
4399.99999999848,0.214826657309084,1.00000000000067,0.156865228888106
4499.99999999884,0.222114176268678,1.00000000000267,0.165034862499114
4599.9999999992,0.228873208043485,1.00000000000266,0.173431358848105
4699.99999999957,0.236215972868947,1.0000000000038,0.182535031441403
4799.99999999993,0.2429085578332,1.00000000000766,0.192077289895311
4900.00000000029,0.251130556176492,1.00000000000978,0.20205444640993
5000.00000000066,0.259167882662377,1.00000000001526,0.212649862581465
5100.00000000102,0.265913638152321,1.00000000002157,0.223196226999551
5200.00000000139,0.27802458717336,1.00000000002793,0.234138731351698
5300.00000000175,0.287973480155119,1.00000000003826,0.245203433412504
5400.00000000211,0.304332593865814,1.00000000004709,0.256109235260302
5500.00000000248,0.327544255610286,1.00000000005775,0.267210249095818
5600.00000000284,0.35146933151478,1.00000000007008,0.277849344436749
5700.00000000321,0.397475016868257,1.0000000000844,0.288471715303777
5800.00000000357,0.450346427342691,1.00000000009719,0.298995838198232
5900.00000000393,0.525567227795334,1.00000000011037,0.309069329228802
6000.0000000043,0.634897474221552,1.00000000012669,0.319115555383819
6100.00000000466,0.762280412705106,1.00000000014155,0.32880548867483
6200.00000000502,0.947222243953152,1.00000000015491,0.338292203828986
6300.00000000539,1.17319639247575,1.00000000016743,0.347724113972944
6400.00000000575,1.45460339696671,1.00000000017859,0.356614179693952
6500.00000000612,1.82113944873187,1.0000000001959,0.365406859013922
6600.00000000648,2.24550471403909,1.00000000021087,0.373963690496439
6700.00000000684,2.77796064304088,1.00000000022438,0.382157299314352
6800.00000000721,3.40908000961997,1.00000000023438,0.39031614570435
6900.00000000757,4.14164323702259,1.0000000002513,0.397944201370822
7000.00000000793,5.02177120464745,1.0000000002628,0.405477632670327
7100.0000000083,6.01479484868227,1.00000000027527,0.412824936110213
7200.00000000866,7.16852297250055,1.0000000002919,0.419729562711174
7300.00000000903,8.48580226324017,1.00000000029756,0.426598229631844
7400.00000000939,9.95212661591889,1.00000000030683,0.433126184273023
7500.00000000975,11.6222647220648,1.00000000032668,0.439344978242534
7600.00000001012,13.4604674946186,1.0000000003272,0.445589814953251
7700.00000001048,15.5010867119917,1.00000000032371,0.451363886414203
7800.00000001084,17.758669810182,1.00000000033498,0.457076050701782
7900.00000001121,20.2035959724989,1.00000000034257,0.462522789008887
8000.00000001157,22.8894319694893,1.00000000036105,0.467556242094754
8100.00000001194,25.7848500311469,1.00000000036376,0.472729330178436
8200.0000000123,28.9056792090034,1.0000000003668,0.477439621143698
8300.00000001266,32.2739037191319,1.00000000036555,0.482097711242016
8400.00000001303,35.8513598354551,1.0000000003726,0.486568032047342
8500.00000001339,39.6822630801417,1.00000000039066,0.490572485136486
8600.00000001376,43.7429758825912,1.00000000039036,0.494708839061623
8700.00000001412,48.0313650501727,1.00000000038781,0.498514602985677
8800.00000001448,52.5721828209811,1.00000000040561,0.50210552631465
8900.00000001485,57.3243830589123,1.000000000393,0.505827905678829
9000.00000001521,62.3200813187167,1.0000000004056,0.508953795621942
9100.00000001557,67.5428028250446,1.0000000003896,0.512314465925845
9200.00000001594,72.9768898302167,1.00000000039593,0.515298690898438
9300.0000000163,78.6452634181102,1.00000000040733,0.518073043373528
9400.00000001667,84.5095479319114,1.00000000040524,0.520994124873383
9500.00000001703,90.5893086911095,1.00000000040006,0.523421167812772
9600.00000001739,96.87286254186,1.00000000041941,0.525908951432866
9700.00000001776,103.337063528042,1.000000000398,0.528413531402252
9800.00000001812,110.001890122251,1.00000000040202,0.53039381310852
9900.00000001848,116.832433556908,1.00000000041995,0.532626933736463
10000.0000000188,123.837887809559,1.00000000042605,0.534389428295896
10100.0000000192,131.010839567133,1.00000000041469,0.536276468612208
10200.0000000196,138.323064434102,1.00000000040392,0.538303828020042
10300.0000000199,145.792806196955,1.00000000040784,0.539668492548598
10400.0000000203,153.387859089987,1.00000000039003,0.541504862312331
10500.0000000207,161.110885426566,1.00000000040972,0.542868949212041
10600.000000021,168.956893535298,1.00000000038813,0.544169069346227
10700.0000000214,176.895924564566,1.000000000409,0.5456449167821
10800.0000000218,184.945020487549,1.00000000039413,0.546690786634694
10900.0000000221,193.073680066927,1.00000000038988,0.547779994070604
11000.0000000225,201.280943645713,1.0000000003887,0.549083867336192
11100.0000000229,209.564556206163,1.00000000039341,0.549653770562245
11200.0000000232,217.893935466872,1.00000000040698,0.550775453532667
11300.0000000236,226.284511171307,1.00000000039415,0.551758159665275
11400.0000000239,234.711424547442,1.00000000039441,0.551815672193354
11500.0000000243,243.166177108686,1.00000000039157,0.553161340249734
11600.0000000247,251.652784397735,1.00000000039206,0.553558900223406
11700.000000025,260.140968032984,1.00000000040939,0.553544926986925
11800.0000000254,268.642353278461,1.00000000038801,0.554866401718386
11900.0000000258,277.140781551902,1.00000000038903,0.554962349029009
12000.0000000261,285.620398726553,1.00000000038435,0.555218025066114
12100.0000000265,294.089441697267,1.00000000037914,0.556016843508135
12200.0000000269,302.522111448759,1.00000000038129,0.555812769219829
12300.0000000272,310.923770217153,1.00000000037661,0.556252695510804
12400.0000000276,319.285430734722,1.0000000003711,0.556758727909595
12500.0000000279,327.590715133213,1.00000000037866,0.556190206299801
12600.0000000283,335.847076797506,1.00000000036183,0.557031274092216
12700.0000000287,344.033601830903,1.00000000035726,0.557131222695624
12800.000000029,352.154349439102,1.00000000036579,0.556797286988184
12900.0000000294,360.201356225403,1.00000000035255,0.557280246426952
13000.0000000298,368.161130501163,1.00000000035316,0.556903466044844
13100.0000000301,376.040950227725,1.00000000035655,0.556904713406037
13200.0000000305,383.822828907533,1.00000000035708,0.55727644878832
13300.0000000309,391.510407280779,1.00000000034926,0.556840418178542
13400.0000000312,399.097907202896,1.00000000033199,0.556843535949221
13500.0000000316,406.572681703224,1.00000000034037,0.556958190190555
13600.0000000319,413.943851639932,1.0000000003273,0.556542512063839
13700.0000000323,421.194707705069,1.0000000003313,0.556614676248922
13800.0000000327,428.328744645878,1.00000000033699,0.556425691030757
13900.000000033,435.345270118021,1.00000000033331,0.555697678048466
14000.0000000334,442.227914495925,1.00000000032316,0.555909695817267
14100.0000000338,448.989831820098,1.00000000031778,0.556074005935397
14200.0000000341,455.619174326394,1.00000000032397,0.555519047027464
14300.0000000345,462.112169899773,1.00000000031849,0.555028903519819
14400.0000000349,468.474308660941,1.00000000031353,0.555172839967231
14500.0000000352,474.692328252634,1.00000000030809,0.554901140372309
14600.0000000356,480.775477066393,1.00000000030172,0.554370312992249
14700.0000000359,486.71461826128,1.00000000030241,0.554355302919689
14800.0000000363,492.509216156732,1.00000000030452,0.554256880622646
14900.0000000367,498.164112457197,1.00000000030322,0.553480466321529
15000.000000037,503.666447219006,1.0000000002974,0.553209581589391
15100.0000000374,509.026103383097,1.00000000030253,0.553163236486413
15200.0000000378,514.238539177461,1.00000000029937,0.552809480715544
15300.0000000381,519.299918544881,1.00000000029581,0.552238278615665
15400.0000000385,524.215561896986,1.0000000002904,0.552274692154629
15500.0000000389,528.978528359971,1.00000000028723,0.552182036266934
15600.0000000392,533.594869759808,1.00000000029152,0.551330821203761
15700.0000000396,538.062269814537,1.00000000028246,0.551164397721961
15800.0000000399,542.376647411654,1.00000000027858,0.550744281333787
15900.0000000403,546.547552504124,1.00000000028232,0.551535018309273
16000.0000000407,550.567784831808,1.00000000027338,0.550236658910091
16100.000000041,554.441388944369,1.00000000027687,0.550918497515915
16200.0000000414,558.170691591163,1.00000000025818,0.549058533909408
16300.0000000418,561.750399741185,1.00000000027341,0.549732679040639
16400.0000000418,565.18984975454,1.0000000002609,0.548294903174247
16500.0000000404,568.482196543706,1.0000000002725,0.549542743841657
16600.0000000389,571.632802092636,1.00000000025566,0.549084692793823
16700.0000000375,574.643920981785,1.00000000026517,0.549257732647568
16800.000000036,577.510744141539,1.00000000026041,0.547449133624686
16900.0000000346,580.240537837103,1.00000000026027,0.546524647505192
17000.0000000331,582.829719616789,1.00000000025254,0.546020394006657
17100.0000000317,585.281043394065,1.00000000025041,0.547213048104108
17200.0000000302,587.599312289663,1.00000000023992,0.548179283492631
17300.0000000287,589.781822485747,1.00000000024631,0.548887795993253
17400.0000000273,591.836793265358,1.00000000024344,0.547170802192695
17500.0000000258,593.760580897488,1.00000000024403,0.544916992494169
17600.0000000244,595.552303767102,1.00000000023627,0.542510426151276
17700.0000000229,597.214396600609,1.00000000023986,0.542779062444935
17800.0000000215,598.746284903181,1.00000000023544,0.5455241723761
17900.00000002,600.157752290521,1.00000000023021,0.548836294473453
18000.0000000186,601.454055219081,1.00000000023667,0.549939799324519
18100.0000000171,602.635815179403,1.00000000023475,0.547494797557344
18200.0000000156,603.7057049798,1.00000000023216,0.542551554373924
18300.0000000142,604.653746165049,1.00000000021934,0.538053045958662
18400.0000000127,605.480311633648,1.00000000021582,0.537482029273171
18500.0000000113,606.188078781975,1.00000000021349,0.541573579763779
18600.0000000098,606.785455994927,1.00000000022148,0.548594580894536
18700.0000000084,607.289815777592,1.00000000023505,0.552893809801623
18800.0000000069,607.705035406119,1.00000000023767,0.551947759176614
18900.0000000055,608.033016215871,1.00000000023139,0.545179235770272
19000.000000004,608.263000363467,1.00000000020979,0.535730389251729
19100.0000000026,608.382256028594,1.00000000019411,0.530075494900732
19200.0000000011,608.390555591288,1.00000000019337,0.531051330617344
19299.9999999996,608.294280610236,1.00000000020819,0.54022764580695
19399.9999999982,608.114798286186,1.0000000002245,0.550905199270303
19499.9999999967,607.871008330393,1.00000000024345,0.557000648874723
19599.9999999953,607.571036525711,1.00000000024469,0.555382870271097
19699.9999999938,607.213702581369,1.00000000022963,0.545190923078404
19799.9999999924,606.780507491792,1.00000000020276,0.531337076550988
19899.9999999909,606.254603212736,1.00000000017188,0.520013021295998
19999.9999999895,605.627749237482,1.00000000017147,0.519075110834954
20099.999999988,604.907509733956,1.00000000018833,0.530250700017105
20199.9999999865,604.119072761963,1.00000000021681,0.546370357138229
20299.9999999851,603.287252369749,1.00000000025321,0.558575516024773
20399.9999999836,602.429308887058,1.00000000026482,0.561483732399501
20499.9999999822,601.549095284488,1.00000000026043,0.553825993726265
20599.9999999807,600.628915508168,1.00000000022671,0.53656639923106
20699.9999999793,599.648178442006,1.00000000018336,0.516570323485768
20799.9999999778,598.584423326673,1.00000000015303,0.503439120667243
20899.9999999764,597.432957629535,1.00000000015653,0.505557606406076
20999.9999999749,596.208304992966,1.00000000018392,0.523064815958008
21099.9999999734,594.936604748834,1.00000000022999,0.545276015196685
21199.999999972,593.648461996372,1.00000000026771,0.561201152605653
21299.9999999705,592.361608553864,1.0000000003009,0.565648559363179
21399.9999999691,591.07786415001,1.0000000002806,0.557952984552446
21499.9999999676,589.783954296411,1.00000000024555,0.539041519664705
21599.9999999662,588.453573020459,1.00000000019974,0.513068056468942
21699.9999999647,587.063084258537,1.00000000015171,0.491000527743273
21799.9999999633,585.59765113545,1.00000000013343,0.483772985335046
21899.9999999618,584.06353379084,1.00000000015954,0.497987850376557
21999.9999999603,582.484597919581,1.0000000002077,0.526211981220848
22099.9999999589,580.889000178054,1.00000000026002,0.552249125519289
22199.9999999574,579.30351584577,1.00000000029902,0.566942756354072
22299.999999956,577.740364297765,1.00000000030687,0.568818235236224
22399.9999999545,576.196899469971,1.00000000029888,0.558765373681275
22499.9999999531,574.65850935649,1.00000000025694,0.53704769227194
22599.9999999516,573.098474102306,1.00000000019224,0.506661879316661
22699.9999999502,571.493298391833,1.0000000001468,0.478428023362231
22799.9999999487,569.827093745273,1.0000000001218,0.466083992779581
22899.9999999473,568.102541941296,1.00000000013792,0.476594589633737
22999.9999999458,566.33839586286,1.00000000018773,0.507220557882518
23099.9999999443,564.559776252268,1.00000000024731,0.539977133779794
23199.9999999429,562.792085606322,1.00000000029687,0.562017886672164
23299.9999999414,561.052214011291,1.00000000032999,0.57107613981434
23399.99999994,559.34439691952,1.00000000033248,0.568967220999661
23499.9999999385,557.663290170052,1.00000000029989,0.555444641864934
23599.9999999371,555.991149183914,1.00000000025541,0.531206152887369
23699.9999999356,554.305844698653,1.00000000019239,0.497449129374594
23799.9999999342,552.586461508413,1.0000000001393,0.466124593213255
23899.9999999327,550.820203164758,1.00000000011641,0.451630104926026
23999.9999999312,549.009883115297,1.0000000001281,0.459600522784618
24099.9999999298,547.166536738592,1.00000000016946,0.488508874922995
24199.9999999283,545.312349235888,1.0000000002308,0.524891514186588
24299.9999999269,543.467690025145,1.00000000029257,0.552257192006356
24399.9999999254,541.647586888409,1.00000000033754,0.566824455300487
24499.999999924,539.860939002529,1.00000000033701,0.569951913722957
24599.9999999225,538.107498464719,1.00000000032663,0.563634001630404
24699.9999999211,536.378338940883,1.00000000028767,0.547966797212481
24799.9999999196,534.659947880808,1.00000000025092,0.522962121634362
24899.9999999181,532.934363904331,1.00000000019362,0.489438714886866
24999.9999999167,531.186946602428,1.00000000014593,0.458115233013069
25099.9999999152,529.407869157101,1.00000000012415,0.442188121936261
25199.9999999138,527.597965869818,1.00000000012492,0.446498536609954
25299.9999999123,525.76539701278,1.00000000016166,0.468519451011493
25399.9999999109,523.922535978355,1.00000000020477,0.502667521857902
25499.9999999094,522.085641511529,1.00000000026882,0.534655945610698
25599.999999908,520.266785247547,1.00000000030355,0.554602393100294
25699.9999999065,518.473780443203,1.00000000032973,0.564168308434237
25799.9999999051,516.71123769227,1.00000000033764,0.562198769897923
25899.9999999036,514.9766310116,1.00000000031169,0.554887529263878
25999.9999999021,513.263567823507,1.00000000028231,0.539366000201235
26099.9999999007,511.562440066659,1.00000000024229,0.518581940377547
26199.9999998992,509.861609398719,1.000000000206,0.490360054291061
26299.9999998978,508.151848808089,1.00000000016666,0.46225701282673
26399.9999998963,506.425436207532,1.0000000001398,0.443265004774105
26499.9999998949,504.682656700696,1.00000000013546,0.438652545516798
26599.9999998934,502.92551020813,1.00000000014781,0.449844148861794
26699.999999892,501.160646096684,1.00000000017882,0.472604276411648
26799.9999998905,499.39706296808,1.00000000022426,0.500936997033916
26899.999999889,497.642334849689,1.00000000027023,0.528015986058651
26999.9999998876,495.903955263012,1.00000000030534,0.544996141692284
27099.9999998861,494.186528981386,1.00000000032538,0.551292723112151
27199.9999998847,492.49164517426,1.00000000032216,0.551570219619782
27299.9999998832,490.819006753228,1.00000000031926,0.544353900434528
27399.9999998818,489.16519811351,1.00000000030018,0.533749754367985
27499.9999998803,487.524988682927,1.0000000002676,0.519827295034874
27599.9999998789,485.892773434089,1.00000000023351,0.501546650067785
27699.9999998774,484.26222911923,1.00000000020975,0.48243889676156
27799.9999998759,482.630034903116,1.00000000017501,0.462513492649304
27899.9999998745,480.992773972076,1.00000000016581,0.449617004562537
27999.999999873,479.351333604323,1.0000000001539,0.443174241252509
28099.9999998716,477.707030020894,1.00000000015787,0.449455991212552
28199.9999998701,476.06222654726,1.00000000017572,0.462807392046226
28299.9999998687,474.42149153673,1.00000000020807,0.483215355336818
28399.9999998672,472.787893181248,1.00000000023288,0.503737224639657
28499.9999998658,471.164884584231,1.00000000026571,0.521914175765685
28599.9999998643,469.555748177653,1.00000000029232,0.532642650438522
28699.9999998629,467.961597510572,1.00000000029498,0.536087602379052
28799.9999998614,466.38288646126,1.00000000030163,0.534874483506104
28899.9999998599,464.819489332921,1.00000000028973,0.528356295681462
