Time,AGPnorm,Energy,Entropy
0,0,1,-7.19398066285303e-17
99.9999999999986,0.000872468262900412,1.00000000000043,0.0030361590562664
199.999999999993,0.00591314032391363,0.999999999999589,0.00897427391597307
300,0.0121632630733887,0.99999999999905,0.0165695706862381
400.000000000022,0.0186779317922336,0.999999999999747,0.0260435851490645
500.000000000045,0.0263317317977286,1.00000000000012,0.0375955680283514
600.000000000068,0.0364050330043677,0.999999999999885,0.0509021777460045
700.000000000091,0.0471969218649057,0.999999999999243,0.0655546628255191
800.000000000113,0.0584617480185665,0.999999999999647,0.0816869571255832
900.000000000136,0.0701767639146625,1.00000000000006,0.100047100157724
1000.00000000016,0.082921917010542,0.999999999999843,0.120767180837165
1100.0000000001,0.0961964663185349,1.00000000000006,0.144476998774428
1200,0.108656677379649,1.00000000000305,0.171839808921713
1299.99999999991,0.121714710962004,1.0000000000184,0.204650510683966
1399.99999999982,0.132405986178197,1.00000000006489,0.243259421731048
1499.99999999973,0.148286031220773,1.00000000015268,0.285070960403712
1599.99999999964,0.194002483506453,1.00000000029077,0.325948528799784
1699.99999999955,0.290837203152589,1.00000000042624,0.363681244202214
1799.99999999946,0.471938754196143,1.00000000061764,0.397407362380078
1899.99999999937,0.821366948062823,1.00000000077154,0.427006382198352
1999.99999999928,1.43971052643729,1.00000000091046,0.452428136733114
2099.99999999919,2.3787322792551,1.00000000106081,0.474336597762529
2199.99999999909,3.67470626306415,1.00000000104622,0.493599047183884
2299.999999999,5.38858452426253,1.00000000123322,0.509386718566554
2399.99999999891,7.55762210090297,1.00000000124906,0.522742553497168
2499.99999999882,10.1686081788561,1.00000000124801,0.53416337002158
2599.99999999873,13.1885090013645,1.00000000121079,0.54355688689253
2699.99999999864,16.5969328998305,1.00000000130206,0.550782855092546
2799.99999999855,20.3529935698404,1.00000000126329,0.556630698279853
2899.99999999846,24.3866331921522,1.00000000126722,0.561266263475584
2999.99999999837,28.6329513397181,1.00000000124536,0.564691081298228
3099.99999999828,33.0424595063012,1.00000000121579,0.566964928269728
3199.99999999819,37.5565561150535,1.00000000120706,0.56846456133524
3299.99999999809,42.0988590033877,1.00000000120967,0.56920867859902
3399.999999998,46.6094618017873,1.00000000117697,0.569843485634862
3499.99999999791,51.0496413579635,1.00000000114516,0.569716056645736
3599.99999999782,55.3763703986279,1.00000000113801,0.569210253759908
3699.99999999773,59.5414444254242,1.00000000110729,0.567183579372307
3799.99999999764,63.5062773453513,1.00000000105379,0.565659766418486
3899.99999999755,67.2448662879482,1.00000000104103,0.566275680386303
3999.99999999746,70.7400579608902,1.00000000102422,0.563612717792423
4099.99999999738,73.9806596877265,1.0000000009561,0.560261717150424
4199.99999999775,76.9410378121924,1.00000000096487,0.561348114854983
4299.99999999811,79.6107225967957,1.00000000088799,0.557850294766777
4399.99999999848,82.0017623820597,1.00000000089552,0.555761986064556
4499.99999999884,84.1131464754813,1.00000000084445,0.556215803808065
4599.9999999992,85.9461851126312,1.00000000082498,0.550286571285942
4699.99999999957,87.500371136058,1.00000000084309,0.55366602098884
4799.99999999993,88.7923991500938,1.00000000079023,0.551718626477509
4900.00000000029,89.8276240611284,1.00000000077641,0.543938117136238
5000.00000000066,90.6243014785494,1.00000000081173,0.555697189147754
5100.00000000102,91.2147260157823,1.00000000076081,0.551569227789028
5200.00000000139,91.5758987830835,1.00000000067012,0.533841610079216
5300.00000000175,91.733903084127,1.00000000078431,0.556394126737738
5400.00000000211,91.7607106160822,1.000000000773,0.557170291509352
5500.00000000248,91.6205511902039,1.00000000057587,0.519550944600421
5600.00000000284,91.29475108301,1.00000000065931,0.538695678927998
5700.00000000321,90.8861902390947,1.00000000085578,0.571056604990369
5800.00000000357,90.4175252144479,1.00000000067131,0.533095435027441
5900.00000000393,89.8010537795489,1.00000000048237,0.494714064216362
6000.0000000043,89.0735423617817,1.0000000007649,0.548511512483475
6100.00000000466,88.3479508247721,1.00000000092954,0.575133731257776
6200.00000000502,87.6105527301931,1.00000000069987,0.521061869301185
6300.00000000539,86.7658356032984,1.0000000004218,0.468716197916575
6400.00000000575,85.8379913325755,1.00000000068447,0.525315093011569
6500.00000000612,84.9312136876725,1.00000000094417,0.578017832464542
6600.00000000648,84.0702014070214,1.00000000089019,0.546874798402522
6700.00000000684,83.1766313876736,1.00000000052159,0.464090876510651
6800.00000000721,82.2055047123698,1.00000000047119,0.450408931474245
6900.00000000757,81.2107566994088,1.00000000086112,0.533034277656668
7000.00000000793,80.2622735919451,1.00000000107054,0.573896235797293
7100.0000000083,79.3649938781981,1.00000000088754,0.543473260293158
7200.00000000866,78.4652112853295,1.00000000057819,0.461373712779627
7300.00000000903,77.5242232601393,1.00000000042451,0.421770799836425
7400.00000000939,76.560458830512,1.00000000067897,0.478763348942078
7500.00000000975,75.6164994667664,1.00000000095427,0.547673866406745
7600.00000001012,74.7178144186278,1.00000000103422,0.560691162546326
7700.00000001048,73.8555895289236,1.00000000086959,0.524067344225977
7800.00000001084,72.9985867003698,1.00000000061154,0.459598921454463
7900.00000001121,72.131184692784,1.00000000046437,0.423451801933957
8000.00000001157,71.2596175203005,1.00000000057002,0.450557379977473
8100.00000001194,70.3986661201153,1.00000000081301,0.507389043414204
8200.0000000123,69.5617342840952,1.00000000095617,0.540965245959082
8300.00000001266,68.7537317866606,1.00000000093094,0.541776503351593
8400.00000001303,67.9681921498504,1.00000000071064,0.512778242440097
8500.00000001339,67.1942809619321,1.00000000056445,0.465810424247899
8600.00000001376,66.4304824465594,1.00000000055779,0.442029160183507
8700.00000001412,65.6812313718567,1.00000000059507,0.453648493350172
8800.00000001448,64.9475800120669,1.00000000069697,0.477806811090394
8900.00000001485,64.229252344932,1.00000000075043,0.503214147207989
9000.00000001521,63.5253796720769,1.00000000086124,0.523226302874999
9100.00000001557,62.8357765017329,1.00000000092855,0.533810032371887
9200.00000001594,62.1602418162294,1.00000000085651,0.529823709233208
9300.0000000163,61.5008029287491,1.00000000064482,0.492677542416655
9400.00000001667,60.8620355922644,1.00000000054531,0.456527621982194
9500.00000001703,60.2465752503133,1.00000000062634,0.458128668143876
9600.00000001739,59.6511316491115,1.00000000072783,0.474149337901253
9700.00000001776,59.0716436723676,1.00000000074947,0.496019148937815
9800.00000001812,58.5080166266188,1.0000000006561,0.489048635565619
9900.00000001848,57.9612585045826,1.00000000067569,0.497158791416709
10000.0000000188,57.4266215814242,1.00000000073624,0.512789145165791
10100.0000000192,56.8945907529057,1.00000000094155,0.532780468995111
10200.0000000196,56.3633143606272,1.00000000092485,0.538155900374016
10300.0000000199,55.8419429431407,1.00000000076345,0.513246070731657
10400.0000000203,55.3443802827058,1.00000000056727,0.472507752874554
10500.0000000207,54.8762753225617,1.00000000055045,0.454861907832855
10600.000000021,54.4327595612241,1.00000000075288,0.468849208015907
10700.0000000214,54.0015721353434,1.00000000082014,0.482763921039026
10800.0000000218,53.5762750329641,1.00000000078931,0.500399742148896
10900.0000000221,53.1600841302026,1.0000000007028,0.503417524791227
11000.0000000225,52.7613888825762,1.00000000062704,0.489500327391045
11100.0000000229,52.3801300070579,1.00000000067105,0.496585515602862
11200.0000000232,52.0064724850125,1.00000000073595,0.515272098152554
11300.0000000236,51.630669778415,1.00000000089756,0.530345135678247
11400.0000000239,51.2467350242742,1.00000000091103,0.538014255908265
11500.0000000243,50.8604220837613,1.00000000085114,0.533925620732085
11600.0000000247,50.4844297432798,1.00000000071702,0.511832228299947
11700.000000025,50.1314488998922,1.0000000005554,0.481712297122273
11800.0000000254,49.8077149498594,1.00000000060042,0.470787148417503
11900.0000000258,49.5092832737985,1.00000000062951,0.472986558616694
12000.0000000261,49.2281968065887,1.00000000074679,0.484072756715006
12100.0000000265,48.9537203850594,1.00000000079137,0.496526034442492
12200.0000000269,48.6823003474494,1.00000000077473,0.495739367081822
12300.0000000272,48.4159854076738,1.00000000074067,0.508367317673367
12400.0000000276,48.1549767163012,1.0000000007166,0.518690059100631
12500.0000000279,47.9018401810384,1.00000000075059,0.52511669562857
12600.0000000283,47.6539274219606,1.00000000069789,0.531267345123328
12700.0000000287,47.4100939667173,1.00000000070727,0.533112502928741
12800.000000029,47.1688551561816,1.0000000007324,0.527445878120148
12900.0000000294,46.9284785080943,1.00000000084279,0.526447986545499
13000.0000000298,46.6833692822359,1.00000000089393,0.535011883481824
13100.0000000301,46.4303834432359,1.00000000087425,0.545875354785445
13200.0000000305,46.177487080202,1.00000000075838,0.538115971891917
13300.0000000309,45.9404685194044,1.00000000059979,0.514382021476593
13400.0000000312,45.7294148341535,1.00000000059177,0.492765764176722
13500.0000000316,45.5446408750093,1.00000000064012,0.482370102343672
13600.0000000319,45.3773281549894,1.00000000076115,0.498536402266944
13700.0000000323,45.219071010634,1.00000000074156,0.499814656545949
13800.0000000327,45.0675039420526,1.00000000074144,0.497060382389224
13900.000000033,44.9235034979624,1.00000000074721,0.501535136496696
14000.0000000334,44.7882249663134,1.00000000067214,0.506119659576443
14100.0000000338,44.6654968981101,1.00000000066259,0.503831051149444
14200.0000000341,44.5494215961525,1.0000000007523,0.516181775214937
14300.0000000345,44.4289711537886,1.00000000082792,0.533439459749452
14400.0000000349,44.2952251261851,1.00000000085856,0.546985179454957
14500.0000000352,44.1475544101917,1.00000000078341,0.553067813999243
14600.0000000356,43.9923630294867,1.00000000074638,0.556658649122334
14700.0000000359,43.8368263319946,1.00000000068622,0.551177148162508
14800.0000000363,43.6872968288179,1.00000000065539,0.539572609981107
14900.0000000367,43.5458366145593,1.0000000006743,0.534542251961918
15000.000000037,43.4064074074871,1.00000000070968,0.529124139556569
15100.0000000374,43.2639421422245,1.00000000083641,0.534483737650088
15200.0000000378,43.1148708313905,1.00000000088123,0.54353781616366
15300.0000000381,42.9586878883939,1.00000000085113,0.549779054606628
15400.0000000385,42.8026495687533,1.00000000077731,0.547773245822723
15500.0000000389,42.6585851105519,1.0000000006622,0.536655126491444
15600.0000000392,42.5353692225734,1.00000000059728,0.518848545116467
15700.0000000396,42.4352573088239,1.00000000060643,0.505288330356013
15800.0000000399,42.354981151569,1.00000000064123,0.501703130445835
15900.0000000403,42.2894471065244,1.00000000069391,0.500060626920054
16000.0000000407,42.2281818075339,1.00000000074726,0.507070977421897
16100.000000041,42.1679187312494,1.00000000078185,0.505129900786567
16200.0000000414,42.112463912901,1.00000000071371,0.50282506862054
16300.0000000418,42.0653181579304,1.00000000065,0.505705712039325
16400.0000000418,42.0249893524167,1.0000000007142,0.518440177026226
16500.0000000404,41.9857583347948,1.00000000077753,0.534175965730799
16600.0000000389,41.9461569825346,1.00000000075208,0.54016704315406
16700.0000000375,41.9073000439633,1.00000000074208,0.542490363246564
16800.000000036,41.8713815838413,1.00000000069473,0.546036206763717
16900.0000000346,41.8355321937351,1.00000000067872,0.545259830459531
17000.0000000331,41.7962762461543,1.00000000076309,0.547524592176869
17100.0000000317,41.7479740588739,1.00000000077864,0.552539931472802
17200.0000000302,41.6859267864775,1.00000000086432,0.550347561784865
17300.0000000287,41.6081167656849,1.0000000008261,0.548706833433053
17400.0000000273,41.5177367994555,1.00000000085493,0.556100908934108
17500.0000000258,41.4188725354247,1.00000000073611,0.563387566300995
17600.0000000244,41.315691613817,1.00000000071445,0.559421304323348
17700.0000000229,41.2148894501293,1.00000000070053,0.552517340268127
17800.0000000215,41.1204304485795,1.00000000064987,0.543665352010061
17900.00000002,41.0324268897563,1.00000000067945,0.536571784478622
18000.0000000186,40.9488658964206,1.00000000073892,0.531443062421152
18100.0000000171,40.8652806552111,1.00000000080364,0.533987379700071
18200.0000000156,40.7787957550075,1.00000000085139,0.546539192389792
18300.0000000142,40.6875667216553,1.00000000084506,0.5549241983666
18400.0000000127,40.5913478867867,1.00000000080886,0.559475363670959
18500.0000000113,40.4976181367014,1.00000000075406,0.55840306008102
18600.0000000098,40.4154737561513,1.00000000068653,0.54758241117555
18700.0000000084,40.3501085872065,1.00000000068684,0.538251660909675
18800.0000000069,40.3045622539553,1.00000000069604,0.530190640590519
18900.0000000055,40.2776560693286,1.0000000006927,0.519192707711812
19000.000000004,40.264033033544,1.0000000007677,0.515847603414649
19100.0000000026,40.2561976555422,1.0000000007673,0.517551764306428
19200.0000000011,40.2522348208705,1.00000000069344,0.519815579200067
19299.9999999996,40.2543901295098,1.00000000070123,0.514741584990681
19399.9999999982,40.2633126259735,1.00000000073142,0.509427238016762
19499.9999999967,40.2760173089948,1.00000000073687,0.510510907540798
19599.9999999953,40.2927656158238,1.0000000007372,0.513218887353946
19699.9999999938,40.3136531092167,1.00000000069523,0.510509581696793
19799.9999999924,40.3399672263116,1.0000000007438,0.515249423647465
19899.9999999909,40.3686853042827,1.0000000007741,0.530833432504182
19999.9999999895,40.3929612293917,1.0000000007801,0.549387811551578
20099.999999988,40.4086380859173,1.0000000008497,0.554747207222999
20199.9999999865,40.4159242010587,1.00000000075846,0.563163153043349
20299.9999999851,40.419795217888,1.0000000008175,0.570040776795562
20399.9999999836,40.4254496717791,1.00000000071872,0.569616870040379
20499.9999999822,40.4323265279193,1.00000000073865,0.57199710547944
20599.9999999807,40.4353594230326,1.00000000080423,0.579705373791481
20699.9999999793,40.432089147524,1.00000000079481,0.591287858777757
20799.9999999778,40.4242627637898,1.00000000073443,0.596206118602427
20899.9999999764,40.4122335443776,1.00000000073534,0.595883436461234
20999.9999999749,40.3932741448429,1.00000000078499,0.595503038564144
21099.9999999734,40.3673414420078,1.00000000079206,0.592798097567494
21199.999999972,40.3354394805729,1.00000000075297,0.589341004558386
21299.9999999705,40.2962348141208,1.00000000076313,0.583930031833151
21399.9999999691,40.248516361613,1.00000000079714,0.574313721069804
21499.9999999676,40.191727415726,1.000000000806,0.572549122858975
21599.9999999662,40.1241891639537,1.0000000008137,0.585288551682875
21699.9999999647,40.0479264023331,1.00000000083734,0.594830068034523
21799.9999999633,39.9654724430071,1.00000000080798,0.595428763929117
21899.9999999618,39.8810413250289,1.00000000073248,0.593063356633769
21999.9999999603,39.7982067657065,1.00000000073002,0.593516607488006
22099.9999999589,39.7186809305221,1.00000000071104,0.593406614982448
22199.9999999574,39.6438581923549,1.00000000071189,0.594937616848678
22299.999999956,39.57337366661,1.00000000068967,0.592994602287179
22399.9999999545,39.5057002852821,1.00000000070042,0.58877929364138
22499.9999999531,39.4410572330028,1.00000000078869,0.590821663589686
22599.9999999516,39.3780516869915,1.00000000078605,0.593420499875194
22699.9999999502,39.315927364986,1.00000000080487,0.590887809350975
22799.9999999487,39.2526214706663,1.00000000083224,0.585587482079131
22899.9999999473,39.1879705381602,1.00000000083864,0.58257821882224
22999.9999999458,39.1220754043882,1.00000000080735,0.582338954073531
23099.9999999443,39.0574330924493,1.00000000079962,0.576475794346449
23199.9999999429,38.9989260291574,1.00000000069973,0.573433148790555
23299.9999999414,38.9517046700052,1.00000000067397,0.569630580300268
23399.99999994,38.9201007022332,1.0000000006639,0.562775661068394
23499.9999999385,38.9044731976846,1.00000000068939,0.556178536915805
23599.9999999371,38.9030818360854,1.00000000069342,0.553464263614604
23699.9999999356,38.9129945482472,1.00000000072492,0.549177347728101
23799.9999999342,38.9307182584911,1.00000000076291,0.544428949023261
23899.9999999327,38.9535687017293,1.00000000080706,0.541277530170017
23999.9999999312,38.9810953657749,1.00000000074652,0.539269185129943
24099.9999999298,39.0137952924555,1.00000000070396,0.539214062350404
24199.9999999283,39.0514879066741,1.00000000079096,0.539262828284255
24299.9999999269,39.0920854988186,1.00000000074853,0.540736372422261
24399.9999999254,39.1369972753769,1.00000000070621,0.539661123043345
24499.999999924,39.1870136513459,1.00000000075586,0.536964518833622
24599.9999999225,39.2414851423113,1.00000000075325,0.537350705906954
24699.9999999211,39.2991274939767,1.00000000075924,0.541242462094984
24799.9999999196,39.3555113339032,1.00000000079262,0.549695854723021
24899.9999999181,39.405888742273,1.00000000088788,0.564157310463375
24999.9999999167,39.4499278821001,1.00000000080585,0.571967029414943
25099.9999999152,39.4883438268762,1.00000000079192,0.580841705764712
25199.9999999138,39.5227482904397,1.00000000077271,0.58424137299684
25299.9999999123,39.5528742217672,1.00000000079373,0.591536070781057
25399.9999999109,39.5807116400162,1.00000000077037,0.594045683397646
25499.9999999094,39.606574989177,1.00000000081592,0.593075313475845
25599.999999908,39.6311330891962,1.00000000074966,0.593942424610763
25699.9999999065,39.6546766398976,1.00000000073618,0.595668132132312
25799.9999999051,39.6759895830157,1.00000000083673,0.604041182492787
25899.9999999036,39.693445903099,1.0000000008449,0.603526801604814
25999.9999999021,39.7068253154033,1.00000000078114,0.598264643834961
26099.9999999007,39.715646379839,1.00000000080047,0.597523971099287
26199.9999998992,39.7192385011292,1.00000000085247,0.593442560292251
26299.9999998978,39.7182546947717,1.00000000075566,0.602581512294604
26399.9999998963,39.7142777389604,1.00000000079256,0.608196397766296
26499.9999998949,39.7096312293412,1.00000000077004,0.602392003445323
26599.9999998934,39.7051801953796,1.0000000007721,0.604284217565508
26699.999999892,39.6989706697157,1.00000000078191,0.606840773234703
26799.9999998905,39.6889202932608,1.0000000008172,0.609607926550001
26899.999999889,39.6758742192929,1.00000000080213,0.603488598051502
26999.9999998876,39.6608221915286,1.00000000077139,0.596799234065601
27099.9999998861,39.6434347067354,1.00000000076524,0.595027745871088
27199.9999998847,39.6232683039715,1.00000000078593,0.592822437019595
27299.9999998832,39.5996602906676,1.00000000080008,0.597900820296632
27399.9999998818,39.5708322202996,1.00000000085117,0.604954619797468
27499.9999998803,39.5373012356328,1.00000000086498,0.603640795138289
27599.9999998789,39.5012330153094,1.00000000078703,0.605076961798762
27699.9999998774,39.4634195559098,1.00000000079091,0.608039449931316
27799.9999998759,39.4249014603495,1.00000000080602,0.607820118024981
27899.9999998745,39.3857257960246,1.0000000007749,0.60939660284136
27999.999999873,39.3443790441718,1.00000000077751,0.611536679828052
28099.9999998716,39.3006206941038,1.0000000007641,0.608034419841575
28199.9999998701,39.2561296699039,1.00000000075971,0.603147094641804
28299.9999998687,39.2105636961762,1.0000000007739,0.598995187077313
28399.9999998672,39.1623105840083,1.00000000082065,0.601236521308578
28499.9999998658,39.1112458728374,1.00000000083989,0.605469401534533
28599.9999998643,39.0561498993159,1.00000000081095,0.606487259836417
28699.9999998629,38.9970844560238,1.00000000088856,0.606701994770725
28799.9999998614,38.9332230921266,1.00000000087158,0.607114232720891
28899.9999998599,38.8641954909298,1.00000000088659,0.609429865600087
28999.9999998585,38.7910313839456,1.00000000082038,0.615159704892205
