Time,AGPnorm,Energy,Entropy
0,0,1,3.52376915419639e-18
99.9999999999986,0.00598844803171804,0.999999999998452,0.0177672404919439
199.999999999993,0.0167348340933902,1.00000000000113,0.0525430940491384
300,0.0344439468842044,0.99999999999804,0.103195408026428
400.000000000022,0.0515363479640925,1.00000000000936,0.173114837514325
500.000000000045,0.0686130029338871,1.00000000015436,0.274492423097097
600.000000000068,0.142556507679643,1.00000000083499,0.392085561224769
700.000000000091,0.489320179735916,1.00000000149689,0.481259686718504
800.000000000113,1.47120183233847,1.00000000213852,0.534388402793055
900.000000000136,3.30464858857793,1.00000000230439,0.562622058206607
1000.00000000016,5.8345321325994,1.00000000239706,0.574806934539758
1100.0000000001,8.88509719785903,1.00000000236031,0.576452761907682
1200,12.0537470623223,1.00000000204285,0.572275958288958
1299.99999999991,15.1064745322079,1.00000000217504,0.566659071035275
1399.99999999982,17.8014997261953,1.00000000197588,0.560140094549542
1499.99999999973,20.0078127443568,1.00000000180133,0.5480984862502
1599.99999999964,21.6928744696463,1.00000000160406,0.540616703126175
1699.99999999955,22.8273209451402,1.00000000157716,0.543610565021522
1799.99999999946,23.507300290973,1.00000000139845,0.510733607858537
1899.99999999937,23.7511786127096,1.0000000015879,0.560892030270608
1999.99999999928,23.7012275965678,1.0000000010306,0.475211875234766
2099.99999999919,23.3600638067479,1.00000000174305,0.566496816433748
2199.99999999909,22.9681511754236,1.0000000011643,0.485159796092751
2299.999999999,22.3447598907958,1.00000000120865,0.474814333029618
2399.99999999891,21.7533865720023,1.00000000205706,0.580842641896589
2499.99999999882,21.1753210356716,1.00000000088257,0.409254768422801
2599.99999999873,20.48038233689,1.00000000115064,0.444390587624482
2699.99999999864,19.8253661823535,1.00000000222643,0.56926785754898
2799.99999999855,19.2590286138934,1.00000000150969,0.508881043130683
2899.99999999846,18.6731762977308,1.00000000073901,0.348445699733009
2999.99999999837,18.0815829481516,1.00000000139071,0.463038377361348
3099.99999999828,17.5084674266515,1.00000000181009,0.534753348591723
3199.99999999819,16.9897556232071,1.00000000193139,0.566325631183306
3299.99999999809,16.5098005666156,1.00000000101821,0.449000577171243
3399.999999998,16.0705617671401,1.00000000086694,0.354563778428613
3499.99999999791,15.6694823804057,1.00000000141294,0.468615479281127
3599.99999999782,15.2656551638862,1.00000000152874,0.531429225987725
3699.99999999773,14.8768415653487,1.00000000137699,0.505172563457279
3799.99999999764,14.4901343573884,1.00000000210598,0.55975256772376
3899.99999999755,14.1241716096434,1.0000000014976,0.543436664443516
3999.99999999746,13.8080591607425,1.00000000075909,0.396581963530057
4099.99999999738,13.5904437932442,1.00000000085969,0.3621930385411
4199.99999999775,13.4157855570202,1.00000000152829,0.472121059499477
4299.99999999811,13.2199813794152,1.00000000175649,0.525686122033939
4399.99999999848,12.9983591165088,1.00000000152962,0.546369700360954
4499.99999999884,12.7809772348669,1.00000000123213,0.529119062941916
4599.9999999992,12.5647908720803,1.00000000147616,0.532278021990217
4699.99999999957,12.3304844787827,1.00000000179356,0.54238099364218
4799.99999999993,12.0846372945291,1.00000000199241,0.582418323768845
4900.00000000029,11.8509693425082,1.00000000135832,0.530512661174343
5000.00000000066,11.6814854882685,1.0000000007334,0.408652585530831
5100.00000000102,11.6321376196586,1.00000000087927,0.377322425827631
5200.00000000139,11.6648176173339,1.00000000126609,0.428820393571458
5300.00000000175,11.6846931421851,1.00000000157141,0.507793954441832
5400.00000000211,11.6601328249627,1.00000000151277,0.549692857176012
5500.00000000248,11.6217442478553,1.00000000135967,0.543356809680399
5600.00000000284,11.5643452834128,1.00000000156669,0.564378027482162
5700.00000000321,11.4782549198863,1.00000000160263,0.557464210472023
5800.00000000357,11.3747394876262,1.00000000141305,0.547802729235468
5900.00000000393,11.2624591907993,1.00000000142819,0.570030705822036
6000.0000000043,11.1538792639688,1.00000000127493,0.557612654315801
6100.00000000466,11.0434822063451,1.00000000148525,0.570984373467034
6200.00000000502,10.9166483236695,1.00000000165765,0.57843298071657
6300.00000000539,10.7730908598763,1.00000000196623,0.580383143656591
6400.00000000575,10.6183141188872,1.00000000199817,0.590288579406215
6500.00000000612,10.4637986093556,1.00000000141548,0.563940124276883
6600.00000000648,10.3385531031477,1.0000000009728,0.483915370927038
6700.00000000684,10.2985522777201,1.00000000074434,0.41016549180275
6800.00000000721,10.3817785832888,1.00000000097234,0.401067968408891
6900.00000000757,10.5546882704449,1.00000000131116,0.428639860383847
7000.00000000793,10.7404868892434,1.00000000160936,0.478000880167155
7100.0000000083,10.8926490830964,1.00000000153047,0.512997900270979
7200.00000000866,11.0118319512874,1.00000000165031,0.551501566099106
7300.00000000903,11.1008691985601,1.00000000148365,0.557761562029821
7400.00000000939,11.1639809046005,1.0000000014791,0.572323111173637
7500.00000000975,11.1970241543068,1.00000000164346,0.589418568749031
7600.00000001012,11.194398702076,1.00000000160109,0.591113360963466
7700.00000001048,11.1714061387919,1.0000000014578,0.574808828966691
7800.00000001084,11.1419666507643,1.0000000016149,0.562173303582609
7900.00000001121,11.1089208067873,1.0000000016186,0.553924656587053
8000.00000001157,11.0689430194916,1.00000000160778,0.539143992713968
8100.00000001194,11.0247623322067,1.00000000151542,0.554061404947538
8200.0000000123,10.9767111206987,1.00000000145475,0.570030559177873
8300.00000001266,10.9323482425357,1.00000000146395,0.56346199952148
8400.00000001303,10.8873871669231,1.00000000150611,0.567927074191874
8500.00000001339,10.8437970856132,1.00000000148906,0.568582339364562
8600.00000001376,10.7926295635571,1.00000000166491,0.568390437877889
8700.00000001412,10.7334941663763,1.0000000015738,0.562609405599238
8800.00000001448,10.6631815682162,1.00000000175773,0.582640646820983
8900.00000001485,10.5831903896956,1.00000000150633,0.607667861911403
9000.00000001521,10.5016019089261,1.00000000126854,0.594694704810324
9100.00000001557,10.4216111247708,1.00000000138961,0.599805381054808
9200.00000001594,10.3374865840466,1.00000000159556,0.594878837845322
9300.0000000163,10.2478780472082,1.00000000188214,0.592222249218822
9400.00000001667,10.1558809150348,1.00000000192342,0.589971784829643
9500.00000001703,10.0655439323371,1.00000000204776,0.575787763237162
9600.00000001739,9.97610628564416,1.00000000201677,0.571652272055821
9700.00000001776,9.8823702668407,1.00000000180042,0.570371403704379
9800.00000001812,9.78417864312107,1.0000000013148,0.538700772937399
9900.00000001848,9.69922687497488,1.00000000106896,0.487203474477567
10000.0000000188,9.6660737260252,1.00000000096228,0.441160582705114
10100.0000000192,9.72442496605815,1.00000000079073,0.407109868420495
10200.0000000196,9.89260814766942,1.00000000110656,0.410548588275231
10300.0000000199,10.1528308136709,1.00000000114726,0.426177233834777
10400.0000000203,10.4564985546086,1.00000000165974,0.45122287555685
10500.0000000207,10.7603069347607,1.0000000016493,0.482230644973067
10600.000000021,11.0435308566191,1.00000000178989,0.509446689780363
10700.0000000214,11.2966929611043,1.00000000172321,0.527950016021673
10800.0000000218,11.5261683132182,1.00000000159044,0.548851717231574
10900.0000000221,11.7312818951183,1.00000000162775,0.567976408791691
11000.0000000225,11.9113352366821,1.00000000171797,0.585431430501145
11100.0000000229,12.0583071330803,1.00000000170193,0.593747967798819
11200.0000000232,12.1836260564584,1.00000000158708,0.60311184391074
11300.0000000236,12.2863076269117,1.0000000017208,0.622428941961996
11400.0000000239,12.3598002916429,1.00000000170011,0.622858897732695
11500.0000000243,12.4036176405141,1.00000000170187,0.626599770327727
11600.0000000247,12.4301751338102,1.00000000165148,0.62508462629742
11700.000000025,12.4436284664483,1.00000000152622,0.622175600481515
11800.0000000254,12.4503308882104,1.00000000158413,0.61306894337555
11900.0000000258,12.4500131686086,1.00000000173738,0.618838934421727
12000.0000000261,12.4340473741906,1.00000000178129,0.615240751449845
12100.0000000265,12.4147902056759,1.00000000150025,0.598691065161058
12200.0000000269,12.3904735930709,1.00000000175384,0.61721290497928
12300.0000000272,12.3538480793706,1.00000000166623,0.61033163385157
12400.0000000276,12.3105060950939,1.00000000166597,0.620780728857903
12500.0000000279,12.2619102377527,1.00000000165924,0.627568730264058
12600.0000000283,12.2069282710638,1.00000000178693,0.640332131231438
12700.0000000287,12.1480915782316,1.00000000156379,0.638792884354025
12800.000000029,12.0929133449703,1.00000000153848,0.620418498768062
12900.0000000294,12.0466179779704,1.00000000144883,0.603954672493023
13000.0000000298,12.0115055855998,1.00000000165056,0.602777874528203
13100.0000000301,11.981136019251,1.0000000017076,0.596339431230646
13200.0000000305,11.955128554785,1.00000000159791,0.608634629253078
13300.0000000309,11.9300188412076,1.00000000160919,0.607091797587018
13400.0000000312,11.9032169847573,1.00000000178576,0.611895094120978
13500.0000000316,11.8754817936186,1.00000000163048,0.617806821073419
13600.0000000319,11.8484572564888,1.00000000171486,0.610496269786407
13700.0000000323,11.8177483189104,1.00000000165252,0.601278021018108
13800.0000000327,11.7884590542864,1.00000000159661,0.611624398169502
13900.000000033,11.763168042444,1.00000000166418,0.597863748163518
14000.0000000334,11.7399486461902,1.00000000151448,0.579345351565981
14100.0000000338,11.7157805122944,1.00000000189369,0.577738117680447
14200.0000000341,11.6892883267133,1.00000000166878,0.578245613770839
14300.0000000345,11.6663678939333,1.0000000015703,0.57710313088771
14400.0000000349,11.643000456737,1.00000000174798,0.612268563539084
14500.0000000352,11.6182258907985,1.00000000168102,0.61602558934853
14600.0000000356,11.5949042593795,1.00000000165372,0.601939921830922
14700.0000000359,11.5712886549234,1.00000000173985,0.603482754810019
14800.0000000363,11.5467909568196,1.00000000161494,0.623301167065112
14900.0000000367,11.5274039956088,1.00000000166621,0.618704690791357
15000.000000037,11.5067710245749,1.00000000175544,0.626476893968372
15100.0000000374,11.4791636016903,1.00000000185103,0.63054389075934
15200.0000000378,11.452360086152,1.00000000156139,0.615703024830035
15300.0000000381,11.4299130933276,1.00000000164516,0.631689270485423
15400.0000000385,11.4004508675287,1.00000000173481,0.632893585510974
15500.0000000389,11.36484281602,1.00000000179948,0.60923120444038
15600.0000000392,11.3239142041597,1.00000000169761,0.607755343981091
15700.0000000396,11.2839920858276,1.00000000162448,0.625423311395855
15800.0000000399,11.2502967133708,1.00000000161072,0.631136585348994
15900.0000000403,11.2182827394227,1.00000000171013,0.635185040815313
16000.0000000407,11.1824548604125,1.00000000201771,0.635900793629463
16100.000000041,11.1431388068257,1.0000000017441,0.637561033759294
16200.0000000414,11.107550803658,1.0000000016197,0.621103134275229
16300.0000000418,11.0712842733017,1.00000000189099,0.642331363563291
16400.0000000418,11.0292276374822,1.00000000176553,0.631939026451442
16500.0000000404,10.9885061179088,1.00000000160642,0.632008269017447
16600.0000000389,10.9484491988002,1.00000000183733,0.630415515996093
16700.0000000375,10.9085831093306,1.0000000016145,0.623225036419127
16800.000000036,10.8694547118205,1.00000000182258,0.649270203881405
16900.0000000346,10.8273335907405,1.00000000180998,0.652965412780467
17000.0000000331,10.7820846399086,1.00000000181151,0.646155769321057
17100.0000000317,10.7342530157569,1.00000000168571,0.636510851118
17200.0000000302,10.6842482627013,1.00000000200096,0.642620169801908
17300.0000000287,10.6311871178556,1.00000000181273,0.635859832082017
17400.0000000273,10.5781448342127,1.00000000181484,0.641327686921256
17500.0000000258,10.5254468376474,1.00000000188515,0.652929951068764
17600.0000000244,10.4686773233608,1.00000000189843,0.65427932960182
17700.0000000229,10.4108855018013,1.00000000179866,0.64865013397164
17800.0000000215,10.3535407749885,1.00000000151602,0.624208407187523
17900.00000002,10.2969525453863,1.00000000188673,0.653303144187066
18000.0000000186,10.2403406614085,1.00000000174822,0.647912019816845
18100.0000000171,10.1849847370137,1.00000000145499,0.62231090916605
18200.0000000156,10.1311362666349,1.00000000164277,0.635005554190146
18300.0000000142,10.0802508505081,1.00000000168939,0.631459312548953
18400.0000000127,10.0329879048432,1.00000000176632,0.638008650642342
18500.0000000113,9.99146846965793,1.00000000192026,0.645849492278871
18600.0000000098,9.95844888590964,1.00000000186706,0.654144882881495
18700.0000000084,9.93381763788776,1.00000000203798,0.654325523317482
18800.0000000069,9.9247897627136,1.00000000210976,0.661534354001371
18900.0000000055,9.92326087873612,1.00000000222088,0.664289920745664
19000.000000004,9.94343209796959,1.00000000231262,0.656859681810667
19100.0000000026,9.96533399811955,1.0000000023235,0.64497440902388
19200.0000000011,10.0062223727718,1.00000000202539,0.624605360958928
19299.9999999996,10.0359847110893,1.00000000224839,0.616694452162956
19399.9999999982,10.0665293767781,1.00000000199095,0.605853044963312
19499.9999999967,10.0724892908981,1.00000000180415,0.596922540282677
19599.9999999953,10.0583801894679,1.00000000165563,0.57944593634757
19699.9999999938,10.0235935352251,1.00000000136031,0.552335529772785
19799.9999999924,9.97665746105754,1.00000000127494,0.524226771955404
19899.9999999909,9.93711494554717,1.00000000126216,0.501699594276267
19999.9999999895,9.92478222139713,1.00000000115019,0.474811930712484
20099.999999988,9.96467059584274,1.00000000103487,0.453523825538799
20199.9999999865,10.0758681986742,1.00000000115391,0.440334599540313
20299.9999999851,10.2794579117552,1.00000000123872,0.440716995272586
20399.9999999836,10.563475981433,1.00000000132056,0.445566888887596
20499.9999999822,10.953438757812,1.00000000144966,0.454831642601907
20599.9999999807,11.385100123396,1.000000001492,0.461754077631474
20699.9999999793,11.8926152721699,1.00000000171205,0.471570701128507
20799.9999999778,12.3933389874091,1.00000000174117,0.486421066106605
20899.9999999764,12.9260908920196,1.00000000199255,0.49019856330163
20999.9999999749,13.432708644152,1.00000000197636,0.506907965860944
21099.9999999734,13.9312812827723,1.00000000190275,0.508184006205101
21199.999999972,14.4131418733761,1.0000000019774,0.528499651836451
21299.9999999705,14.8638150857219,1.00000000201086,0.535486971001392
21399.9999999691,15.305494040795,1.00000000201651,0.54579742365402
21499.9999999676,15.7121291746908,1.0000000018141,0.554229219734382
21599.9999999662,16.1184013582868,1.00000000197149,0.563178804734663
21699.9999999647,16.5006220252026,1.00000000190207,0.575726956432396
21799.9999999633,16.8749885275093,1.00000000174569,0.579904671879377
21899.9999999618,17.2449689439774,1.00000000190808,0.585503681306385
21999.9999999603,17.5781120560321,1.00000000198891,0.59900873077264
22099.9999999589,17.9027771782718,1.00000000192003,0.609456882935975
22199.9999999574,18.2004634088855,1.00000000184962,0.619775477511797
22299.999999956,18.4897216220377,1.00000000230006,0.629461896850153
22399.9999999545,18.7399158056655,1.00000000181016,0.618303417071643
22499.9999999531,18.9684265776062,1.00000000202428,0.641280232526662
22599.9999999516,19.1740388274006,1.00000000198358,0.647355992296113
22699.9999999502,19.3592953822314,1.00000000195985,0.641278682722912
22799.9999999487,19.5331792702745,1.00000000192013,0.64027944791298
22899.9999999473,19.6806217450235,1.00000000192517,0.648212365308969
22999.9999999458,19.8170585844356,1.00000000177892,0.65066581280945
23099.9999999443,19.9300270716199,1.00000000197024,0.653491030961306
23199.9999999429,20.0332749531274,1.0000000019192,0.646149154574605
23299.9999999414,20.1197211030151,1.00000000192458,0.653299910941497
23399.99999994,20.1931029755443,1.00000000229119,0.64495388558722
23499.9999999385,20.257032774452,1.00000000212451,0.660927719917373
23599.9999999371,20.3127802680428,1.00000000170903,0.659197497124318
23699.9999999356,20.3725844813808,1.00000000177428,0.648591210639233
23799.9999999342,20.4216454836266,1.00000000204029,0.655767677240761
23899.9999999327,20.4547863896902,1.00000000222509,0.650663094989737
23999.9999999312,20.4676441454622,1.00000000193591,0.653703081402484
24099.9999999298,20.4746319194727,1.00000000188147,0.644109156422995
24199.9999999283,20.4858238826601,1.00000000179903,0.640555331540496
24299.9999999269,20.5005337237563,1.00000000173592,0.633313265126892
24399.9999999254,20.5174403639611,1.00000000188233,0.647793532011139
24499.999999924,20.5235965952119,1.00000000191273,0.654036454414913
24599.9999999225,20.5206835305091,1.00000000200509,0.640369407566572
24699.9999999211,20.5068391457761,1.00000000200338,0.622877992437463
24799.9999999196,20.4899035802085,1.00000000176,0.61262431515052
24899.9999999181,20.4716057031114,1.00000000165832,0.629343296483099
24999.9999999167,20.4545444178984,1.00000000193801,0.620067571515605
25099.9999999152,20.4403768471763,1.00000000179245,0.630063934205624
25199.9999999138,20.4176496057425,1.00000000206314,0.637781856017285
25299.9999999123,20.3874450270891,1.00000000185767,0.634543798925651
25399.9999999109,20.358799154253,1.00000000174532,0.631211600471874
25499.9999999094,20.3385197589189,1.00000000157159,0.627020161813531
25599.999999908,20.3241123265691,1.00000000197809,0.642151920536925
25699.9999999065,20.3015417301458,1.00000000202628,0.652577079839144
25799.9999999051,20.2721739253524,1.00000000203666,0.642556798755469
25899.9999999036,20.2368303669847,1.00000000189218,0.637348738585358
25999.9999999021,20.2007454515023,1.00000000196273,0.623717423375163
26099.9999999007,20.1665149744293,1.0000000018534,0.620834883149845
26199.9999998992,20.1314138060856,1.00000000204176,0.632269034978327
26299.9999998978,20.0976906217515,1.00000000163941,0.623113677943847
26399.9999998963,20.0737163380686,1.00000000171219,0.622016090720139
26499.9999998949,20.0521052515444,1.00000000234779,0.651150178630743
26599.9999998934,20.0250703235209,1.00000000195694,0.645593632175791
26699.999999892,19.9966735142131,1.00000000189871,0.642972240427826
26799.9999998905,19.9674425278462,1.00000000180807,0.64713726501648
26899.999999889,19.9449401029916,1.00000000156186,0.646275249986214
26999.9999998876,19.9195360202477,1.00000000233659,0.656399003473605
27099.9999998861,19.8844843802473,1.00000000213798,0.655812935206241
27199.9999998847,19.8473130170035,1.00000000182274,0.652798227532032
27299.9999998832,19.8141009223883,1.00000000192495,0.642382867651947
27399.9999998818,19.7842988097488,1.00000000195474,0.650011912771756
27499.9999998803,19.7538443507828,1.00000000195702,0.645492026765716
27599.9999998789,19.721936433311,1.00000000210036,0.64098821364218
27699.9999998774,19.6870644343169,1.00000000195676,0.633963746687914
27799.9999998759,19.6488226847316,1.00000000223336,0.634601140451077
27899.9999998745,19.6086950548927,1.00000000213722,0.647569414576828
27999.999999873,19.5680825616811,1.00000000214687,0.643990668128984
28099.9999998716,19.5263993897837,1.00000000188053,0.620304128802817
28199.9999998701,19.486188671283,1.00000000199903,0.606189903233789
28299.9999998687,19.4463596672151,1.00000000211107,0.62539512587795
28399.9999998672,19.4022398087518,1.00000000216152,0.639998857970123
28499.9999998658,19.3561427755877,1.00000000205152,0.624938794832846
28599.9999998643,19.3142883581045,1.00000000190617,0.598306711622079
28699.9999998629,19.2760435211596,1.00000000193928,0.60635246866856
28799.9999998614,19.2366771628663,1.00000000225407,0.636687517951202
28899.9999998599,19.1952515645787,1.00000000240334,0.640763094700459
28999.9999998585,19.1533151966772,1.00000000213957,0.636879439734111
29099.999999857,19.1147109453742,1.0000000017813,0.625784384804037
