Time,AGPnorm,Energy,Entropy
0,0,1,4.6182732096665e-18
99.9999999999986,0.00272982104640481,0.999999999998143,0.00934160988881313
199.999999999993,0.00797686356787431,0.999999999999672,0.0270101140702706
300,0.0167828788069027,0.999999999998727,0.0529533926513554
400.000000000022,0.0267640508061736,0.999999999999543,0.0844797314984376
500.000000000045,0.0383497196292323,0.999999999999765,0.124067893566951
600.000000000068,0.050704558933261,1.00000000000452,0.172765582609895
700.000000000091,0.0617354603354008,1.00000000003943,0.235518120630789
800.000000000113,0.0952265910501171,1.00000000016213,0.310096084679674
900.000000000136,0.189651913772047,1.00000000038947,0.385055979328185
1000.00000000016,0.56230909543884,1.00000000063873,0.446519346198415
1100.0000000001,1.39769317057233,1.00000000082255,0.491523325070998
1200,2.98516200402236,1.00000000097693,0.520724702925578
1299.99999999991,5.37656132998736,1.00000000100546,0.539436419191595
1399.99999999982,8.61748210085564,1.00000000113392,0.54831909097684
1499.99999999973,12.527128059114,1.00000000105751,0.552715410330272
1599.99999999964,16.9621417945767,1.00000000117222,0.551320332944988
1699.99999999955,21.6567102021005,1.0000000010349,0.548333430875443
1799.99999999946,26.4351301922861,1.00000000109562,0.543467903768802
1899.99999999937,31.0662655536937,1.0000000009169,0.53511024072986
1999.99999999928,35.4248436678395,1.00000000095875,0.530466433953234
2099.99999999919,39.3602202614331,1.0000000008518,0.518254669469035
2199.99999999909,42.8156284059993,1.00000000082371,0.517171389852197
2299.999999999,45.7366122429434,1.00000000074739,0.509364726628731
2399.99999999891,48.089740189739,1.00000000078819,0.489529456829769
2499.99999999882,49.9063778475935,1.00000000075401,0.512969136613479
2599.99999999873,51.2526808710723,1.00000000068688,0.501113059483387
2699.99999999864,52.0628345404241,1.00000000053562,0.451598451129002
2799.99999999855,52.4007984879963,1.00000000064493,0.502229683182532
2899.99999999846,52.5244118220535,1.00000000079271,0.536819109243342
2999.99999999837,52.3868474728377,1.00000000053455,0.450647905960896
3099.99999999828,51.82542724253,1.00000000037922,0.401930332874003
3199.99999999819,51.048822169161,1.00000000071165,0.511878701377032
3299.99999999809,50.3315891839615,1.00000000097397,0.561753236048085
3399.999999998,49.6446801895003,1.00000000065604,0.485863648367109
3499.99999999791,48.7521031970452,1.00000000026848,0.336457405690295
3599.99999999782,47.6584427129996,1.00000000040214,0.37675851539539
3699.99999999773,46.5512195696419,1.00000000079752,0.507014965775858
3799.99999999764,45.5663969778978,1.00000000100715,0.55643883038397
3899.99999999755,44.7180317934129,1.00000000086175,0.542153920078784
3999.99999999746,43.8823820177605,1.00000000056591,0.425491358257039
4099.99999999738,42.9520016185242,1.00000000025239,0.284734621920594
4199.99999999775,41.9805567836617,1.00000000034038,0.31682584739447
4299.99999999811,41.0304683195074,1.00000000071833,0.457990094499255
4399.99999999848,40.1092180774899,1.00000000082562,0.511731436721898
4499.99999999884,39.2423742857354,1.00000000089449,0.51110624863249
4599.9999999992,38.4546415877458,1.00000000089959,0.54978968069731
4699.99999999957,37.7309778564003,1.00000000076334,0.532845222666562
4799.99999999993,37.0108305977832,1.00000000043675,0.416962939342785
4900.00000000029,36.2911870097776,1.00000000025618,0.291001247702873
5000.00000000066,35.6450851697244,1.00000000030481,0.276806985708413
5100.00000000102,35.0945305317286,1.00000000050294,0.368533428160738
5200.00000000139,34.5663319295119,1.00000000073118,0.472120745285321
5300.00000000175,34.0028654592616,1.00000000082607,0.536369593877478
5400.00000000211,33.4281511972021,1.00000000062645,0.508364990041046
5500.00000000248,32.8677089715869,1.00000000057928,0.447021671045522
5600.00000000284,32.3081229677504,1.00000000082671,0.478521043255985
5700.00000000321,31.7452478097561,1.00000000096983,0.54517094345744
5800.00000000357,31.2061091515542,1.00000000091412,0.566569608231534
5900.00000000393,30.6928719880253,1.00000000071567,0.523543707729937
6000.0000000043,30.1971477263229,1.00000000043212,0.421024694589679
6100.00000000466,29.7625461751034,1.00000000022202,0.311995038097468
6200.00000000502,29.4693629659979,1.00000000024153,0.260778182149241
6300.00000000539,29.3405713385758,1.00000000041137,0.301697871110775
6400.00000000575,29.3140687425533,1.00000000059284,0.388704911648545
6500.00000000612,29.29407767092,1.00000000071502,0.470285588947027
6600.00000000648,29.2090569139807,1.00000000074888,0.508629897580991
6700.00000000684,29.0363655663889,1.00000000079838,0.512727987627099
6800.00000000721,28.7858883037872,1.00000000077605,0.529821311811777
6900.00000000757,28.4925674271238,1.000000000705,0.538849070335815
7000.00000000793,28.2022985207584,1.00000000054957,0.499716078753081
7100.0000000083,27.9446617298351,1.00000000044723,0.463234164974215
7200.00000000866,27.7016768442252,1.00000000060383,0.482562677928165
7300.00000000903,27.437949822608,1.00000000069837,0.502160867305663
7400.00000000939,27.1449119879647,1.00000000070075,0.501709390565969
7500.00000000975,26.8241283336591,1.00000000085508,0.509221516498308
7600.00000001012,26.4840668327455,1.00000000098198,0.541406168107585
7700.00000001048,26.1447053799615,1.00000000096489,0.56684558796202
7800.00000001084,25.8167685086588,1.00000000081758,0.559565601611533
7900.00000001121,25.4964856506397,1.00000000059674,0.509769393920578
8000.00000001157,25.1953999144678,1.00000000040138,0.427988345431326
8100.00000001194,24.964466880858,1.00000000023554,0.34473646031377
8200.0000000123,24.8777270414576,1.00000000020864,0.288540030230746
8300.00000001266,24.989008746678,1.0000000002614,0.272283789992884
8400.00000001303,25.293556400559,1.00000000039902,0.308867634240586
8500.00000001339,25.7297196427567,1.00000000053201,0.366251766596367
8600.00000001376,26.1945235754387,1.00000000069681,0.428194976416087
8700.00000001412,26.5979869193768,1.00000000076819,0.483610510327876
8800.00000001448,26.9086565215939,1.00000000075534,0.512421872685419
8900.00000001485,27.1243045286666,1.00000000077562,0.527377206036843
9000.00000001521,27.2501780032935,1.00000000075108,0.548701911484344
9100.00000001557,27.2975982870936,1.00000000070677,0.558981039829257
9200.00000001594,27.2949697474274,1.00000000060655,0.53786993634327
9300.0000000163,27.262011227677,1.00000000062687,0.513894560134331
9400.00000001667,27.197611900694,1.00000000069766,0.510584903385363
9500.00000001703,27.0879903419787,1.00000000078348,0.527185922214781
9600.00000001739,26.9392661051601,1.00000000070743,0.536829863588698
9700.00000001776,26.7840914004818,1.0000000005506,0.525023148549527
9800.00000001812,26.6483118734408,1.0000000005049,0.500127204695438
9900.00000001848,26.5317105191611,1.00000000059765,0.488239316308371
10000.0000000188,26.419801589702,1.00000000064737,0.490024031697891
10100.0000000192,26.3080341170036,1.00000000061415,0.50046338110837
10200.0000000196,26.1936459798566,1.00000000063587,0.5064938180665
10300.0000000199,26.0749091350257,1.00000000066146,0.515914253338203
10400.0000000203,25.947220431256,1.00000000066869,0.529576737641202
10500.0000000207,25.8047638502001,1.00000000067942,0.544226060338624
10600.000000021,25.653550042863,1.00000000057233,0.545221642778464
10700.0000000214,25.5007937638314,1.00000000055135,0.544058655390718
10800.0000000218,25.348351780517,1.00000000059148,0.540859641695926
10900.0000000221,25.1890159682222,1.00000000060244,0.540480113236154
11000.0000000225,25.0149753037948,1.00000000065849,0.546655396155376
11100.0000000229,24.8241656294722,1.00000000073156,0.546847989616183
11200.0000000232,24.6195519101236,1.00000000085747,0.554050853656583
11300.0000000236,24.4103218298468,1.00000000096831,0.555864032930517
11400.0000000239,24.2077582731827,1.00000000093784,0.563063135949335
11500.0000000243,24.0224182480805,1.00000000097315,0.572691892754128
11600.0000000247,23.8569292905642,1.00000000089189,0.575204425594972
11700.000000025,23.7006573615647,1.00000000080591,0.568632667551198
11800.0000000254,23.5368824235731,1.00000000063243,0.540293116623626
11900.0000000258,23.3553156877936,1.00000000048707,0.49400230408994
12000.0000000261,23.1671115624133,1.00000000034413,0.437286264791485
12100.0000000265,23.0074389465135,1.00000000028394,0.381397467853789
12200.0000000269,22.9278265385341,1.00000000019443,0.329207102139942
12300.0000000272,22.9862878162324,1.00000000019863,0.298604899305327
12400.0000000276,23.2261651914352,1.00000000024665,0.289881754442842
12500.0000000279,23.6722950271597,1.00000000024459,0.29064597805194
12600.0000000283,24.3146660302907,1.00000000040594,0.314562404716438
12700.0000000287,25.0911395647463,1.00000000050845,0.355066258253188
12800.000000029,25.9425837120342,1.00000000060878,0.394615020340519
12900.0000000294,26.7997090823441,1.0000000007503,0.435146250742155
13000.0000000298,27.5973306292181,1.00000000080475,0.47130285126357
13100.0000000301,28.3119687884998,1.00000000079032,0.498608305074994
13200.0000000305,28.9378353676062,1.00000000078456,0.51358321353036
13300.0000000309,29.4738451279369,1.00000000073629,0.533470165075061
13400.0000000312,29.9214446402264,1.00000000074065,0.555426572171443
13500.0000000316,30.2872410764093,1.00000000070564,0.566214878814449
13600.0000000319,30.5806039457369,1.00000000071868,0.559004777797985
13700.0000000323,30.8144180043221,1.00000000064807,0.553125160738703
13800.0000000327,30.9997172783939,1.00000000070131,0.56098688761508
13900.000000033,31.1341240400603,1.00000000068308,0.579168090202143
14000.0000000334,31.2181323860219,1.00000000068035,0.581276664020681
14100.0000000338,31.2621106071554,1.00000000068111,0.5702276799725
14200.0000000341,31.2731310695722,1.00000000068559,0.556256959417094
14300.0000000345,31.253515594667,1.00000000069041,0.544470371139018
14400.0000000349,31.2172051152668,1.00000000061102,0.53450391030657
14500.0000000352,31.173114740926,1.00000000067034,0.538877275955585
14600.0000000356,31.1116841302964,1.00000000066965,0.548844165732329
14700.0000000359,31.0329322249889,1.00000000064161,0.549830284814535
14800.0000000363,30.9433858641486,1.00000000060625,0.560168068086806
14900.0000000367,30.843309241198,1.00000000068543,0.56316606739262
15000.000000037,30.7302135086504,1.0000000007006,0.560894632651418
15100.0000000374,30.6081515082371,1.0000000006565,0.557620683605532
15200.0000000378,30.4810891192732,1.00000000065409,0.556473500330399
15300.0000000381,30.3541745963131,1.00000000059634,0.54421439701075
15400.0000000385,30.2340916670933,1.00000000051573,0.537939891697083
15500.0000000389,30.1202415622995,1.00000000062505,0.535177247218805
15600.0000000392,30.0044984565601,1.00000000066061,0.536648058209514
15700.0000000396,29.8818274896695,1.00000000067058,0.543252964825399
15800.0000000399,29.7532825934218,1.00000000074213,0.547344318627939
15900.0000000403,29.6172070112724,1.0000000007481,0.558808703313252
16000.0000000407,29.472234524122,1.00000000072919,0.564819557660653
16100.000000041,29.324909690251,1.00000000063883,0.560900350075961
16200.0000000414,29.182223480065,1.00000000061394,0.553229989972353
16300.0000000418,29.0505489025505,1.00000000057498,0.546480301849078
16400.0000000418,28.9350630227419,1.00000000054656,0.532187132938754
16500.0000000404,28.8382443725885,1.00000000055931,0.522614834651083
16600.0000000389,28.760812859795,1.0000000005511,0.505817383084285
16700.0000000375,28.6954828659168,1.00000000067132,0.496683529769778
16800.000000036,28.6310118726615,1.00000000066079,0.499803120055606
16900.0000000346,28.5676878388082,1.00000000065078,0.507000160552409
17000.0000000331,28.5130663130722,1.00000000058152,0.508941318116066
17100.0000000317,28.4657498780279,1.0000000006176,0.524457159998302
17200.0000000302,28.4205491543488,1.00000000061443,0.544819192368646
17300.0000000287,28.3744293490893,1.0000000006384,0.557599255517263
17400.0000000273,28.3203992133394,1.00000000070898,0.560975905169316
17500.0000000258,28.2542744539406,1.00000000067581,0.549750074453472
17600.0000000244,28.1819387076667,1.0000000006306,0.542580730878045
17700.0000000229,28.1112664905145,1.00000000058949,0.5446568085639
17800.0000000215,28.0407515639939,1.00000000062523,0.555193082120378
17900.00000002,27.9653778116839,1.00000000071652,0.563268203360094
18000.0000000186,27.8858162008323,1.00000000065532,0.57987712672166
18100.0000000171,27.8065305599566,1.00000000064354,0.580461523945903
18200.0000000156,27.7242136833331,1.00000000067581,0.587178198992932
18300.0000000142,27.6338000391682,1.00000000073675,0.587624707901293
18400.0000000127,27.5364278326421,1.00000000066069,0.587313081445994
18500.0000000113,27.4324904386744,1.00000000072142,0.586301603921469
18600.0000000098,27.3235331342768,1.00000000071515,0.592328885751787
18700.0000000084,27.2140004853532,1.00000000060747,0.589670873723265
18800.0000000069,27.1099963519487,1.00000000054955,0.576481540579841
18900.0000000055,27.0096720472579,1.00000000065494,0.572867111967837
19000.000000004,26.9061919167523,1.00000000070307,0.571955440116551
19100.0000000026,26.7999766173234,1.00000000068414,0.559418596604939
19200.0000000011,26.695642493781,1.00000000059098,0.558854980887211
19299.9999999996,26.5950998675135,1.00000000059744,0.567776568559574
19399.9999999982,26.4950483087275,1.00000000065484,0.57067820740834
19499.9999999967,26.3949499572138,1.0000000006318,0.572970985250251
19599.9999999953,26.2961118728977,1.00000000061651,0.575247959230464
19699.9999999938,26.1993048923021,1.00000000063991,0.578689859950832
19799.9999999924,26.102442202627,1.00000000065502,0.56668709006547
19899.9999999909,26.0011481831397,1.00000000074909,0.576378821029834
19999.9999999895,25.8946097839588,1.00000000075812,0.578967887630438
20099.999999988,25.7845961080964,1.00000000066165,0.56682835487028
20199.9999999865,25.6732840827144,1.00000000064636,0.562953539057413
20299.9999999851,25.5597687385133,1.00000000071987,0.5753042397355
20399.9999999836,25.4434584664776,1.00000000070031,0.59598805149139
20499.9999999822,25.325107917061,1.00000000070826,0.603009668588949
20599.9999999807,25.2068253849823,1.00000000066258,0.595488552676012
20699.9999999793,25.0903470998482,1.00000000055224,0.583232222021546
20799.9999999778,24.9755829501218,1.00000000060443,0.586282421870078
20899.9999999764,24.8597512335124,1.00000000070024,0.593811404244185
20999.9999999749,24.7426515521382,1.00000000072246,0.605854984880965
21099.9999999734,24.6262946825668,1.00000000065141,0.601035338723741
21199.999999972,24.5109490754189,1.00000000053362,0.575730413673606
21299.9999999705,24.3967541476343,1.00000000056066,0.579881453268387
21399.9999999691,24.2833938238647,1.00000000058578,0.592161253154793
21499.9999999676,24.1710481490102,1.0000000005593,0.591906151773281
21599.9999999662,24.0599308284743,1.00000000056474,0.587294802679613
21699.9999999647,23.9505044849611,1.00000000060472,0.58558006312035
21799.9999999633,23.8430579569504,1.00000000060485,0.596670117855755
21899.9999999618,23.739348435721,1.0000000006682,0.594882748489449
21999.9999999603,23.6408565203999,1.00000000070035,0.586555648848257
22099.9999999589,23.5505183470341,1.00000000074607,0.595431859188315
22199.9999999574,23.4723654211148,1.00000000074733,0.60347218482545
22299.999999956,23.4096966353045,1.00000000080108,0.602214842894514
22399.9999999545,23.370960982239,1.00000000081604,0.601737481172539
22499.9999999531,23.3559958215235,1.00000000087021,0.609862423794751
22599.9999999516,23.3783407249417,1.00000000091999,0.613530262709134
22699.9999999502,23.4353092857795,1.0000000009356,0.618114753463934
22799.9999999487,23.5417696338459,1.00000000093561,0.623989145682597
22899.9999999473,23.6879002673865,1.00000000092525,0.620888877448108
22999.9999999458,23.8834363871831,1.0000000009383,0.617038932294114
23099.9999999443,24.1202525527505,1.000000000932,0.610215948326959
23199.9999999429,24.3956986964774,1.00000000096821,0.602132645038965
23299.9999999414,24.6943922201317,1.00000000090629,0.592158814910435
23399.99999994,24.9915596885781,1.00000000080062,0.5857107033104
23499.9999999385,25.2705137802785,1.00000000076155,0.574110164899033
23599.9999999371,25.5041569517374,1.00000000063879,0.556694832823542
23699.9999999356,25.6820739626916,1.0000000005796,0.531358085520634
23799.9999999342,25.7915372233771,1.00000000048087,0.505457740817072
23899.9999999327,25.8312546322618,1.00000000044694,0.47716808231715
23999.9999999312,25.814188094415,1.00000000036243,0.444498060941529
24099.9999999298,25.7448165246009,1.00000000030751,0.414250296417152
24199.9999999283,25.6582086024545,1.00000000027237,0.386894443990888
24299.9999999269,25.5688135709647,1.00000000024628,0.360063176267061
24399.9999999254,25.5178230788431,1.00000000022186,0.336810166233338
24499.999999924,25.5320604050091,1.00000000020622,0.315694744715131
24599.9999999225,25.6467396948932,1.00000000020054,0.301636758852741
24699.9999999211,25.8932039087897,1.00000000020371,0.291840305558323
24799.9999999196,26.2965185969441,1.00000000021181,0.290029947810443
24899.9999999181,26.8697991878719,1.00000000023115,0.292741857076485
24999.9999999167,27.6329830633222,1.00000000028128,0.304379811085857
25099.9999999152,28.5601682148305,1.00000000034782,0.311284368762754
25199.9999999138,29.6745727309421,1.00000000043893,0.325956813659794
25299.9999999123,30.9020315620814,1.00000000045873,0.344863964761791
25399.9999999109,32.2768380251777,1.00000000052325,0.360925315745864
25499.9999999094,33.698867392268,1.00000000065604,0.383362432682047
25599.999999908,35.1843342789256,1.00000000065525,0.398784435879799
25699.9999999065,36.6698230758694,1.00000000073555,0.414977118368316
25799.9999999051,38.1402140637034,1.00000000084954,0.429008430249528
25899.9999999036,39.5749934981459,1.0000000008009,0.452735237263324
25999.9999999021,40.9502059758208,1.00000000081181,0.46293783076518
26099.9999999007,42.2731333497516,1.00000000086961,0.472529885367685
26199.9999998992,43.5051022290065,1.00000000081052,0.487424289525529
26299.9999998978,44.6735391252308,1.00000000078309,0.506047201845804
26399.9999998963,45.7604565212471,1.00000000079434,0.516646541781984
26499.9999998949,46.7778092564485,1.00000000077916,0.518111909848494
26599.9999998934,47.7203567671094,1.00000000076798,0.529104859708908
26699.999999892,48.5827354403262,1.00000000078089,0.540751101932976
26799.9999998905,49.3872762347504,1.00000000069835,0.551337506547742
26899.999999889,50.1199521049371,1.00000000074588,0.558892907836624
26999.9999998876,50.8045508046655,1.00000000073647,0.563403374940872
27099.9999998861,51.421595664255,1.00000000072096,0.562841681084467
27199.9999998847,51.9892686402202,1.00000000072342,0.568460936354198
27299.9999998832,52.4960969052694,1.00000000072145,0.583651345595606
27399.9999998818,52.9477208672043,1.00000000075717,0.590313173543246
27499.9999998803,53.3563920112966,1.00000000073845,0.593713254379348
27599.9999998789,53.7199159074236,1.00000000069894,0.584920407215636
27699.9999998774,54.0535059395296,1.00000000073249,0.583210867957423
27799.9999998759,54.3339676861532,1.00000000075091,0.594052088747048
27899.9999998745,54.5698443889148,1.00000000078394,0.607995001064195
27999.999999873,54.7549144794873,1.00000000072462,0.615161345902438
28099.9999998716,54.9126774452768,1.00000000067262,0.613095676422861
28199.9999998701,55.0482701086416,1.00000000062904,0.594289952818941
28299.9999998687,55.1673179603774,1.00000000066708,0.586310014396109
28399.9999998672,55.2617122864976,1.00000000073026,0.59211347227364
28499.9999998658,55.3158767329988,1.00000000084747,0.600978695261579
28599.9999998643,55.339262289507,1.00000000076297,0.602321618686915
28699.9999998629,55.3408408822559,1.00000000064224,0.600771444482339
28799.9999998614,55.3380174766626,1.00000000068732,0.595366164241538
28899.9999998599,55.3243432042642,1.00000000068533,0.591693905690788
28999.9999998585,55.3025638982105,1.00000000073718,0.592236541586309
