Time,AGPnorm,Energy,Entropy
0,0,1,-1.26535346900689e-17
99.9999999999986,2.37624044896503e-05,1.0000000000022,0.00102545905912511
199.999999999993,0.0020815653816865,0.999999999999848,0.00162144604471157
300,0.00526122869394023,1.00000000000132,0.00290839579478444
400.000000000022,0.00733785091221419,1.00000000000144,0.00490261917781526
500.000000000045,0.00896413404268185,0.999999999999709,0.00664673998829554
600.000000000068,0.0127265811895645,1.00000000000223,0.00925118764394419
700.000000000091,0.015785105765668,1.00000000000009,0.0117986909427031
800.000000000113,0.0202378342512942,1.00000000000094,0.0146310390344425
900.000000000136,0.0252251594637627,1.0000000000018,0.017903410599652
1000.00000000016,0.0294958594133962,0.999999999999507,0.0210937943269308
1100.0000000001,0.0353584085414967,1.00000000000215,0.0247639511621883
1200,0.0415081567646068,1.00000000000046,0.0285005743096156
1299.99999999991,0.047740871215179,1.00000000000051,0.0324707215203103
1399.99999999982,0.054400882191507,1.00000000000207,0.0367326366184507
1499.99999999973,0.0611198719874057,0.99999999999948,0.0410229145762346
1599.99999999964,0.0688888417119217,1.00000000000195,0.0456820350361545
1699.99999999955,0.0771073724038883,1.00000000000087,0.0504573148675655
1799.99999999946,0.0848788284375118,1.00000000000005,0.0554675626143125
1899.99999999937,0.0929540021695976,1.00000000000226,0.0607242728970184
1999.99999999928,0.101529492168109,0.999999999999665,0.0660913720553808
2099.99999999919,0.110535486295456,1.0000000000016,0.0718609343913402
2199.99999999909,0.119794401205622,1.00000000000126,0.0777610410458496
2299.999999999,0.128802779354541,0.999999999999668,0.0839467163714055
2399.99999999891,0.137984848366054,1.00000000000235,0.0904423910805894
2499.99999999882,0.147806840851925,0.999999999999968,0.0971465491434912
2599.99999999873,0.157352303445574,1.00000000000118,0.104357144537479
2699.99999999864,0.166933492264027,1.00000000000164,0.111791026637484
2799.99999999855,0.176667861865402,0.999999999999485,0.119656181189206
2899.99999999846,0.186467971106528,1.00000000000234,0.128079899327213
2999.99999999837,0.196702629326672,1.00000000000041,0.136947184135197
3099.99999999828,0.206316422802967,1.00000000000107,0.146595076390108
3199.99999999819,0.215900248975304,1.00000000000285,0.156906048353768
3299.99999999809,0.22560376588895,1.00000000000201,0.168099371645891
3399.999999998,0.235864340917308,1.00000000000727,0.180469380675408
3499.99999999791,0.245218308913254,1.00000000001158,0.193694016423665
3599.99999999782,0.254976759451881,1.00000000002038,0.20792243465061
3699.99999999773,0.266203745589785,1.00000000003687,0.22273173084431
3799.99999999764,0.275292501846006,1.00000000005476,0.237875550019706
3899.99999999755,0.292384250501113,1.0000000000806,0.253316733848287
3999.99999999746,0.308876876096437,1.00000000010486,0.268510968474657
4099.99999999738,0.334113506549208,1.00000000013352,0.283545230023421
4199.99999999775,0.378372045583523,1.00000000016929,0.298277794132997
4299.99999999811,0.430721127982507,1.00000000020307,0.312613439792661
4399.99999999848,0.521585563738436,1.00000000024175,0.326704362449335
4499.99999999884,0.643781713957523,1.00000000028285,0.340163306503976
4599.9999999992,0.811925753215342,1.00000000031873,0.353357258867275
4699.99999999957,1.05153296109367,1.00000000035667,0.366184740613115
4799.99999999993,1.35279591194095,1.00000000038344,0.378415159320259
4900.00000000029,1.75389789178121,1.00000000041153,0.39039059012328
5000.00000000066,2.25723264424265,1.00000000044776,0.401593658856906
5100.00000000102,2.87703113078579,1.00000000048874,0.412529672056808
5200.00000000139,3.64007433360403,1.000000000517,0.423063641814163
5300.00000000175,4.5454649347149,1.00000000054852,0.432840128940556
5400.00000000211,5.6221443735439,1.00000000055734,0.442548149633994
5500.00000000248,6.87241752461923,1.0000000005972,0.451563700395843
5600.00000000284,8.31374981789451,1.00000000061936,0.46014809354949
5700.00000000321,9.95586648396268,1.00000000062333,0.468652897734161
5800.00000000357,11.804134896336,1.00000000065682,0.476103171067333
5900.00000000393,13.8770583326524,1.00000000066328,0.48357059231792
6000.0000000043,16.1611835545199,1.00000000068623,0.490581442896431
6100.00000000466,18.6826186502053,1.00000000071783,0.496894280880673
6200.00000000502,21.4291477366576,1.00000000069205,0.503538946623117
6300.00000000539,24.4002139603407,1.00000000072796,0.509075279976146
6400.00000000575,27.6165964829474,1.00000000073219,0.514575006924995
6500.00000000612,31.0397278299847,1.00000000073155,0.519948050898875
6600.00000000648,34.7023320416901,1.00000000073864,0.524477204866418
6700.00000000684,38.5812312482432,1.00000000074746,0.5292216820906
6800.00000000721,42.6579952640508,1.0000000007534,0.533449512367245
6900.00000000757,46.9653526688243,1.00000000075108,0.537287637250924
7000.00000000793,51.4441003803565,1.00000000075602,0.54136616339376
7100.0000000083,56.1231408875369,1.00000000073355,0.544483138633195
7200.00000000866,60.9858406190057,1.00000000075457,0.547760610563589
7300.00000000903,65.9900292539615,1.00000000075199,0.550912216081259
7400.00000000939,71.180447992524,1.00000000076439,0.553410571134775
7500.00000000975,76.4917252342955,1.00000000073198,0.556395122774206
7600.00000001012,81.9379205848752,1.00000000074129,0.558438068499281
7700.00000001048,87.5203775327153,1.00000000072859,0.560708858496064
7800.00000001084,93.1767034479621,1.00000000077157,0.562882001036266
7900.00000001121,98.9566646897937,1.00000000076446,0.56429710715254
8000.00000001157,104.803410477473,1.00000000074114,0.56626317826596
8100.00000001194,110.710150028128,1.00000000071172,0.567962656165666
8200.0000000123,116.698819446901,1.00000000073989,0.569050386291174
8300.00000001266,122.697225904986,1.0000000007159,0.57078377230328
8400.00000001303,128.750218089293,1.00000000071441,0.571393515924065
8500.00000001339,134.818986299103,1.00000000072691,0.57270754133096
8600.00000001376,140.877408999914,1.00000000070119,0.573874707367774
8700.00000001412,146.961972590386,1.00000000069783,0.574055986283004
8800.00000001448,153.002641125755,1.00000000070102,0.575337276420631
8900.00000001485,159.032803358521,1.00000000069467,0.575490534853639
9000.00000001521,165.033018805145,1.00000000070378,0.576069059884324
9100.00000001557,170.965835213914,1.00000000067821,0.576951787340578
9200.00000001594,176.872344899289,1.00000000065257,0.576745645980804
9300.0000000163,182.694994117185,1.00000000066998,0.57761529924304
9400.00000001667,188.451041905573,1.00000000065415,0.577478321378408
9500.00000001703,194.140820476218,1.00000000065472,0.577773496298703
9600.00000001739,199.719385624631,1.00000000062691,0.577913547844474
9700.00000001776,205.228255558896,1.00000000063479,0.577898485573131
9800.00000001812,210.625070967253,1.00000000062393,0.577697969843483
9900.00000001848,215.912587408272,1.00000000062107,0.577981134161469
10000.0000000188,221.106725588319,1.00000000061151,0.577787290994151
10100.0000000192,226.160585934639,1.00000000058232,0.577526120548763
10200.0000000196,231.111857481278,1.00000000061631,0.577958053377079
10300.0000000199,235.933389249889,1.00000000059566,0.576891014464617
10400.0000000203,240.6160974728,1.00000000058093,0.577584151961981
10500.0000000207,245.186724105605,1.00000000060183,0.576976606745214
10600.000000021,249.601449636523,1.00000000057614,0.576186077558587
10700.0000000214,253.891020994574,1.00000000057223,0.576913450230104
10800.0000000218,258.042644908123,1.00000000055784,0.57573124845322
10900.0000000221,262.040953087394,1.0000000005573,0.575571062970469
11000.0000000225,265.912829587611,1.00000000055216,0.575763152597946
11100.0000000229,269.626052035998,1.00000000053775,0.574817351047498
11200.0000000232,273.200377190914,1.00000000053736,0.574481425929906
11300.0000000236,276.632971426205,1.00000000053119,0.574545985860766
11400.0000000239,279.908408089573,1.00000000052058,0.57373522274015
11500.0000000243,283.050586062973,1.00000000051992,0.573202031088632
11600.0000000247,286.036275688471,1.00000000051273,0.573475722981482
11700.000000025,288.88031503406,1.00000000050809,0.572561403524563
11800.0000000254,291.58298637369,1.00000000049532,0.572195522193118
11900.0000000258,294.13136804823,1.00000000051093,0.572109089044741
12000.0000000261,296.54831998193,1.00000000048758,0.570828793804522
12100.0000000265,298.815573982366,1.00000000048806,0.571102904861039
12200.0000000269,300.943647621863,1.00000000046181,0.571048267412316
12300.0000000272,302.939041171409,1.00000000046803,0.569476811656872
12400.0000000276,304.78664884284,1.00000000046414,0.569856488031838
12500.0000000279,306.508931087741,1.00000000047866,0.569909945804381
12600.0000000283,308.093673640618,1.00000000045528,0.569839854514617
12700.0000000287,309.54719564472,1.00000000045822,0.568601312131309
12800.000000029,310.877639887836,1.0000000004328,0.566832857665069
12900.0000000294,312.072035703444,1.00000000043644,0.568543876593453
13000.0000000298,313.151171458603,1.00000000043438,0.570489407637641
13100.0000000301,314.110319872893,1.00000000044156,0.567977758134881
13200.0000000305,314.947533937655,1.00000000040893,0.564897518270396
13300.0000000309,315.671340158597,1.00000000041662,0.565408589665387
13400.0000000312,316.276424093482,1.00000000042701,0.570037318672295
13500.0000000316,316.783723749736,1.00000000042493,0.570382602066709
13600.0000000319,317.189296585853,1.00000000041738,0.564680527002142
13700.0000000323,317.485307440654,1.00000000038658,0.560270121489162
13800.0000000327,317.679774640708,1.00000000039091,0.563853341292913
13900.000000033,317.777524276561,1.00000000042821,0.572308818350399
14000.0000000334,317.801075094269,1.00000000042592,0.570468003137506
14100.0000000338,317.743578720775,1.00000000039297,0.560369331890531
14200.0000000341,317.589372476751,1.00000000037233,0.554039662067245
14300.0000000345,317.347130420942,1.00000000038574,0.561129058351403
14400.0000000349,317.030512285794,1.00000000043539,0.573259145420979
14500.0000000352,316.661943494203,1.00000000045208,0.572145986662144
14600.0000000356,316.23765267086,1.00000000039497,0.558415181906653
14700.0000000359,315.732952682107,1.00000000033889,0.54789940598324
14800.0000000363,315.150202295749,1.00000000036065,0.551360880571398
14900.0000000367,314.504691892301,1.00000000042656,0.5698801526144
15000.000000037,313.827499382213,1.00000000048722,0.577476215530034
15100.0000000374,313.122464371394,1.00000000042968,0.562304368620284
15200.0000000378,312.362567738648,1.0000000003657,0.545155719536698
15300.0000000381,311.536475425657,1.00000000030899,0.535280647099224
15400.0000000385,310.645385377715,1.00000000039128,0.553863831501732
15500.0000000389,309.727031539997,1.00000000048648,0.576600084444474
15600.0000000392,308.803437953294,1.00000000050999,0.576598663085137
15700.0000000396,307.861853125887,1.00000000041389,0.554147986036906
15800.0000000399,306.879015654099,1.00000000032834,0.531407425901125
15900.0000000403,305.834856690912,1.00000000030861,0.524441397912804
16000.0000000407,304.744648764967,1.00000000039245,0.549198681950849
16100.000000041,303.643717494445,1.0000000005104,0.577568600791514
16200.0000000414,302.548798356847,1.0000000005372,0.577700686526599
16300.0000000418,301.457238887815,1.00000000045485,0.554689565659698
16400.0000000418,300.338158193126,1.00000000034211,0.525215162792153
16500.0000000404,299.172112037682,1.00000000027778,0.510886150804941
16600.0000000389,297.963241648535,1.0000000003541,0.528114670296942
16700.0000000375,296.738284341776,1.00000000049458,0.566852604136908
16800.000000036,295.529012860443,1.00000000055893,0.583015896579682
16900.0000000346,294.337209178672,1.00000000052544,0.567698262597853
17000.0000000331,293.144937978088,1.00000000041357,0.535427677713399
17100.0000000317,291.928029266331,1.00000000030388,0.507788220943589
17200.0000000302,290.670739629128,1.00000000028967,0.501928866507553
17300.0000000287,289.387428801848,1.00000000037034,0.526767852411021
17400.0000000273,288.101361679522,1.00000000051408,0.566271697015098
17500.0000000258,286.834854117048,1.00000000058938,0.583193034810439
17600.0000000244,285.59343626738,1.00000000056204,0.56700923805525
17700.0000000229,284.357131397952,1.00000000040752,0.532582945997797
17800.0000000215,283.108035046965,1.00000000032683,0.504396005536858
17900.00000002,281.832250054646,1.0000000002963,0.494096800185441
18000.0000000186,280.532940608892,1.00000000034721,0.509274580156297
18100.0000000171,279.229061197532,1.00000000044937,0.544939757461555
18200.0000000156,277.938087681338,1.00000000056788,0.575115864373199
18300.0000000142,276.672137130113,1.0000000005634,0.57567862222417
18400.0000000127,275.425924645517,1.00000000050379,0.550274325158929
18500.0000000113,274.182590069432,1.00000000039924,0.51706914044614
18600.0000000098,272.93074377977,1.00000000032403,0.495562045470827
18700.0000000084,271.661055360351,1.0000000003135,0.492962059733816
18800.0000000069,270.380246731063,1.00000000035738,0.507730933696716
18900.0000000055,269.098423443838,1.0000000004482,0.534887060010285
19000.000000004,267.828077168785,1.00000000053989,0.563063553060035
19100.0000000026,266.578927027959,1.00000000057196,0.570099993093308
19200.0000000011,265.34873808821,1.00000000052387,0.553058264866394
19299.9999999996,264.128990770747,1.00000000044537,0.523829525826457
19399.9999999982,262.91008224387,1.00000000036177,0.500194367805974
19499.9999999967,261.684482550104,1.00000000033561,0.493814954048899
19599.9999999953,260.454260072084,1.00000000034747,0.499626066177639
19699.9999999938,259.220835158722,1.00000000036242,0.510809311359475
19799.9999999924,257.991911775885,1.00000000044728,0.530064146997122
19899.9999999909,256.775008311196,1.00000000052065,0.550329037780468
19999.9999999895,255.573510768622,1.00000000054975,0.558734042941941
20099.999999988,254.387777424105,1.00000000050378,0.544993843215701
20199.9999999865,253.212874076608,1.00000000046595,0.525160205780812
20299.9999999851,252.043147840071,1.00000000040177,0.507189260200028
20399.9999999836,250.876226816602,1.00000000037149,0.500050312540289
20499.9999999822,249.709639817195,1.00000000035346,0.500681748230279
20599.9999999807,248.545730861483,1.00000000038049,0.505794125690703
20699.9999999793,247.385115677286,1.00000000041342,0.514158209416173
20799.9999999778,246.231563441593,1.00000000045431,0.525079064363612
20899.9999999764,245.088561021877,1.00000000050218,0.534832156127331
20999.9999999749,243.956989502639,1.00000000051168,0.542051502072913
21099.9999999734,242.837041874801,1.00000000049131,0.538004433399982
21199.999999972,241.72755418723,1.00000000046233,0.527618035023823
21299.9999999705,240.625749800662,1.00000000041455,0.51626934926921
21399.9999999691,239.531089026611,1.00000000041123,0.508885853824438
21499.9999999676,238.441820648213,1.00000000037063,0.506591013934471
21599.9999999662,237.358875968581,1.00000000038487,0.510039724971682
21699.9999999647,236.281733971373,1.00000000038877,0.510571219605547
21799.9999999633,235.211119400364,1.00000000040129,0.511375755079522
21899.9999999618,234.148426516835,1.00000000043548,0.514181102604549
21999.9999999603,233.094194779564,1.00000000046685,0.520893282151079
22099.9999999589,232.049270300944,1.00000000047962,0.529030423279751
22199.9999999574,231.014042876265,1.00000000048387,0.533437115328493
22299.999999956,229.987458943907,1.00000000044296,0.530940725915039
22399.9999999545,228.969676926589,1.00000000043661,0.523892679896113
22499.9999999531,227.959906856293,1.00000000041276,0.519037597159693
22599.9999999516,226.958549498453,1.00000000041155,0.520898076108254
22699.9999999502,225.965603490753,1.00000000039622,0.519501388861513
22799.9999999487,224.980998384503,1.00000000039531,0.516276027235019
22899.9999999473,224.004823549184,1.00000000037637,0.509800715877296
22999.9999999458,223.036485850561,1.00000000037509,0.50389427825454
23099.9999999443,222.07671607373,1.00000000039394,0.50513803232765
23199.9999999429,221.125715824713,1.00000000041728,0.508979814969415
23299.9999999414,220.18309490912,1.00000000046167,0.519525476317379
23399.99999994,219.248654804997,1.00000000047401,0.524522192947579
23499.9999999385,218.322118300189,1.00000000046578,0.530972133225398
23599.9999999371,217.40339740566,1.00000000043871,0.531138172529541
23699.9999999356,216.492988059434,1.00000000041223,0.525365195319711
23799.9999999342,215.590603215476,1.00000000043568,0.526568308199237
23899.9999999327,214.696482529398,1.00000000044285,0.53213221995673
23999.9999999312,213.810649041218,1.00000000044869,0.531572041194675
24099.9999999298,212.934091805413,1.00000000041366,0.523239172382853
24199.9999999283,212.067143026476,1.00000000036035,0.512670298608481
24299.9999999269,211.210602120276,1.00000000034106,0.497410915503741
24399.9999999254,210.365052213051,1.00000000033524,0.491834705702143
24499.999999924,209.529734180621,1.00000000038558,0.494982571594401
24599.9999999225,208.703488147881,1.00000000044071,0.506147924261995
24699.9999999211,207.884853085502,1.00000000047557,0.514453969130758
24799.9999999196,207.072339290706,1.00000000048921,0.522212211242824
24899.9999999181,206.265654505682,1.00000000045219,0.526660181188585
24999.9999999167,205.465803013218,1.00000000043053,0.529084383116664
25099.9999999152,204.673490624574,1.00000000040966,0.527254610922598
25199.9999999138,203.88862819714,1.00000000042753,0.525899956126393
25299.9999999123,203.110110315103,1.00000000046634,0.536503005368627
25399.9999999109,202.337389610506,1.00000000047482,0.542913173142845
25499.9999999094,201.570948759164,1.00000000046247,0.53574242043178
25599.999999908,200.81312598538,1.00000000040496,0.521662675920078
25699.9999999065,200.066035418067,1.00000000035346,0.506706274680442
25799.9999999051,199.332127089705,1.00000000030466,0.488073969463387
25899.9999999036,198.612695984987,1.00000000032041,0.479362090359898
25999.9999999021,197.905936167633,1.00000000037897,0.483858859687483
26099.9999999007,197.209084909759,1.00000000043785,0.49591116478162
26199.9999998992,196.518888087342,1.00000000045951,0.507474300703996
26299.9999998978,195.83322412755,1.00000000048873,0.514529858933854
26399.9999998963,195.15042011915,1.00000000048769,0.515172692499868
26499.9999998949,194.471939457993,1.00000000043603,0.516078736842648
26599.9999998934,193.79911153882,1.00000000042423,0.524978411130253
26699.999999892,193.13221171593,1.00000000040488,0.528316071324568
26799.9999998905,192.470907534478,1.00000000043038,0.528564604856902
26899.999999889,191.813547655685,1.00000000046837,0.535816635079139
26999.9999998876,191.158905105908,1.00000000050213,0.543492883928309
27099.9999998861,190.507405009806,1.00000000051081,0.541307485577279
27199.9999998847,189.861120391315,1.00000000044511,0.52742477228908
27299.9999998832,189.223424800139,1.00000000040602,0.510410944720923
27399.9999998818,188.598215303761,1.00000000034304,0.498035709585505
27499.9999998803,187.987671831995,1.0000000003163,0.485849077556376
27599.9999998789,187.393176686498,1.00000000032618,0.476722597699934
27699.9999998774,186.812848937506,1.00000000035692,0.479713798452766
27799.9999998759,186.243156670758,1.00000000042311,0.48735740116457
27899.9999998745,185.680290717378,1.00000000046794,0.498871572973757
27999.999999873,185.121486542755,1.00000000047329,0.505433379013717
28099.9999998716,184.564555860333,1.00000000048567,0.510823566941762
28199.9999998701,184.008657316185,1.00000000045009,0.50826022932327
28299.9999998687,183.454794401539,1.00000000045361,0.512003749349535
28399.9999998672,182.903844923654,1.0000000004323,0.522448056883996
28499.9999998658,182.356082167454,1.00000000042413,0.530212344407051
28599.9999998643,181.811199230586,1.00000000045644,0.532112277499646
28699.9999998629,181.268493091436,1.00000000047568,0.531580920927462
28799.9999998614,180.727624005715,1.00000000047616,0.532656027428942
28899.9999998599,180.188731037787,1.00000000048223,0.535618487207635
