Time,AGPnorm,Energy,Entropy
0,0,1,7.20770963358355e-18
99.9999999999986,0.00457549284318762,0.999999999998005,0.0144675565386601
199.999999999993,0.01248874709776,0.999999999999638,0.0416790458494267
300,0.0259289241506124,0.999999999998489,0.0819114181918841
400.000000000022,0.0403469749075376,1.00000000000056,0.133331242568772
500.000000000045,0.0557351112074158,1.00000000002026,0.204222621098059
600.000000000068,0.0829429650645066,1.0000000002064,0.298657245516517
700.000000000091,0.15908569572528,1.00000000066876,0.398713192560938
800.000000000113,0.570054260930898,1.00000000121205,0.47414492958301
900.000000000136,1.55389401438041,1.00000000159689,0.522911804632778
1000.00000000016,3.3869857929243,1.000000001744,0.549866496436305
1100.0000000001,6.0006652320147,1.00000000191747,0.563844133131919
1200,9.25156123197961,1.00000000198197,0.566983106991743
1299.99999999991,12.8379173398139,1.00000000177266,0.567852296422218
1399.99999999982,16.499879125432,1.00000000165941,0.561208425857536
1499.99999999973,19.9662173641152,1.00000000147933,0.553928177677438
1599.99999999964,23.0803907124481,1.00000000146913,0.547005769023186
1699.99999999955,25.7121914582297,1.00000000145931,0.536965348355503
1799.99999999946,27.8302198256709,1.00000000135693,0.536280949853463
1899.99999999937,29.4066604823201,1.00000000123193,0.516617187005416
1999.99999999928,30.4609768576374,1.00000000123549,0.534571262698785
2099.99999999919,31.0857958205214,1.00000000098433,0.503233675917288
2199.99999999909,31.2314607860222,1.00000000101272,0.510476053080286
2299.999999999,31.1793802247774,1.00000000124904,0.548558340245476
2399.99999999891,30.8242745393669,1.00000000062647,0.428732085849447
2499.99999999882,30.2375477140934,1.00000000128564,0.545082089348475
2599.99999999873,29.7043269145153,1.00000000139176,0.549925806317573
2699.99999999864,29.0370377690254,1.00000000050347,0.37036585122389
2799.99999999855,28.2124364332903,1.00000000108123,0.481656361368883
2899.99999999846,27.4644635599754,1.00000000156921,0.573863805244416
2999.99999999837,26.8146024240182,1.00000000116021,0.501371587154244
3099.99999999828,26.0937326751257,1.0000000004636,0.325239892855775
3199.99999999819,25.3291995861582,1.00000000098374,0.430068321859407
3299.99999999809,24.5897134520089,1.00000000157067,0.533015258849446
3399.999999998,23.9339445710603,1.00000000157868,0.563125587598392
3499.99999999791,23.3349875529897,1.00000000102665,0.493376645073891
3599.99999999782,22.7334182574327,1.0000000005477,0.335694494294275
3699.99999999773,22.1698161434923,1.00000000073891,0.370537605948878
3799.99999999764,21.6277134408512,1.00000000126841,0.499992084919424
3899.99999999755,21.0899391748875,1.00000000124194,0.522685623719649
3999.99999999746,20.5706600233668,1.00000000142989,0.510612966086978
4099.99999999738,20.0746882637644,1.00000000165857,0.57589492645953
4199.99999999775,19.6117471346155,1.00000000108314,0.503904214982528
4299.99999999811,19.1960440208975,1.00000000043605,0.354408185151249
4399.99999999848,18.8816671563053,1.00000000071305,0.336272069006455
4499.99999999884,18.6313283705294,1.00000000105484,0.439665587889185
4599.9999999992,18.3613064015064,1.00000000135697,0.51730256649377
4699.99999999957,18.0504931572857,1.00000000126722,0.550201945343924
4799.99999999993,17.7465286403589,1.00000000083641,0.506696045370472
4900.00000000029,17.4549059510155,1.00000000108934,0.496500423740672
5000.00000000066,17.1397265607836,1.00000000142275,0.524202572344812
5100.00000000102,16.8105757294797,1.00000000150689,0.571954645105259
5200.00000000139,16.4927225291195,1.00000000117447,0.558455997970055
5300.00000000175,16.2088516683066,1.00000000062613,0.448071062016103
5400.00000000211,16.020892589159,1.00000000050435,0.354130975257465
5500.00000000248,15.9707305941,1.00000000065608,0.345828984628805
5600.00000000284,16.0064121575891,1.00000000106235,0.420269351138835
5700.00000000321,16.0170301532921,1.00000000135593,0.502314487193501
5800.00000000357,15.9817506538035,1.00000000113325,0.536812548172202
5900.00000000393,15.9212226227871,1.00000000113065,0.526853966685883
6000.0000000043,15.8246181065005,1.00000000126668,0.546093632744084
6100.00000000466,15.6893103466106,1.00000000121846,0.548206330688896
6200.00000000502,15.5403739973316,1.00000000108358,0.538025862939013
6300.00000000539,15.3954570004619,1.00000000103088,0.533797688852949
6400.00000000575,15.2548637539014,1.00000000093872,0.53624704417327
6500.00000000612,15.1084803872499,1.00000000100998,0.535167330331571
6600.00000000648,14.9414762530365,1.00000000128731,0.547360310137639
6700.00000000684,14.7497501092509,1.00000000145555,0.549804086786061
6800.00000000721,14.5443228337659,1.00000000159259,0.575057906456121
6900.00000000757,14.3387676942068,1.00000000131836,0.577361310560771
7000.00000000793,14.1439517438395,1.00000000093792,0.521319823198975
7100.0000000083,13.9952964931698,1.00000000059702,0.434256594598504
7200.00000000866,13.9534807396603,1.00000000048618,0.367383447537853
7300.00000000903,14.0570495131379,1.00000000058509,0.360500273576998
7400.00000000939,14.2818686823309,1.00000000094504,0.389020068795137
7500.00000000975,14.539195114664,1.00000000116074,0.450655418210069
7600.00000001012,14.7678575632506,1.00000000125866,0.498529792529538
7700.00000001048,14.9422105589995,1.00000000127594,0.537124088607366
7800.00000001084,15.0679420865431,1.00000000106252,0.545455074037405
7900.00000001121,15.1621305748967,1.00000000111337,0.558310753759967
8000.00000001157,15.2166774862939,1.00000000123124,0.580164166813388
8100.00000001194,15.2239457634161,1.00000000112465,0.583584610195234
8200.0000000123,15.201202103657,1.00000000115391,0.568712168942499
8300.00000001266,15.1611572939988,1.00000000110935,0.556761666514529
8400.00000001303,15.1102167839656,1.00000000117631,0.552051952930691
8500.00000001339,15.0422071703348,1.00000000119496,0.54787585113958
8600.00000001376,14.9686280193085,1.00000000104009,0.550437522975162
8700.00000001412,14.9030904976636,1.0000000009486,0.549103789237721
8800.00000001448,14.8418852252195,1.0000000010891,0.5478863580892
8900.00000001485,14.7736610781148,1.00000000107779,0.550056343299835
9000.00000001521,14.7051993159954,1.00000000098409,0.552314041331174
9100.00000001557,14.6380588351308,1.00000000111078,0.551640998460388
9200.00000001594,14.566528472359,1.00000000109535,0.552187121314602
9300.0000000163,14.4811791071907,1.00000000124511,0.560844665927233
9400.00000001667,14.3832509236406,1.00000000114472,0.582366705531914
9500.00000001703,14.2793113495696,1.00000000102785,0.589444089527784
9600.00000001739,14.1769615576213,1.0000000009146,0.57696770189473
9700.00000001776,14.0734861196253,1.00000000102564,0.584186306110889
9800.00000001812,13.9626616781067,1.00000000112261,0.585203561581446
9900.00000001848,13.8428217355175,1.00000000128747,0.588026538178832
10000.0000000188,13.7171043141021,1.00000000136667,0.59633757623257
10100.0000000192,13.5925125562866,1.00000000145926,0.592403787483691
10200.0000000196,13.4738399514868,1.00000000158062,0.596301302541672
10300.0000000199,13.3605003485875,1.00000000151978,0.592705286144443
10400.0000000203,13.2448069766398,1.00000000118621,0.576431129952624
10500.0000000207,13.1224788325119,1.00000000088707,0.532456806954481
10600.000000021,13.0090964251545,1.00000000069906,0.477175281685447
10700.0000000214,12.9411455874181,1.00000000055189,0.421860905737216
10800.0000000218,12.9649354897328,1.00000000053445,0.383096282989822
10900.0000000221,13.1111077033472,1.00000000054232,0.372537723878581
11000.0000000225,13.3904392470892,1.0000000007217,0.384234366168489
11100.0000000229,13.7616291185205,1.00000000094061,0.407246120403649
11200.0000000232,14.1833156279352,1.00000000107496,0.437144063590887
11300.0000000236,14.5915575915732,1.00000000132755,0.474539908206072
11400.0000000239,14.9688128521652,1.0000000012352,0.495911084145936
11500.0000000243,15.3057418494343,1.00000000114593,0.52617349222859
11600.0000000247,15.5939867243736,1.00000000119314,0.546441948528683
11700.000000025,15.8446233828481,1.00000000124441,0.557295505922579
11800.0000000254,16.0601972440766,1.00000000109956,0.561361997563777
11900.0000000258,16.2403726345794,1.00000000119087,0.585814662216869
12000.0000000261,16.3832566459857,1.00000000117184,0.598010304079217
12100.0000000265,16.4937051639163,1.00000000125122,0.601537266301626
12200.0000000269,16.5705017591242,1.00000000118061,0.60516079070055
12300.0000000272,16.6218945188811,1.00000000120399,0.607713052620294
12400.0000000276,16.6490185324538,1.00000000120779,0.613733844188282
12500.0000000279,16.652629996602,1.00000000115835,0.607489797725908
12600.0000000283,16.6475761349077,1.00000000099328,0.59185428117313
12700.0000000287,16.6311074576502,1.0000000012371,0.58810286071837
12800.000000029,16.6006542001537,1.00000000115856,0.582068970807703
12900.0000000294,16.567777906513,1.00000000104924,0.577760435458362
13000.0000000298,16.5242194604803,1.00000000120068,0.589084535602634
13100.0000000301,16.4688962209521,1.00000000118533,0.593424027216066
13200.0000000305,16.4061291824263,1.00000000115324,0.603970232469671
13300.0000000309,16.3369024725847,1.00000000116195,0.59542859914781
13400.0000000312,16.260419427445,1.00000000133553,0.607304150953104
13500.0000000316,16.1782402170054,1.00000000115617,0.604979677292358
13600.0000000319,16.0973682809379,1.00000000110235,0.59545332418473
13700.0000000323,16.0213138251286,1.00000000099455,0.577002733376763
13800.0000000327,15.9547146063588,1.00000000103401,0.5640171448034
13900.000000033,15.8927423363572,1.00000000112281,0.570621049318965
14000.0000000334,15.8307569779845,1.00000000116214,0.577516600831166
14100.0000000338,15.7696537885552,1.00000000114204,0.574136588181604
14200.0000000341,15.7058920206299,1.00000000118191,0.580674446577563
14300.0000000345,15.6419928226431,1.00000000120602,0.585966598557793
14400.0000000349,15.5840819452404,1.00000000101355,0.584014813976339
14500.0000000352,15.5340626474965,1.00000000113005,0.581943741755661
14600.0000000356,15.481255268917,1.00000000122862,0.581038265497911
14700.0000000359,15.4290569493127,1.00000000107883,0.582902680008794
14800.0000000363,15.3850051508187,1.00000000109351,0.564245357620383
14900.0000000367,15.34617936171,1.00000000114372,0.552021759508463
15000.000000037,15.3034129677582,1.00000000131723,0.554249950397348
15100.0000000374,15.2613674264142,1.00000000112541,0.5601769307065
15200.0000000378,15.2241564091678,1.00000000112083,0.573590697897912
15300.0000000381,15.1848934402758,1.00000000123092,0.597118649971476
15400.0000000385,15.1446252114474,1.00000000115059,0.600841976914507
15500.0000000389,15.1051375657373,1.00000000120763,0.59389249913416
15600.0000000392,15.0609344367388,1.00000000125169,0.575390707673762
15700.0000000396,15.0145144289568,1.00000000124861,0.580728482537366
15800.0000000399,14.9744831485259,1.00000000101745,0.587489271881516
15900.0000000403,14.937143569717,1.00000000121883,0.603533270720176
16000.0000000407,14.8939513828699,1.00000000116855,0.609991268896199
16100.000000041,14.8506191138117,1.00000000111358,0.610687317064024
16200.0000000414,14.8051824574037,1.0000000012375,0.615022473846445
16300.0000000418,14.7528564033413,1.00000000118255,0.622069983945961
16400.0000000418,14.6970162012723,1.00000000111377,0.615910560448189
16500.0000000404,14.6401707437171,1.00000000119565,0.610467743852908
16600.0000000389,14.5802374502332,1.00000000127338,0.619187066347716
16700.0000000375,14.5195394706713,1.0000000011593,0.622117801623606
16800.000000036,14.4627700086994,1.00000000110329,0.614036894348715
16900.0000000346,14.4075107995668,1.000000001243,0.608818109156072
17000.0000000331,14.348949946472,1.00000000130957,0.60430981204537
17100.0000000317,14.2873103431925,1.00000000117022,0.601039817148498
17200.0000000302,14.2272833668424,1.00000000103805,0.610383169143883
17300.0000000287,14.1687267313623,1.0000000012055,0.620237193509636
17400.0000000273,14.1076861855558,1.00000000128268,0.613182144594634
17500.0000000258,14.0484429257697,1.00000000104022,0.597955142213498
17600.0000000244,13.9917353844191,1.0000000011289,0.606774983019161
17700.0000000229,13.932767231003,1.000000001199,0.596478199051536
17800.0000000215,13.8713839931118,1.00000000111565,0.614047701751439
17900.00000002,13.808534104737,1.00000000126261,0.614443662325673
18000.0000000186,13.7444159423233,1.00000000122849,0.618367937254094
18100.0000000171,13.6793299941904,1.00000000117967,0.613974434894882
18200.0000000156,13.6120733712237,1.00000000129924,0.630411289435299
18300.0000000142,13.541906044547,1.00000000140579,0.631059073922131
18400.0000000127,13.4716668377049,1.00000000117697,0.622233708670292
18500.0000000113,13.4029979176072,1.00000000110972,0.616328945123926
18600.0000000098,13.3336658559874,1.00000000144216,0.639986136966791
18700.0000000084,13.2631538296365,1.00000000127574,0.626744411365721
18800.0000000069,13.1933890390696,1.00000000121953,0.625098963401191
18900.0000000055,13.1242035279226,1.00000000117301,0.608137066174981
19000.000000004,13.0557197232139,1.00000000106138,0.62029074542318
19100.0000000026,12.988166460477,1.00000000113571,0.631454255000943
19200.0000000011,12.9215441607063,1.00000000100433,0.625032846747811
19299.9999999996,12.8557070905211,1.00000000102246,0.620482304143345
19399.9999999982,12.7914432759096,1.0000000010808,0.624801408522199
19499.9999999967,12.7300062047691,1.0000000011603,0.632458574624427
19599.9999999953,12.6728115512694,1.00000000118653,0.621841933219733
19699.9999999938,12.6220463721423,1.00000000131889,0.630262934992278
19799.9999999924,12.5812379263902,1.00000000129882,0.634408997797033
19899.9999999909,12.5517762903636,1.0000000015422,0.635212028112553
19999.9999999895,12.5415476326334,1.00000000144419,0.642368547733268
20099.999999988,12.5456729585882,1.00000000147375,0.647305273316137
20199.9999999865,12.579582203512,1.00000000159412,0.650151203648794
20299.9999999851,12.6280562973221,1.00000000153759,0.6518477173036
20399.9999999836,12.7085749078122,1.00000000168791,0.642673459635282
20499.9999999822,12.7977609532284,1.00000000170936,0.631774074637465
20599.9999999807,12.9104993579479,1.00000000163228,0.617567657567326
20699.9999999793,13.0131278817822,1.00000000141013,0.60551134898526
20799.9999999778,13.1048427063608,1.00000000132221,0.598444710639313
20899.9999999764,13.1623104001019,1.00000000111007,0.577266235409031
20999.9999999749,13.1834099904867,1.00000000104343,0.550887106183651
21099.9999999734,13.1693373536586,1.00000000095469,0.517044079956061
21199.999999972,13.1274241874627,1.00000000085309,0.489201131988678
21299.9999999705,13.0754884025048,1.00000000081288,0.457142008211704
21399.9999999691,13.0364594756683,1.00000000066454,0.431181544192138
21499.9999999676,13.0357851115267,1.00000000060988,0.412447982121716
21599.9999999662,13.0992105668581,1.00000000059244,0.3964249854154
21699.9999999647,13.2540342233749,1.00000000062081,0.387557928710894
21799.9999999633,13.5028390642649,1.00000000065538,0.387430678980846
21899.9999999618,13.8738427226637,1.00000000074088,0.391864138328413
21999.9999999603,14.3322729070769,1.00000000087164,0.397717863666284
22099.9999999589,14.901071562101,1.00000000087958,0.41059678420553
22199.9999999574,15.5217413335998,1.00000000119312,0.422909725985323
22299.999999956,16.1940916846109,1.00000000118285,0.435053768142085
22399.9999999545,16.8822218862093,1.00000000130363,0.445527613295514
22499.9999999531,17.5665371664239,1.00000000132255,0.461970716657106
22599.9999999516,18.248678993518,1.00000000136055,0.476991075606445
22699.9999999502,18.8940297834629,1.00000000136109,0.485046474697401
22799.9999999487,19.5277970501409,1.00000000133172,0.50388898815184
22899.9999999473,20.1231612898847,1.00000000139753,0.510508784266894
22999.9999999458,20.6934750327122,1.00000000137723,0.518612148537337
23099.9999999443,21.22353374017,1.00000000127546,0.528121174648902
23199.9999999429,21.7280511009545,1.0000000013205,0.534023409142696
23299.9999999414,22.2074695292251,1.0000000013177,0.548044037421543
23399.99999994,22.6465447201586,1.00000000131354,0.550135042112006
23499.9999999385,23.0711428863819,1.00000000133839,0.56927475556476
23599.9999999371,23.4625634041523,1.00000000123152,0.579859609857364
23699.9999999356,23.8372467771169,1.00000000128225,0.583629454187925
23799.9999999342,24.1798892979745,1.00000000127145,0.589603913794527
23899.9999999327,24.4924879025175,1.00000000134647,0.6115229280194
23999.9999999312,24.7768804391429,1.00000000138919,0.623546499193999
24099.9999999298,25.0331865069818,1.00000000127938,0.613809694786368
24199.9999999283,25.2728392503006,1.00000000136314,0.61870011752342
24299.9999999269,25.4733594046209,1.00000000144729,0.636562085605824
24399.9999999254,25.6498574130591,1.00000000136242,0.644908218935343
24499.999999924,25.8000696997703,1.00000000131786,0.641812767521452
24599.9999999225,25.9409913298255,1.00000000110911,0.63254232790848
24699.9999999211,26.0633776069627,1.00000000121136,0.636004007833936
24799.9999999196,26.1634110353365,1.00000000134401,0.639094975762139
24899.9999999181,26.2394432910751,1.00000000143917,0.650870063683483
24999.9999999167,26.2948672749826,1.00000000115678,0.641690189476334
25099.9999999152,26.3465179118922,1.00000000127468,0.640720453871131
25199.9999999138,26.3891358869161,1.00000000113901,0.625247623193918
25299.9999999123,26.4274214448368,1.00000000119055,0.62679267320678
25399.9999999109,26.4477256892221,1.00000000140815,0.641428447068126
25499.9999999094,26.4499056745818,1.0000000014857,0.643800501239102
25599.999999908,26.4416575828251,1.00000000122166,0.636728063366465
25699.9999999065,26.4306070337442,1.00000000127531,0.627208034737938
25799.9999999051,26.4191213406501,1.00000000121057,0.625582668444331
25899.9999999036,26.4009594170801,1.00000000132058,0.625411630436935
25999.9999999021,26.378811682198,1.00000000131916,0.614561126323056
26099.9999999007,26.350871693492,1.00000000122811,0.623404961143127
26199.9999998992,26.3189400485552,1.00000000123216,0.635608878815999
26299.9999998978,26.2802787451602,1.00000000131694,0.650319985186795
26399.9999998963,26.23770345008,1.00000000115503,0.634665801994524
26499.9999998949,26.1987313190603,1.00000000112738,0.597327925545711
26599.9999998934,26.1622367478101,1.00000000120377,0.602951222508047
26699.999999892,26.1207703376755,1.00000000140747,0.613402882173938
26799.9999998905,26.0673015193937,1.00000000126404,0.606758795127555
26899.999999889,26.0091279749967,1.00000000151179,0.605084575729443
26999.9999998876,25.950597636681,1.00000000119228,0.590889782801456
27099.9999998861,25.8953702413494,1.00000000114362,0.602647950732188
27199.9999998847,25.8380249943075,1.00000000134164,0.623916794300037
27299.9999998832,25.7729542608501,1.00000000136764,0.636701378467166
27399.9999998818,25.7045622130177,1.00000000129635,0.635692317563536
27499.9999998803,25.6391308048479,1.00000000105411,0.616702637546954
27599.9999998789,25.580367339365,1.00000000128296,0.611572700083921
27699.9999998774,25.5233581726435,1.00000000126574,0.625481208260757
27799.9999998759,25.4644254643971,1.00000000135749,0.623241890430019
27899.9999998745,25.4055743674822,1.00000000119842,0.601736804466597
27999.999999873,25.3524908781402,1.00000000108263,0.580221981878928
28099.9999998716,25.3026944002973,1.00000000128821,0.594969458881842
28199.9999998701,25.2478819879903,1.00000000135684,0.611330540830736
28299.9999998687,25.18870673497,1.00000000144031,0.62347617866039
28399.9999998672,25.1276935670698,1.00000000123411,0.610577747892244
28499.9999998658,25.0705974403975,1.00000000114905,0.597964695318025
28599.9999998643,25.0168362701702,1.00000000136815,0.622991488860086
28699.9999998629,24.9611755523232,1.00000000164366,0.617352959664991
28799.9999998614,24.9015766437903,1.0000000013077,0.605743270845371
28899.9999998599,24.8414053352204,1.00000000125205,0.598437139706115
28999.9999998585,24.7852840507621,1.00000000119009,0.588549608078091
29099.999999857,24.7320958280312,1.00000000141375,0.588450419109143
