Time,AGPnorm,Energy,Entropy
0,0,1,-1.11519285164056e-17
99.9999999999986,1.66415894295571e-05,0.999999999998443,0.000738892169230275
199.999999999993,0.00156333463011397,0.999999999995883,0.00124118225835524
300,0.0038634118499782,1.0000000000014,0.00215273305427869
400.000000000022,0.00534918649404766,0.999999999995517,0.0036972660863852
500.000000000045,0.00645264020368933,0.999999999998966,0.00511326752371126
600.000000000068,0.00928857565805809,0.999999999999569,0.00698414733519946
700.000000000091,0.0117461009326556,0.999999999995216,0.00908912638126644
800.000000000113,0.0147704716796031,1.00000000000131,0.0112032118021477
900.000000000136,0.0184082500797935,0.999999999996308,0.0137073075943007
1000.00000000016,0.0215370744081059,0.999999999997809,0.0163354358669909
1100.0000000001,0.0260139460347528,1.00000000000055,0.0189885414572726
1200,0.0308426454358819,0.999999999994935,0.0220249870967081
1299.99999999991,0.0351401493716337,1.00000000000076,0.0250763128035735
1399.99999999982,0.0401822217533663,0.999999999997356,0.0282614214677624
1499.99999999973,0.0454138895515475,0.999999999996745,0.0317849860828238
1599.99999999964,0.0513165877290278,1.00000000000121,0.0351791330081625
1699.99999999955,0.0576533771702977,0.999999999995041,0.0389389993568281
1799.99999999946,0.0632356496854641,0.999999999999847,0.0428347299638129
1899.99999999937,0.0696596009760605,0.999999999998544,0.0466522253138998
1999.99999999928,0.0767075285600355,0.999999999995932,0.0509706746566391
2099.99999999919,0.0835092409211478,1.00000000000141,0.0551607151924524
2199.99999999909,0.0906741612760513,0.999999999995517,0.0596014827160814
2299.999999999,0.097491505678152,0.999999999998774,0.0643408198349496
2399.99999999891,0.105160470459695,0.999999999999685,0.0689097894508615
2499.99999999882,0.113423131412641,0.999999999995414,0.0740453984870931
2599.99999999873,0.120748666540921,1.00000000000109,0.0791590536842871
2699.99999999864,0.128352176285335,0.999999999996362,0.084376349655239
2799.99999999855,0.136318156022976,0.99999999999775,0.0900998847075094
2899.99999999846,0.144752258851011,1.0000000000006,0.0956723779391244
2999.99999999837,0.153486751502173,0.999999999995177,0.101812231292222
3099.99999999828,0.161091211095025,1.00000000000036,0.108115993225051
3199.99999999819,0.16907687609392,0.999999999997508,0.114442049846117
3299.99999999809,0.177876178171165,0.99999999999696,0.121538019623513
3399.999999998,0.18647981817732,1.00000000000115,0.128621672443739
3499.99999999791,0.195004941174706,0.999999999995359,0.136306387079903
3599.99999999782,0.202723943401638,0.999999999999715,0.144500341149188
3699.99999999773,0.211176895551219,0.999999999999167,0.152876222164349
3799.99999999764,0.220143771583019,0.999999999997524,0.162396599965155
3899.99999999755,0.228634242738154,1.00000000000352,0.172275049908225
3999.99999999746,0.23661453442064,1.0000000000005,0.182873942593758
4099.99999999738,0.24429993621135,1.0000000000073,0.194450409613032
4199.99999999775,0.254106702961334,1.0000000000145,0.206222890993325
4299.99999999811,0.262580317213037,1.00000000001948,0.219046038086701
4399.99999999848,0.272786392440031,1.00000000003452,0.231916625214839
4499.99999999884,0.28505988208008,1.00000000004578,0.244684291743215
4599.9999999992,0.297997962985669,1.00000000006226,0.258004844901582
4699.99999999957,0.322284526403535,1.0000000000822,0.270699359375029
4799.99999999993,0.350829148502611,1.00000000009635,0.283655826770365
4900.00000000029,0.391519233058849,1.00000000012664,0.29615864809895
5000.00000000066,0.457059887264436,1.00000000014537,0.308034293047139
5100.00000000102,0.539871971367589,1.00000000016749,0.320342550269219
5200.00000000139,0.661305452263108,1.00000000019228,0.33181814951695
5300.00000000175,0.827045247347434,1.00000000021287,0.343112763714344
5400.00000000211,1.03522502924029,1.00000000024034,0.354308586463263
5500.00000000248,1.32051332055037,1.00000000025998,0.364557090146163
5600.00000000284,1.67542441146757,1.00000000028369,0.375307243625524
5700.00000000321,2.11306486059135,1.00000000031077,0.38522297870785
5800.00000000357,2.67038802377216,1.00000000031417,0.394587623741436
5900.00000000393,3.32331400423487,1.00000000034253,0.404260212472372
6000.0000000043,4.11460874231252,1.00000000036572,0.412832727898203
6100.00000000466,5.05664202698483,1.0000000003863,0.421704734677724
6200.00000000502,6.1279749929008,1.00000000040273,0.430034252193559
6300.00000000539,7.39675596308636,1.0000000004222,0.437520931680006
6400.00000000575,8.82578202121744,1.00000000043931,0.445644111580424
6500.00000000612,10.4359767716694,1.00000000046529,0.452694231500316
6600.00000000648,12.2778460952293,1.00000000044088,0.459729154086795
6700.00000000684,14.2854737947076,1.00000000047716,0.466629310251219
6800.00000000721,16.5368387513034,1.00000000048991,0.47245795060079
6900.00000000757,19.0081162766043,1.0000000004886,0.479093052251975
7000.00000000793,21.6724593375298,1.00000000050779,0.484791491567135
7100.0000000083,24.6195143974493,1.00000000051052,0.489889380845105
7200.00000000866,27.7539773497675,1.00000000052534,0.495635607668215
7300.00000000903,31.1334759358705,1.00000000054035,0.50021381442905
7400.00000000939,34.7726728458142,1.00000000053333,0.505183579985483
7500.00000000975,38.5899954135956,1.00000000054499,0.509744949579041
7600.00000001012,42.6953388901074,1.0000000005435,0.513465325999901
7700.00000001048,46.9962490985169,1.00000000055718,0.518001620314463
7800.00000001084,51.5051966499659,1.0000000005536,0.521647368903217
7900.00000001121,56.2829307249171,1.0000000005478,0.524957307085081
8000.00000001157,61.2085571776013,1.00000000055172,0.528801224240406
8100.00000001194,66.3845686103254,1.00000000056221,0.531478568284331
8200.0000000123,71.7506749776802,1.00000000055132,0.534917585958305
8300.00000001266,77.2654800519727,1.00000000054876,0.537728431029022
8400.00000001303,83.0254479231425,1.00000000056473,0.539785326347037
8500.00000001339,88.8979050517886,1.00000000056569,0.542808110161609
8600.00000001376,94.9536798803421,1.00000000054322,0.544844978325425
8700.00000001412,101.180485205175,1.00000000055454,0.546976136213665
8800.00000001448,107.490339394234,1.00000000053281,0.549349005654109
8900.00000001485,113.994802133447,1.00000000056048,0.550553229554095
9000.00000001521,120.577037134477,1.00000000054302,0.5528654056105
9100.00000001557,127.263329414139,1.00000000053779,0.554337358083935
9200.00000001594,134.087768632663,1.00000000054205,0.555614461813882
9300.0000000163,140.935613007185,1.00000000053502,0.55734650947969
9400.00000001667,147.910660895451,1.00000000054641,0.558037357863972
9500.00000001703,154.929901583905,1.00000000054006,0.559612348826361
9600.00000001739,161.976503787349,1.00000000051891,0.560803733308503
9700.00000001776,169.116858916493,1.00000000053251,0.561235118383594
9800.00000001812,176.233124793134,1.00000000053856,0.562465166298967
9900.00000001848,183.404263080698,1.00000000054269,0.563071769916581
10000.0000000188,190.588078053054,1.00000000053501,0.563731729250919
10100.0000000192,197.733378847039,1.00000000052182,0.564752615084393
10200.0000000196,204.922376735914,1.00000000051816,0.564774534325943
10300.0000000199,212.049838996525,1.00000000049461,0.565764507695375
10400.0000000203,219.165175292346,1.00000000050691,0.566177361222743
10500.0000000207,226.261562009055,1.00000000048197,0.566312502672074
10600.000000021,233.269936162918,1.00000000051804,0.567119461301195
10700.0000000214,240.271427602402,1.00000000049449,0.566722284990282
10800.0000000218,247.184372474839,1.00000000047901,0.567656731522129
10900.0000000221,254.028794597677,1.00000000049062,0.567656749050393
11000.0000000225,260.824947947012,1.00000000049293,0.567073350001886
11100.0000000229,267.497845883792,1.00000000047412,0.568265854622753
11200.0000000232,274.119311534843,1.0000000004686,0.567395831473931
11300.0000000236,280.631993790648,1.00000000047706,0.567726484080962
11400.0000000239,287.033253035191,1.00000000049318,0.568054322530147
11500.0000000243,293.35889674752,1.00000000045628,0.566887798511194
11600.0000000247,299.537685046033,1.00000000047723,0.567985313085415
11700.000000025,305.628340767884,1.00000000047105,0.567177819865157
11800.0000000254,311.595450284832,1.00000000044994,0.566717199304384
11900.0000000258,317.41924209534,1.00000000046126,0.567905053812884
12000.0000000261,323.147682833401,1.00000000045525,0.566286723487193
12100.0000000265,328.71606031654,1.00000000043658,0.566777024849188
12200.0000000269,334.16680714831,1.00000000042289,0.566969265769926
12300.0000000272,339.487883633153,1.00000000043691,0.565613260871612
12400.0000000276,344.64537544515,1.00000000043749,0.566259493287692
12500.0000000279,349.691060664517,1.00000000041142,0.565587840068867
12600.0000000283,354.574039101081,1.00000000041418,0.564924911636949
12700.0000000287,359.317691088615,1.00000000041412,0.565327083614332
12800.000000029,363.927548219605,1.0000000004165,0.564400784448886
12900.0000000294,368.367784844527,1.00000000040906,0.564359353102173
13000.0000000298,372.683058317772,1.0000000003843,0.564130324587061
13100.0000000301,376.839072133745,1.00000000039179,0.563460549622717
13200.0000000305,380.844272313213,1.00000000039112,0.563398832853427
13300.0000000309,384.714557542535,1.00000000038944,0.56267836946583
13400.0000000312,388.41640416463,1.00000000036571,0.562783050945227
13500.0000000316,391.986803608298,1.00000000037357,0.562199006087236
13600.0000000319,395.403240452773,1.00000000037025,0.561725395950245
13700.0000000323,398.665591436617,1.00000000037644,0.561407115544158
13800.0000000327,401.796146946436,1.00000000036491,0.560904956434995
13900.000000033,404.763442158576,1.00000000037027,0.560998936049007
14000.0000000334,407.598234652636,1.00000000037125,0.560450221429409
14100.0000000338,410.288053840381,1.00000000035613,0.559508990431278
14200.0000000341,412.826294354864,1.00000000036067,0.559266424128431
14300.0000000345,415.236473201012,1.00000000035033,0.559391634995587
14400.0000000349,417.495791171184,1.00000000034586,0.560305787639693
14500.0000000352,419.625787920763,1.00000000033979,0.55903750057254
14600.0000000356,421.620902878672,1.00000000033985,0.55705445885882
14700.0000000359,423.470847340638,1.00000000033364,0.557029591493994
14800.0000000363,425.200364323948,1.00000000032513,0.558263101517246
14900.0000000367,426.79129795523,1.00000000032218,0.559361527468332
15000.000000037,428.260110253352,1.0000000003253,0.559534867749088
15100.0000000374,429.608588201162,1.00000000032006,0.556406325016267
15200.0000000378,430.822267767452,1.00000000031373,0.553441743182975
15300.0000000381,431.920653846731,1.00000000031254,0.554799030066587
15400.0000000385,432.892099518937,1.00000000030402,0.558085176675896
15500.0000000389,433.755738963823,1.00000000032581,0.563045337475104
15600.0000000392,434.517568820689,1.00000000031162,0.55766745725353
15700.0000000396,435.16452181432,1.00000000031913,0.553334037503532
15800.0000000399,435.702153208447,1.00000000027315,0.547710830356579
15900.0000000403,436.122922275314,1.00000000029656,0.553325374844952
16000.0000000407,436.440684693302,1.00000000031221,0.560514689440872
16100.000000041,436.67874098447,1.00000000032702,0.564554392508143
16200.0000000414,436.827435330703,1.00000000031024,0.558993424981639
16300.0000000418,436.894257233515,1.00000000029478,0.550073265043328
16400.0000000418,436.858020830396,1.00000000025723,0.54173200412639
16500.0000000404,436.715650320577,1.00000000027067,0.546214116694959
16600.0000000389,436.489767335239,1.0000000002932,0.558120979862456
16700.0000000375,436.193412407957,1.00000000034996,0.567800652546743
16800.000000036,435.850643091169,1.00000000032472,0.564075327693364
16900.0000000346,435.447095553463,1.00000000030294,0.551117873760339
17000.0000000331,434.962089182193,1.00000000026031,0.536570302347186
17100.0000000317,434.387136928044,1.00000000023596,0.532311629143534
17200.0000000302,433.722144636085,1.00000000026647,0.546003079479863
17300.0000000287,433.004496523673,1.00000000032942,0.564317435859989
17400.0000000273,432.257054788929,1.00000000035829,0.571156787192059
17500.0000000258,431.481569490561,1.00000000035873,0.5631324205577
17600.0000000244,430.669786703649,1.00000000029905,0.543292638414478
17700.0000000229,429.785999796136,1.00000000023413,0.523739539864038
17800.0000000215,428.82360934327,1.0000000002194,0.520389220264671
17900.00000002,427.791523280058,1.00000000026136,0.5385663125479
18000.0000000186,426.718725577499,1.00000000034511,0.56346181167229
18100.0000000171,425.641536377902,1.0000000003872,0.573927840103373
18200.0000000156,424.561816798615,1.00000000036652,0.566855121285036
18300.0000000142,423.467952989207,1.00000000030577,0.544112314224793
18400.0000000127,422.329750188378,1.00000000023856,0.517309604267702
18500.0000000113,421.121700181843,1.00000000020305,0.503111328910141
18600.0000000098,419.851875586459,1.0000000002255,0.514667703372095
18700.0000000084,418.539370651803,1.00000000031171,0.546892089164995
18800.0000000069,417.221746363372,1.000000000395,0.571394349119179
18900.0000000055,415.921263730217,1.00000000041658,0.576605270332071
19000.000000004,414.632196608049,1.00000000037414,0.561546348919439
19100.0000000026,413.338141410806,1.00000000030351,0.532979160530683
19200.0000000011,412.00575335528,1.00000000022703,0.501958822527277
19299.9999999996,410.617793510077,1.00000000018109,0.487039189589485
19399.9999999982,409.17812051868,1.00000000022486,0.501163132966277
19499.9999999967,407.706684472774,1.00000000030645,0.539155601380041
19599.9999999953,406.240494533146,1.00000000039222,0.569718431825729
19699.9999999938,404.797674486264,1.00000000042613,0.578536565472842
19799.9999999924,403.380298887095,1.00000000041179,0.568307381305665
19899.9999999909,401.975745068677,1.00000000035311,0.542203507791842
19999.9999999895,400.554523895164,1.00000000026175,0.507331512585098
20099.999999988,399.099567748251,1.00000000018913,0.4796593255766
20199.9999999865,397.598331478371,1.00000000018195,0.475392020899769
20299.9999999851,396.061707139693,1.00000000024287,0.503208204281523
20399.9999999836,394.517011762219,1.00000000033733,0.544143548160348
20499.9999999822,392.985498835132,1.00000000042023,0.571957296115734
20599.9999999807,391.48362584564,1.00000000045372,0.577376746185792
20699.9999999793,390.011068685169,1.00000000041669,0.56616868823005
20799.9999999778,388.553312301183,1.00000000034659,0.54221174497923
20899.9999999764,387.094704329209,1.00000000027712,0.507337423909617
20999.9999999749,385.612179863141,1.00000000020065,0.47652990067774
21099.9999999734,384.099569155665,1.00000000018467,0.466170935950938
21199.999999972,382.559901830224,1.00000000021716,0.481574591404529
21299.9999999705,381.006619919966,1.00000000030205,0.518605146236298
21399.9999999691,379.46189401108,1.00000000037338,0.553644584842612
21499.9999999676,377.937997161828,1.00000000044564,0.571419830546678
21599.9999999662,376.442241278428,1.00000000044491,0.572219101628294
21699.9999999647,374.973337388903,1.00000000042646,0.557877536251522
21799.9999999633,373.518320964054,1.0000000003488,0.533655843773755
21899.9999999618,372.065723462228,1.00000000028708,0.502830737560525
21999.9999999603,370.600743874935,1.00000000022866,0.475950073431534
22099.9999999589,369.118026496266,1.00000000019684,0.465719904230799
22199.9999999574,367.62002241886,1.00000000021991,0.473481862893613
22299.999999956,366.111993851784,1.00000000026134,0.497421371133834
22399.9999999545,364.60781327471,1.00000000033623,0.529696339084158
22499.9999999531,363.117290513322,1.00000000039841,0.555000045388956
22599.9999999516,361.647483662317,1.00000000043361,0.564952924104011
22699.9999999502,360.201624971112,1.0000000004302,0.559162577831403
22799.9999999487,358.774421202688,1.00000000038482,0.544299551055611
22899.9999999473,357.360178802226,1.00000000034866,0.524274549972729
22999.9999999458,355.950028758832,1.00000000028804,0.501877602001428
23099.9999999443,354.536455447318,1.00000000025368,0.482464844407257
23199.9999999429,353.117990605419,1.00000000022565,0.471339488666071
23299.9999999414,351.691925699991,1.00000000022024,0.471788534942
23399.99999994,350.26373345128,1.00000000025354,0.485021401042545
23499.9999999385,348.837498966743,1.0000000002901,0.504989058697147
23599.9999999371,347.418837248905,1.00000000034289,0.528818488410582
23699.9999999356,346.014144427806,1.00000000039884,0.544193773374024
23799.9999999342,344.625231539783,1.00000000042087,0.549099855312511
23899.9999999327,343.25277803613,1.000000000401,0.544940977300208
23999.9999999312,341.895183424662,1.00000000038052,0.533132195788834
24099.9999999298,340.548079585228,1.00000000035092,0.521505657703581
24199.9999999283,339.208870609627,1.00000000031357,0.507525281107703
24299.9999999269,337.873255717055,1.00000000027725,0.495277762795534
24399.9999999254,336.540261394192,1.00000000024997,0.485093377214128
24499.999999924,335.209466750639,1.00000000024172,0.480037614849314
24599.9999999225,333.880530020856,1.00000000025915,0.48022132028695
24699.9999999211,332.556181900609,1.00000000027021,0.488545488272084
24799.9999999196,331.23721037817,1.00000000029492,0.500371362778607
24899.9999999181,329.926410658435,1.00000000032163,0.515083875027668
24999.9999999167,328.626078027485,1.00000000036102,0.524820958219924
25099.9999999152,327.336749823591,1.00000000037225,0.532670631257395
25199.9999999138,326.059321241344,1.0000000003669,0.532450888497931
25299.9999999123,324.793071141844,1.00000000036622,0.528047269889281
25399.9999999109,323.536563451715,1.00000000035162,0.522532505576615
25499.9999999094,322.289283732352,1.00000000031561,0.51490816246186
25599.999999908,321.049508436164,1.00000000030194,0.511024634206254
25699.9999999065,319.817449166894,1.00000000028991,0.506043132077057
25799.9999999051,318.592369713006,1.00000000027788,0.500107099676547
25899.9999999036,317.374437301526,1.00000000026746,0.493848590747892
25999.9999999021,316.163966075642,1.00000000026303,0.488658926115479
26099.9999999007,314.960262061508,1.00000000025932,0.486362530701841
26199.9999998992,313.764499483439,1.0000000002705,0.4892185172473
26299.9999998978,312.576803105451,1.00000000028678,0.495023041235657
26399.9999998963,311.397652753071,1.00000000030352,0.504870004233468
26499.9999998949,310.227600174394,1.00000000034835,0.512457919298524
26599.9999998934,309.066441690179,1.00000000035534,0.519356690645317
26699.999999892,307.913712509609,1.00000000035296,0.524609567425461
26799.9999998905,306.769746564733,1.00000000035885,0.52425371548621
26899.999999889,305.633931234605,1.00000000034611,0.522634229718081
26999.9999998876,304.506637437649,1.00000000031671,0.517427073257691
27099.9999998861,303.387656443493,1.00000000030311,0.513822266010112
27199.9999998847,302.277014965369,1.00000000032321,0.517738232058724
27299.9999998832,301.174978138842,1.00000000032242,0.520134262693792
27399.9999998818,300.081615720175,1.00000000030698,0.516092680672526
27499.9999998803,298.997586613327,1.00000000029843,0.508702883250571
27599.9999998789,297.922799178021,1.00000000027706,0.498753897846535
27699.9999998774,296.857981254131,1.00000000025701,0.48755548750975
27799.9999998759,295.803448013873,1.00000000024846,0.480055231146407
27899.9999998745,294.759478494631,1.00000000025264,0.478898617213975
27999.999999873,293.72603154434,1.00000000027676,0.485059494602386
28099.9999998716,292.702465497154,1.00000000030499,0.494510305811125
28199.9999998701,291.687084584013,1.00000000033287,0.506655505714695
28299.9999998687,290.678502067902,1.00000000037238,0.515125138167283
28399.9999998672,289.675517377739,1.00000000037812,0.521108051631355
28499.9999998658,288.678005557105,1.00000000036085,0.523690150846692
28599.9999998643,287.687230931262,1.00000000033095,0.521921375051142
28699.9999998629,286.704108403076,1.00000000029736,0.517383669732976
28799.9999998614,285.729566000258,1.00000000028596,0.511670583889516
28899.9999998599,284.763329285844,1.00000000030169,0.515648627557119
