Time,AGPnorm,Energy,Entropy
0,0,1,-7.41593235633164e-17
99.9999999999986,0.000749561023773788,0.999999999999049,0.00259588108452354
199.999999999993,0.00495227301719584,0.999999999997028,0.00765121849954667
300,0.0102636860261263,0.999999999997514,0.0141211209328224
400.000000000022,0.0155098606654335,0.999999999999603,0.0222778168713372
500.000000000045,0.0218326454796013,0.999999999999575,0.0323055532100227
600.000000000068,0.0306534015172795,0.999999999997649,0.0436984569875395
700.000000000091,0.0398459344156403,0.999999999997063,0.0560747956758376
800.000000000113,0.0496253706601029,0.999999999999015,0.0697562283881697
900.000000000136,0.0595243538918506,0.999999999999746,0.0851889758881972
1000.00000000016,0.071206728461087,0.999999999998448,0.102338854439018
1100.0000000001,0.0826152078044858,0.999999999997125,0.121255792017498
1200,0.0944082716146512,0.999999999998858,0.142414380254946
1299.99999999991,0.105593820790578,1.00000000000196,0.167086571983444
1399.99999999982,0.116828615428105,1.00000000000931,0.1960703506031
1499.99999999973,0.128238059453138,1.00000000003301,0.229741647555704
1599.99999999964,0.146866788176513,1.00000000008928,0.266538372822465
1699.99999999955,0.177110319134186,1.00000000018031,0.304434538338088
1799.99999999946,0.226709877461999,1.00000000030312,0.340672669070812
1899.99999999937,0.343884342039072,1.00000000041915,0.373927539433043
1999.99999999928,0.602765754645226,1.0000000005523,0.402936722635169
2099.99999999919,1.04958871905165,1.00000000064205,0.428813386375015
2199.99999999909,1.72792786639555,1.00000000071155,0.451755629983497
2299.999999999,2.72605523796176,1.00000000081814,0.471779337136103
2399.99999999891,4.12857637247691,1.0000000008573,0.48853257075773
2499.99999999882,5.94984600917446,1.00000000098485,0.502880876400614
2599.99999999873,8.18598546028905,1.00000000099,0.515590839796304
2699.99999999864,10.8660078117317,1.00000000104397,0.52635299254708
2799.99999999855,14.0077167381314,1.0000000010103,0.534912004220019
2899.99999999846,17.5601846308714,1.00000000109581,0.541789411639051
2999.99999999837,21.4590098014614,1.00000000106193,0.548008081978938
3099.99999999828,25.6775624110684,1.00000000107797,0.55304490982603
3199.99999999819,30.1886089085066,1.00000000104656,0.556614496686127
3299.99999999809,34.9190124476587,1.00000000102888,0.559020307346852
3399.999999998,39.7838159857333,1.00000000105982,0.561077109130139
3499.99999999791,44.7384173418764,1.00000000099452,0.562557625887665
3599.99999999782,49.747293297865,1.00000000099786,0.563512854806953
3699.99999999773,54.7539194285542,1.0000000009692,0.563394756686564
3799.99999999764,59.6900280920053,1.00000000097651,0.562574844241548
3899.99999999755,64.5056975974039,1.00000000094266,0.563537594384468
3999.99999999746,69.1809929801621,1.0000000009345,0.561955103813215
4099.99999999738,73.6903938179056,1.00000000090142,0.559417935876142
4199.99999999775,77.9884880870314,1.0000000009085,0.559118707683042
4299.99999999811,82.0409604077432,1.00000000086266,0.557598376604622
4399.99999999848,85.8426370844704,1.0000000008401,0.555617478413404
4499.99999999884,89.3876677413177,1.00000000077741,0.55433992725041
4599.9999999992,92.6618984001422,1.00000000077623,0.552102954857752
4699.99999999957,95.6498463227167,1.00000000075402,0.551237156298699
4799.99999999993,98.3451686685352,1.00000000077159,0.547997584157557
4900.00000000029,100.760687060553,1.00000000070725,0.549422367343906
5000.00000000066,102.900123650062,1.00000000069202,0.546146520193686
5100.00000000102,104.762189632935,1.00000000070308,0.542517464520237
5200.00000000139,106.349924782425,1.00000000067093,0.547184619082228
5300.00000000175,107.685140236906,1.00000000063545,0.545496883438806
5400.00000000211,108.766740419693,1.00000000062577,0.532881091895556
5500.00000000248,109.601731666157,1.00000000064698,0.54261964954019
5600.00000000284,110.230888828309,1.0000000006404,0.551174053514938
5700.00000000321,110.655534707505,1.00000000054724,0.529574050195574
5800.00000000357,110.848079326747,1.00000000051154,0.522543967781627
5900.00000000393,110.864350099444,1.00000000064478,0.553136676021896
6000.0000000043,110.772613960126,1.00000000063337,0.551751657153184
6100.00000000466,110.53024630427,1.00000000047367,0.510845151944955
6200.00000000502,110.088414512814,1.00000000044933,0.510513929931206
6300.00000000539,109.537161300797,1.00000000068841,0.55773772568149
6400.00000000575,108.96551281428,1.00000000071813,0.56174160737389
6500.00000000612,108.326077161106,1.00000000046651,0.505480105921623
6600.00000000648,107.53176332801,1.00000000036666,0.475562640616614
6700.00000000684,106.631333384418,1.00000000060247,0.533416517824087
6800.00000000721,105.742914899934,1.00000000083021,0.573296344913871
6900.00000000757,104.888691587798,1.00000000073749,0.547917671883784
7000.00000000793,103.983914954353,1.00000000041834,0.469323654472158
7100.0000000083,102.963817882897,1.00000000033625,0.44756420029805
7200.00000000866,101.886509147005,1.00000000067221,0.52257998418619
7300.00000000903,100.846130865585,1.00000000086383,0.570094756939035
7400.00000000939,99.8690535908998,1.00000000082426,0.559515542502053
7500.00000000975,98.9012270978175,1.0000000005546,0.486783186192873
7600.00000001012,97.8708298494226,1.00000000030298,0.414967063633928
7700.00000001048,96.778123919601,1.0000000004049,0.442823821784028
7800.00000001084,95.6821315772122,1.00000000072697,0.525707687116742
7900.00000001121,94.6329716207038,1.00000000089969,0.563172057107492
8000.00000001157,93.6418634637943,1.00000000081173,0.552645845610848
8100.00000001194,92.6761116971744,1.00000000060733,0.497916697159756
8200.0000000123,91.6912078056469,1.00000000038929,0.419181446275687
8300.00000001266,90.6744639182809,1.00000000035025,0.400079033100115
8400.00000001303,89.6458385816054,1.00000000052971,0.456492002640647
8500.00000001339,88.6337925956695,1.00000000077376,0.524054961039724
8600.00000001376,87.6585596838324,1.00000000085198,0.547106843743068
8700.00000001412,86.7241918255569,1.00000000080685,0.541309209593404
8800.00000001448,85.8161336344145,1.00000000062596,0.505601843699269
8900.00000001485,84.9132883403032,1.00000000048755,0.45128273316532
9000.00000001521,84.0077308669553,1.00000000041654,0.410091954768524
9100.00000001557,83.1055969555417,1.00000000043558,0.420360319035042
9200.00000001594,82.2150845627742,1.00000000056982,0.458286755607246
9300.0000000163,81.340226021132,1.0000000006818,0.503724277457089
9400.00000001667,80.4838662240276,1.00000000078216,0.526407091947069
9500.00000001703,79.649029741975,1.00000000077265,0.532753473305146
9600.00000001739,78.8351643256309,1.00000000070934,0.529447990990354
9700.00000001776,78.0376573622021,1.00000000059546,0.495371022188099
9800.00000001812,77.2536841518449,1.0000000004373,0.451291725562893
9900.00000001848,76.4866404090904,1.00000000043794,0.430528760403451
10000.0000000188,75.7405404000534,1.00000000051777,0.435073857480138
10100.0000000192,75.0150585431252,1.00000000053711,0.461983594017005
10200.0000000196,74.3065785465032,1.00000000053649,0.477375448456336
10300.0000000199,73.6130349738238,1.00000000062842,0.497026171576041
10400.0000000203,72.9322992268275,1.00000000062276,0.504141502039989
10500.0000000207,72.260801930464,1.00000000072323,0.517835643789682
10600.000000021,71.5948853714869,1.0000000008049,0.53340476443062
10700.0000000214,70.9373518669433,1.00000000074565,0.531373299672035
10800.0000000218,70.295203387944,1.00000000053201,0.489602418253597
10900.0000000221,69.6769463391045,1.00000000041394,0.447198002068047
11000.0000000225,69.0882681289693,1.00000000046611,0.433612437368106
11100.0000000229,68.5247348003247,1.00000000056348,0.444759170934289
11200.0000000232,67.979007752515,1.00000000064477,0.465734791494279
11300.0000000236,67.4454494793694,1.00000000066681,0.488584426301586
11400.0000000239,66.9233386792425,1.00000000058544,0.48947880338359
11500.0000000243,66.4159286446171,1.00000000053959,0.486325948261755
11600.0000000247,65.9243781254347,1.00000000054767,0.491403464825225
11700.000000025,65.4427636026757,1.00000000062635,0.500473683433045
11800.0000000254,64.9600696748026,1.00000000072456,0.517949439603649
11900.0000000258,64.469787408437,1.00000000081566,0.532329260278375
12000.0000000261,63.975922027732,1.00000000074913,0.534469255202507
12100.0000000265,63.4892444556025,1.00000000063303,0.514037537385581
12200.0000000269,63.0228395193153,1.00000000049118,0.477713968028292
12300.0000000272,62.5880555879602,1.00000000043644,0.450494012249454
12400.0000000276,62.1871939775902,1.00000000044928,0.442865073154221
12500.0000000279,61.812337407655,1.00000000055166,0.451283648916355
12600.0000000283,61.4503803311361,1.00000000063822,0.469168648108554
12700.0000000287,61.0932634211629,1.00000000068115,0.481896715353243
12800.000000029,60.739322803182,1.00000000063758,0.495128790075784
12900.0000000294,60.3909784855725,1.00000000060836,0.501633027829726
13000.0000000298,60.0516742860276,1.00000000057929,0.50388159085025
13100.0000000301,59.7229055610944,1.00000000056556,0.508737198697091
13200.0000000305,59.4022773225369,1.00000000057037,0.513667998819395
13300.0000000309,59.0860039091831,1.0000000006081,0.517098384541633
13400.0000000312,58.768410505821,1.00000000069156,0.512726989533858
13500.0000000316,58.4447792723153,1.00000000074187,0.518145230075466
13600.0000000319,58.1122479250033,1.00000000073694,0.528200410314378
13700.0000000323,57.7730244387753,1.00000000073367,0.538595113923907
13800.0000000327,57.4367844792605,1.00000000064902,0.52922308831278
13900.000000033,57.117194886916,1.00000000052161,0.505465062466632
14000.0000000334,56.8247073986384,1.00000000048168,0.476133481763355
14100.0000000338,56.5634503384751,1.00000000046904,0.462991512452104
14200.0000000341,56.3295007044939,1.00000000050849,0.469535691909864
14300.0000000345,56.115968857585,1.0000000005627,0.468856202953151
14400.0000000349,55.914833381873,1.00000000060706,0.471695854929673
14500.0000000352,55.719600691177,1.00000000065105,0.489013790061441
14600.0000000356,55.528582080531,1.00000000061297,0.494356081776888
14700.0000000359,55.3472973985188,1.00000000052751,0.491146890987574
14800.0000000363,55.1777030718125,1.00000000058124,0.495985190471987
14900.0000000367,55.0111656254788,1.0000000006267,0.510484759851812
15000.000000037,54.8374911293744,1.00000000069786,0.527935066589512
15100.0000000374,54.651171275429,1.0000000007146,0.538505932196759
15200.0000000378,54.4541832386863,1.00000000068318,0.541916080983667
15300.0000000381,54.252161116546,1.00000000060899,0.545070225384364
15400.0000000385,54.052251119843,1.00000000051861,0.53339436599015
15500.0000000389,53.8588759926746,1.00000000056099,0.520343276644539
15600.0000000392,53.6717741645272,1.00000000061294,0.512071341721805
15700.0000000396,53.4840024378181,1.00000000067069,0.510680480819312
15800.0000000399,53.2886860158998,1.00000000071492,0.525312964847608
15900.0000000403,53.0822142703484,1.00000000075132,0.538578131347168
16000.0000000407,52.8672343312314,1.00000000071221,0.544608576429764
16100.000000041,52.6529732409356,1.00000000061562,0.539300340434466
16200.0000000414,52.4519191373651,1.0000000005551,0.52283265789967
16300.0000000418,52.2743933606835,1.00000000050534,0.503762828936628
16400.0000000418,52.1260465032683,1.0000000004847,0.484614950378249
16500.0000000404,52.0059823658599,1.00000000048668,0.477649231701946
16600.0000000389,51.9085579519784,1.00000000051811,0.476484021363222
16700.0000000375,51.8225950936268,1.0000000006202,0.483755769786635
16800.000000036,51.7412645339453,1.00000000060328,0.489008424164383
16900.0000000346,51.6634086014759,1.0000000006,0.48817058420982
17000.0000000331,51.590213255613,1.00000000059433,0.492665293446647
17100.0000000317,51.5214386698516,1.00000000058843,0.503273827158262
17200.0000000302,51.4550289080113,1.00000000061121,0.517695294912873
17300.0000000287,51.3924105274217,1.00000000057605,0.524730777096173
17400.0000000273,51.3373525990817,1.0000000005688,0.528439749078077
17500.0000000258,51.2910117814611,1.00000000052854,0.529779113257686
17600.0000000244,51.2471488685556,1.00000000059929,0.53434275198298
17700.0000000229,51.1992203109479,1.00000000062841,0.538540341449714
17800.0000000215,51.137384746852,1.00000000065414,0.542518883630032
17900.00000002,51.0578288759072,1.00000000071012,0.546779881700221
18000.0000000186,50.9594642787518,1.00000000067652,0.544755962310234
18100.0000000171,50.8459682439526,1.00000000069446,0.549125102294319
18200.0000000156,50.722491161097,1.00000000060566,0.561801971011364
18300.0000000142,50.5947595581655,1.00000000059503,0.566533633526459
18400.0000000127,50.4684272083844,1.00000000058208,0.557492786299462
18500.0000000113,50.3463021240877,1.00000000053292,0.552262053709571
18600.0000000098,50.2295680282722,1.00000000058073,0.551623839106897
18700.0000000084,50.1163670135156,1.00000000059919,0.543078163054387
18800.0000000069,50.0044361821775,1.00000000066967,0.53802952793709
18900.0000000055,49.8906166223591,1.00000000065489,0.540083313947325
19000.000000004,49.7714433778037,1.00000000069445,0.547709280061055
19100.0000000026,49.6443995289632,1.00000000075258,0.556139166575851
19200.0000000011,49.5100485282515,1.00000000072543,0.561855658910458
19299.9999999996,49.3751295000083,1.00000000065102,0.559044516128576
19399.9999999982,49.2490396571519,1.00000000056052,0.546609059295656
19499.9999999967,49.1405766153896,1.00000000048977,0.53218989723253
19599.9999999953,49.0553641215309,1.00000000048363,0.519360271022919
19699.9999999938,48.9955364975358,1.00000000049013,0.506802482345264
19799.9999999924,48.9580881893272,1.00000000054921,0.498040940725551
19899.9999999909,48.9361984100619,1.00000000057748,0.500826437831818
19999.9999999895,48.9248905248337,1.00000000059168,0.506638065056757
20099.999999988,48.9219483616156,1.00000000059694,0.504246263881248
20199.9999999865,48.9249757482709,1.00000000061986,0.500797147334581
20299.9999999851,48.930244900625,1.00000000060949,0.500534467946071
20399.9999999836,48.9363625413698,1.00000000060516,0.502485150327554
20499.9999999822,48.9477352099316,1.00000000054387,0.498558037034225
20599.9999999807,48.968051940239,1.00000000056329,0.496811481316589
20699.9999999793,48.9967197341678,1.00000000058821,0.509526789964327
20799.9999999778,49.0270010426327,1.00000000060316,0.530816774166454
20899.9999999764,49.05087687295,1.00000000066669,0.545077223190168
20999.9999999749,49.0637150444633,1.00000000067281,0.551893423058101
21099.9999999734,49.0657642533203,1.00000000067021,0.561629025935587
21199.999999972,49.062281905118,1.00000000064064,0.564960849135093
21299.9999999705,49.0576730694077,1.00000000059446,0.561932748543619
21399.9999999691,49.0523995382572,1.00000000063029,0.559660063708422
21499.9999999676,49.0456906090518,1.00000000061605,0.564806882888391
21599.9999999662,49.0375491112124,1.00000000062583,0.57586906590428
21699.9999999647,49.0279746296621,1.00000000057673,0.57785660495483
21799.9999999633,49.0145781159984,1.00000000057958,0.579028713175505
21899.9999999618,48.9937413316421,1.00000000064024,0.577729357574356
21999.9999999603,48.9626210236526,1.00000000064397,0.575949211990094
22099.9999999589,48.9214107027368,1.00000000064618,0.575270564170778
22199.9999999574,48.870947872888,1.00000000064283,0.564057212460717
22299.999999956,48.8115913024112,1.00000000062949,0.551635078411185
22399.9999999545,48.7430702067632,1.00000000070763,0.555327899804447
22499.9999999531,48.6653215991112,1.00000000071584,0.570273618043153
22599.9999999516,48.5774925242032,1.00000000065502,0.579302664980246
22699.9999999502,48.4817533370899,1.00000000066858,0.582363906650981
22799.9999999487,48.3827996400832,1.0000000006435,0.579290814446597
22899.9999999473,48.2847005016157,1.00000000058149,0.577110758326731
22999.9999999458,48.1895393955786,1.00000000054974,0.577578996425103
23099.9999999443,48.0986730803148,1.00000000054873,0.581036178815516
23199.9999999429,48.0114748251775,1.00000000058388,0.581972066172702
23299.9999999414,47.9268595922244,1.00000000058547,0.575971260376631
23399.99999994,47.8436494054973,1.00000000057821,0.575573212875046
23499.9999999385,47.7611773136607,1.00000000063221,0.577814648447317
23599.9999999371,47.6784400937132,1.00000000067235,0.574077714605262
23699.9999999356,47.5932514444101,1.000000000702,0.570269468395553
23799.9999999342,47.5046367023893,1.0000000007192,0.564271955863643
23899.9999999327,47.4120360655841,1.00000000069807,0.563268119296411
23999.9999999312,47.3156090938919,1.00000000071188,0.561511980725037
24099.9999999298,47.2187853710525,1.00000000065943,0.559892547297441
24199.9999999283,47.1269506927044,1.00000000056771,0.557973914140816
24299.9999999269,47.0462069567944,1.0000000005257,0.555397355376185
24399.9999999254,46.9816588603686,1.00000000052135,0.544527836173691
24499.999999924,46.9360947423669,1.00000000051619,0.537224090330135
24599.9999999225,46.9105193405666,1.00000000051352,0.533874816809988
24699.9999999211,46.9036086706685,1.00000000054469,0.526132179171952
24799.9999999196,46.9129141614335,1.00000000056309,0.519793439338709
24899.9999999181,46.9339490646806,1.00000000057263,0.518851890060918
24999.9999999167,46.963981721787,1.00000000057115,0.517189903044537
25099.9999999152,47.0021836940206,1.0000000005733,0.51666382444758
25199.9999999138,47.0448131005738,1.00000000065577,0.517573155457516
25299.9999999123,47.0889202314173,1.00000000063917,0.520848396274889
25399.9999999109,47.1369767003531,1.00000000059204,0.521412151012291
25499.9999999094,47.191410872526,1.00000000059512,0.516103044349864
25599.999999908,47.2528799109418,1.00000000055352,0.510530001711311
25699.9999999065,47.3193018761589,1.00000000060245,0.513944617058866
25799.9999999051,47.3858345221438,1.00000000064343,0.522082497665015
25899.9999999036,47.4493271347361,1.00000000066246,0.533413719565252
25999.9999999021,47.5084762860935,1.00000000065365,0.542234243794444
26099.9999999007,47.5632200521621,1.00000000063516,0.555034255841651
26199.9999998992,47.6141419432579,1.00000000064315,0.561557927372253
26299.9999998978,47.6605831434356,1.00000000069136,0.566173845891029
26399.9999998963,47.7027428328175,1.00000000062457,0.570433891025005
26499.9999998949,47.7397531683476,1.000000000611,0.573424297370117
26599.9999998934,47.7716536591309,1.00000000059242,0.5777652010388
26699.999999892,47.79910740655,1.00000000063373,0.582029069305565
26799.9999998905,47.8230525400491,1.00000000065823,0.582891585295764
26899.999999889,47.8423256460007,1.00000000065041,0.582809588681382
26999.9999998876,47.856122907174,1.00000000062318,0.580631565634659
27099.9999998861,47.8646847632276,1.00000000064671,0.580457050789005
27199.9999998847,47.8676744478442,1.00000000065453,0.580349930406448
27299.9999998832,47.8662416037379,1.00000000065306,0.581952115555445
27399.9999998818,47.862530602495,1.00000000063601,0.587044786135052
27499.9999998803,47.858309074404,1.00000000058249,0.584498717111366
27599.9999998789,47.8545000100664,1.00000000057419,0.579791555351597
27699.9999998774,47.8501509294404,1.00000000061608,0.581912134483849
27799.9999998759,47.8427165655171,1.00000000063779,0.583072519108688
27899.9999998745,47.830936546659,1.00000000062944,0.586239586617113
27999.999999873,47.8147467436795,1.00000000064176,0.583631734461709
28099.9999998716,47.7952160481349,1.00000000061657,0.576535740619019
28199.9999998701,47.77193108715,1.00000000063618,0.576194168338191
28299.9999998687,47.7457071358076,1.00000000064315,0.577584456308524
28399.9999998672,47.7158769401896,1.00000000063698,0.578482152248181
28499.9999998658,47.6805965404016,1.00000000063827,0.58348768325662
28599.9999998643,47.6397157242737,1.00000000065965,0.584998400590157
28699.9999998629,47.5948951302644,1.00000000065117,0.590114388209813
28799.9999998614,47.5469327161403,1.00000000061201,0.594976334760458
28899.9999998599,47.4969530104396,1.000000000606,0.590914196660464
28999.9999998585,47.447549998272,1.00000000057253,0.588929059051036
