Time,AGPnorm,Energy,Entropy
0,0,1,4.51149232620601e-18
99.9999999999986,0.00959086003568686,0.999999999998318,0.0260743543356244
199.999999999993,0.0248169770865924,1.00000000000081,0.077034131854599
300,0.0488697907218337,1.00000000000138,0.15608164269371
400.000000000022,0.0736540378760807,1.00000000027849,0.280994844521265
500.000000000045,0.154521748762044,1.00000000157973,0.426450372546424
600.000000000068,0.667173282680586,1.00000000293068,0.520539871374807
700.000000000091,1.96515814518327,1.00000000340449,0.567653294994554
800.000000000113,3.96339908593991,1.00000000381705,0.588039238748656
900.000000000136,6.44700017471471,1.00000000363903,0.589769317557152
1000.00000000016,8.92280991023656,1.00000000334802,0.586248890863484
1100.0000000001,11.1750157300131,1.00000000310031,0.577774922168179
1200,12.9535678029835,1.00000000268619,0.566592061453479
1299.99999999991,14.2142772366795,1.00000000256115,0.562749318479209
1399.99999999982,14.9587518318528,1.00000000221132,0.55777031786579
1499.99999999973,15.2592526333062,1.00000000190046,0.527588014700204
1599.99999999964,15.2650869041229,1.00000000202952,0.54473670006327
1699.99999999955,14.9850576996816,1.00000000238378,0.57118341987847
1799.99999999946,14.6204784696134,1.00000000136635,0.459392898370264
1899.99999999937,14.14101361935,1.00000000318632,0.58479893426588
1999.99999999928,13.6707081167249,1.00000000128003,0.426407359767389
2099.99999999919,13.1332040445147,1.00000000284546,0.542232918783265
2199.99999999909,12.6633422997396,1.00000000221576,0.505313721915464
2299.999999999,12.1821236104748,1.00000000150513,0.419051231641841
2399.99999999891,11.6993393465362,1.00000000272242,0.544347869568216
2499.99999999882,11.2702325239545,1.00000000243595,0.527603695562869
2599.99999999873,10.8774439189838,1.00000000142837,0.403597187839152
2699.99999999864,10.4959612119409,1.00000000214575,0.505252494198511
2799.99999999855,10.1299372214278,1.00000000237824,0.53093012973012
2899.99999999846,9.78398778994025,1.0000000025435,0.555474261355099
2999.99999999837,9.49472160288172,1.00000000117005,0.415825620988
3099.99999999828,9.25910399531654,1.00000000216685,0.465720681042546
3199.99999999819,9.01110188716198,1.00000000243345,0.531885781432173
3299.99999999809,8.77722909776485,1.00000000220093,0.538435028367672
3399.999999998,8.53878511092517,1.00000000299696,0.545683444828376
3499.99999999791,8.30599806041057,1.00000000223057,0.541137349915513
3599.99999999782,8.14328211514774,1.00000000129318,0.428954783910776
3699.99999999773,8.0508036774176,1.00000000189107,0.464288671982537
3799.99999999764,7.94410641673988,1.00000000254733,0.537542173495025
3899.99999999755,7.83741977980854,1.00000000221194,0.54833208507217
3999.99999999746,7.71975627255666,1.00000000242461,0.563685626536091
4099.99999999738,7.58719134007142,1.00000000212802,0.577206829900323
4199.99999999775,7.45336341054414,1.0000000026142,0.565093843591126
4299.99999999811,7.30638283839215,1.00000000268371,0.576216140881589
4399.99999999848,7.1683239082384,1.00000000204645,0.542583336124929
4499.99999999884,7.10629701059485,1.00000000144073,0.454410636938263
4599.9999999992,7.13036116001484,1.00000000206283,0.472345563086506
4699.99999999957,7.14919586240252,1.0000000021797,0.520824752815054
4799.99999999993,7.15203770589774,1.00000000239767,0.56013621220518
4900.00000000029,7.13481329196789,1.00000000248206,0.574223012185756
5000.00000000066,7.10324285897695,1.00000000237655,0.594033879314289
5100.00000000102,7.07253161153278,1.0000000021744,0.587674324442712
5200.00000000139,7.02635146526879,1.00000000222277,0.58851710999209
5300.00000000175,6.96142142574236,1.00000000242921,0.592782350375142
5400.00000000211,6.88870837925233,1.00000000211154,0.597351543708539
5500.00000000248,6.81435695393941,1.0000000021749,0.602654037847252
5600.00000000284,6.73163055990359,1.00000000251556,0.606416506944723
5700.00000000321,6.64055391076523,1.00000000296774,0.603673665339856
5800.00000000357,6.54497041138724,1.00000000253158,0.589768378554731
5900.00000000393,6.47032683903206,1.00000000186245,0.53729956908321
6000.0000000043,6.4704540175145,1.00000000132262,0.478434157295994
6100.00000000466,6.55902013465428,1.00000000195369,0.486020882329563
6200.00000000502,6.67194721105885,1.00000000244875,0.524563906451937
6300.00000000539,6.76449515763382,1.00000000233563,0.549374854681611
6400.00000000575,6.83988750636995,1.00000000265984,0.568264528331792
6500.00000000612,6.9016324938636,1.00000000236096,0.596641905382226
6600.00000000648,6.93992839408535,1.0000000025516,0.619022767749858
6700.00000000684,6.96262273401016,1.00000000250094,0.622754674674811
6800.00000000721,6.97289267799037,1.00000000233035,0.625390782688143
6900.00000000757,6.96233071690998,1.00000000263165,0.634177386481039
7000.00000000793,6.94077917278813,1.00000000224489,0.626042387488244
7100.0000000083,6.92681948055638,1.00000000228706,0.619087250874548
7200.00000000866,6.92050589965799,1.00000000254464,0.609635262178092
7300.00000000903,6.89647747099761,1.00000000269079,0.613027198062992
7400.00000000939,6.86882209741707,1.0000000023128,0.61618261787706
7500.00000000975,6.84584234815675,1.00000000218379,0.624734481347265
7600.00000001012,6.81654953336004,1.00000000238643,0.6381069173849
7700.00000001048,6.78507373784061,1.00000000245286,0.631507671445027
7800.00000001084,6.75035726288465,1.00000000234482,0.610144800978242
7900.00000001121,6.71356787689337,1.00000000258049,0.619124679822946
8000.00000001157,6.6632728020533,1.00000000264019,0.640730185379709
8100.00000001194,6.60609972294603,1.00000000252218,0.640421779887413
8200.0000000123,6.54637121438808,1.00000000225306,0.637704523980833
8300.00000001266,6.48621231493204,1.0000000022254,0.644092647874924
8400.00000001303,6.42537638821975,1.00000000280847,0.654529019831695
8500.00000001339,6.36560845930331,1.00000000284251,0.670154307087974
8600.00000001376,6.30650807807897,1.00000000277129,0.660576387278935
8700.00000001412,6.2427291720311,1.0000000027248,0.634928683675226
8800.00000001448,6.18027551482192,1.00000000226032,0.591985571594623
8900.00000001485,6.14768850064656,1.00000000174051,0.540094539511108
9000.00000001521,6.17971924763611,1.00000000163605,0.506282889975053
9100.00000001557,6.2917825960183,1.00000000193733,0.500833305916123
9200.00000001594,6.45683217764618,1.00000000225394,0.511612580838597
9300.0000000163,6.63056148947533,1.00000000257846,0.536142210143975
9400.00000001667,6.79757095953156,1.00000000282265,0.548572698791944
9500.00000001703,6.94573840980902,1.00000000247758,0.561201262807649
9600.00000001739,7.08224652258808,1.00000000268489,0.578714534142255
9700.00000001776,7.20010078766771,1.0000000026923,0.582676875945144
9800.00000001812,7.30788634524724,1.00000000295032,0.60763220995752
9900.00000001848,7.39841537219327,1.00000000267339,0.624859288078166
10000.0000000188,7.4759666170977,1.00000000267551,0.624000233268082
10100.0000000192,7.54156216109773,1.00000000263417,0.616672953467202
10200.0000000196,7.58990667112056,1.00000000272553,0.639505775920357
10300.0000000199,7.62029813364632,1.00000000276817,0.656767809917325
10400.0000000203,7.64622751695408,1.0000000027335,0.655467552164778
10500.0000000207,7.67030960274545,1.00000000279731,0.640511758570759
10600.000000021,7.69232598947974,1.00000000298176,0.651457733539231
10700.0000000214,7.70328027573863,1.00000000280109,0.658896304190055
10800.0000000218,7.7129318151329,1.00000000276718,0.658521947032181
10900.0000000221,7.71310328073173,1.00000000287792,0.659405253144555
11000.0000000225,7.71014145661099,1.00000000280499,0.657579449329915
11100.0000000229,7.70356028020542,1.00000000282191,0.654370579877881
11200.0000000232,7.69278353485737,1.00000000261669,0.656585233793798
11300.0000000236,7.67753588464675,1.00000000289633,0.665983677508393
11400.0000000239,7.65815884749669,1.00000000296338,0.663849710611155
11500.0000000243,7.63760181644761,1.00000000283424,0.656658303716627
11600.0000000247,7.62047404420472,1.00000000283791,0.640489883208011
11700.000000025,7.60947696878657,1.00000000258358,0.62939793315268
11800.0000000254,7.61254611739049,1.0000000025062,0.614486161233335
11900.0000000258,7.62889284957826,1.00000000274264,0.622151738405347
12000.0000000261,7.64913748630656,1.00000000316477,0.634949054585933
12100.0000000265,7.66550365981486,1.00000000293179,0.621880682169107
12200.0000000269,7.6730405411453,1.00000000309984,0.634935760860074
12300.0000000272,7.67865559907205,1.00000000280811,0.629521021947571
12400.0000000276,7.69014090881371,1.00000000283945,0.634648380147941
12500.0000000279,7.69693582310044,1.00000000311298,0.628210480407679
12600.0000000283,7.70485350393194,1.00000000296803,0.647150341867162
12700.0000000287,7.7173569495868,1.0000000029048,0.658220613777297
12800.000000029,7.72597618310096,1.00000000313671,0.660931435830874
12900.0000000294,7.72644786710295,1.00000000295777,0.654225282422481
13000.0000000298,7.73081270092533,1.00000000276682,0.649879786717465
13100.0000000301,7.73792269699725,1.00000000295336,0.66018399739518
13200.0000000305,7.75177209684832,1.00000000280137,0.647562086627543
13300.0000000309,7.76695323229122,1.00000000319185,0.64554816073166
13400.0000000312,7.77410789909791,1.00000000291451,0.657649881955151
13500.0000000316,7.78040791498502,1.00000000284392,0.659235997304996
13600.0000000319,7.78762163174025,1.00000000279296,0.669459428825821
13700.0000000323,7.79404860867505,1.00000000303197,0.665361563979878
13800.0000000327,7.80169144853486,1.00000000278685,0.6432235662624
13900.000000033,7.81063100631882,1.00000000301472,0.673174066439321
14000.0000000334,7.81136383739513,1.00000000309561,0.672656139764991
14100.0000000338,7.81735602191416,1.00000000256932,0.663272476082424
14200.0000000341,7.8209195781121,1.00000000290072,0.667434984512599
14300.0000000345,7.82163128725374,1.00000000302734,0.685011093515768
14400.0000000349,7.81768622916271,1.00000000304073,0.675099117423203
14500.0000000352,7.81677404228305,1.00000000313365,0.674486522829308
14600.0000000356,7.80845430366438,1.00000000325293,0.659821519710477
14700.0000000359,7.80035765815586,1.00000000280602,0.643802953438475
14800.0000000363,7.79573435976005,1.00000000352447,0.669979853797147
14900.0000000367,7.78763318407664,1.00000000288657,0.669030430004225
15000.000000037,7.78363600443422,1.00000000291659,0.667473543858021
15100.0000000374,7.77513954639006,1.0000000033487,0.683958136268311
15200.0000000378,7.76055818613984,1.00000000285396,0.66421572889101
15300.0000000381,7.74522606285318,1.00000000269491,0.672870240481426
15400.0000000385,7.72922368661321,1.00000000298733,0.677099813095729
15500.0000000389,7.71366944934412,1.00000000282762,0.657573313084153
15600.0000000392,7.69422911839697,1.00000000333418,0.670622656388814
15700.0000000396,7.66708349949681,1.00000000320115,0.684197256480046
15800.0000000399,7.64091892555231,1.0000000029399,0.663395648381933
15900.0000000403,7.61271986667391,1.0000000030134,0.686105406421482
16000.0000000407,7.57934106878171,1.00000000346827,0.669488816120038
16100.000000041,7.54205709384198,1.00000000327875,0.665511181825397
16200.0000000414,7.50338453860177,1.0000000031854,0.670150341649824
16300.0000000418,7.46368044933256,1.00000000324315,0.680829060427019
16400.0000000418,7.42326008238535,1.00000000287903,0.679163376234834
16500.0000000404,7.38298323973904,1.00000000294109,0.679383499929063
16600.0000000389,7.34290935172974,1.00000000288044,0.665587125955386
16700.0000000375,7.30473068792329,1.00000000297553,0.662628235355554
16800.000000036,7.26782979513378,1.00000000391994,0.650246349101516
16900.0000000346,7.2343508633284,1.00000000336052,0.664602671804601
17000.0000000331,7.20407287294534,1.00000000380964,0.66857848438949
17100.0000000317,7.17723358342269,1.00000000351224,0.680535736655449
17200.0000000302,7.15419206144271,1.00000000348816,0.686579715174621
17300.0000000287,7.12870516285334,1.00000000348826,0.680170263422054
17400.0000000273,7.10101218441552,1.00000000353481,0.668021264268815
17500.0000000258,7.06529863670175,1.00000000347245,0.629794041628985
17600.0000000244,7.02733881790708,1.00000000301186,0.612763044413354
17700.0000000229,6.99853779719351,1.00000000250028,0.603532699545437
17800.0000000215,6.9922481614393,1.00000000244803,0.577399636023069
17900.00000002,7.0314465440634,1.00000000254019,0.554729687762476
18000.0000000186,7.13078091589979,1.00000000246587,0.539484544637257
18100.0000000171,7.30591858618261,1.00000000258898,0.536300732501964
18200.0000000156,7.54656706226073,1.00000000266526,0.538153671143361
18300.0000000142,7.86511325956353,1.00000000285275,0.547663874904504
18400.0000000127,8.20830371646085,1.00000000332693,0.545458734609173
18500.0000000113,8.59606341838408,1.00000000338076,0.552226695168579
18600.0000000098,8.96593341369706,1.0000000034868,0.563456307516035
18700.0000000084,9.35600439594137,1.00000000328742,0.568808257755725
18800.0000000069,9.72536667769938,1.0000000034076,0.573001446685781
18900.0000000055,10.0891472106613,1.00000000313251,0.578102909111316
19000.000000004,10.4442241840553,1.00000000354613,0.580709524197859
19100.0000000026,10.7862072032878,1.00000000332368,0.587148559653976
19200.0000000011,11.1304178806764,1.00000000350401,0.591623649214807
19299.9999999996,11.457451202254,1.00000000335855,0.595025098412644
19399.9999999982,11.7909275713558,1.00000000335471,0.616795885029801
19499.9999999967,12.1038707227551,1.00000000342185,0.627317575321383
19599.9999999953,12.4168234858239,1.00000000348585,0.631379175736275
19699.9999999938,12.7149749787934,1.00000000371699,0.646652901933429
19799.9999999924,12.99691686103,1.00000000331547,0.647579820582016
19899.9999999909,13.2820574588264,1.00000000389226,0.660321008972946
19999.9999999895,13.5323756239331,1.00000000342585,0.660860176347879
20099.999999988,13.7876416734246,1.00000000365781,0.672523132783522
20199.9999999865,14.0234776751135,1.00000000370844,0.666105967054031
20299.9999999851,14.2539822900855,1.00000000340918,0.652079544332613
20399.9999999836,14.4741107337604,1.00000000354083,0.678822323375875
20499.9999999822,14.6745483647611,1.00000000385079,0.690498389212928
20599.9999999807,14.8751004600871,1.00000000346032,0.690819429554293
20699.9999999793,15.0584242679015,1.00000000341306,0.674875509469766
20799.9999999778,15.2414014571146,1.00000000331344,0.678454924242774
20899.9999999764,15.4013300134952,1.0000000036002,0.69439809955722
20999.9999999749,15.5584756773084,1.00000000352641,0.680938594422956
21099.9999999734,15.7107716805272,1.00000000360811,0.693553270929253
21199.999999972,15.8582292531137,1.00000000349718,0.689839707078036
21299.9999999705,16.0056242622633,1.00000000314463,0.690926248118739
21399.9999999691,16.1487779768336,1.00000000343848,0.695614668185934
21499.9999999676,16.2908995498739,1.00000000387499,0.699885230611222
21599.9999999662,16.4259513711364,1.00000000350869,0.682574817136258
21699.9999999647,16.5659620121603,1.00000000312692,0.639232888401879
21799.9999999633,16.7021940510435,1.00000000359151,0.674731499521879
21899.9999999618,16.8342406197041,1.00000000300678,0.679581090709232
21999.9999999603,16.9726814902214,1.00000000364469,0.685316697265652
22099.9999999589,17.1086791842204,1.00000000343457,0.664198828715043
22199.9999999574,17.2519737664202,1.00000000376925,0.68944479807842
22299.999999956,17.3842608585787,1.00000000358295,0.699507466860312
22399.9999999545,17.5021190834754,1.00000000357504,0.694663071283585
22499.9999999531,17.6107794189265,1.00000000355691,0.679910101270141
22599.9999999516,17.7211097241951,1.00000000353864,0.683953718353224
22699.9999999502,17.8329030006347,1.00000000387074,0.6875107681409
22799.9999999487,17.9365832600498,1.00000000371902,0.688891273317148
22899.9999999473,18.0378651609525,1.0000000034492,0.673558633010564
22999.9999999458,18.1339801033617,1.00000000399671,0.697256058069072
23099.9999999443,18.2400610359924,1.00000000342147,0.67004120183955
23199.9999999429,18.3596658266294,1.00000000338475,0.673009313974064
23299.9999999414,18.4884425515175,1.00000000379708,0.697937638673765
23399.99999994,18.6028444336347,1.00000000416869,0.685228780453649
23499.9999999385,18.7102108842684,1.00000000402293,0.677018065266736
23599.9999999371,18.8196226106979,1.00000000379697,0.691098859015236
23699.9999999356,18.9314495179875,1.00000000328112,0.689342817470047
23799.9999999342,19.0446532989542,1.00000000353583,0.682493095586389
23899.9999999327,19.1589751345768,1.00000000367269,0.677724203530203
23999.9999999312,19.2805002951295,1.00000000388437,0.679268057167536
24099.9999999298,19.4011669869026,1.00000000369579,0.69891036287857
24199.9999999283,19.5080831513209,1.00000000362399,0.704603266092754
24299.9999999269,19.6185551196976,1.00000000325348,0.692949794172941
24399.9999999254,19.7337992310627,1.0000000038546,0.677814858078004
24499.999999924,19.8506152430866,1.00000000409715,0.68894765787384
24599.9999999225,19.9615846076943,1.00000000366687,0.695986797384103
24699.9999999211,20.0719119881944,1.00000000376501,0.69728536744669
24799.9999999196,20.1943250081449,1.00000000349696,0.671937670047621
24899.9999999181,20.3408425171902,1.00000000379581,0.669811887647423
24999.9999999167,20.4883671037741,1.00000000412772,0.692206617520722
25099.9999999152,20.6200195466039,1.00000000429096,0.690360024360376
25199.9999999138,20.7423175557203,1.00000000430537,0.68935627332905
25299.9999999123,20.8559469534484,1.00000000382743,0.70094339305135
25399.9999999109,20.9652026705603,1.00000000370551,0.68664340044185
25499.9999999094,21.0849425583654,1.00000000355942,0.689325506837668
25599.999999908,21.2041690719331,1.000000003803,0.696001194879599
25699.9999999065,21.3216040491317,1.0000000040142,0.682082677538227
25799.9999999051,21.4406989385937,1.00000000417396,0.677301858227835
25899.9999999036,21.5608842548359,1.00000000393595,0.681168045059616
25999.9999999021,21.6823389702135,1.00000000373975,0.685791592484272
26099.9999999007,21.8123633208704,1.0000000037848,0.675205000274043
26199.9999998992,21.955356149652,1.00000000408157,0.679746797585927
26299.9999998978,22.1074540023968,1.00000000372315,0.681645469209042
26399.9999998963,22.2776689610488,1.00000000390958,0.678086673563916
26499.9999998949,22.4707488715077,1.00000000387605,0.696521045629766
26599.9999998934,22.6617328422149,1.00000000399363,0.698401354499565
26699.999999892,22.8469704048453,1.00000000440053,0.694422598114776
26799.9999998905,23.0159635576682,1.0000000043036,0.688792570630899
26899.999999889,23.1757575325801,1.0000000042217,0.687831676302953
26999.9999998876,23.3315173738093,1.0000000042525,0.708384495508504
27099.9999998861,23.4856603931013,1.00000000384579,0.700846251694145
27199.9999998847,23.6426432716429,1.00000000411475,0.694592394949645
27299.9999998832,23.797241682197,1.00000000464862,0.700146154712253
27399.9999998818,23.9522816948341,1.00000000365874,0.690926314098875
27499.9999998803,24.1227970586742,1.00000000385327,0.693287809374979
27599.9999998789,24.3039112873228,1.00000000397413,0.694882472529253
27699.9999998774,24.495222161556,1.00000000402577,0.695661301248872
27799.9999998759,24.6902265168892,1.00000000450732,0.687298479485379
27899.9999998745,24.8829532776773,1.00000000405621,0.687245715462373
27999.999999873,25.0773744677697,1.00000000414461,0.690502401499672
28099.9999998716,25.2587783334585,1.00000000478025,0.702783053872255
28199.9999998701,25.437888381554,1.0000000040659,0.684373546092995
28299.9999998687,25.6281891506195,1.00000000377632,0.679948693307668
28399.9999998672,25.8273543905412,1.00000000353595,0.681729231506312
28499.9999998658,26.0303726595049,1.00000000374812,0.689709781206962
28599.9999998643,26.2233565146844,1.00000000408467,0.702502714928139
28699.9999998629,26.4183835820276,1.00000000448442,0.694098744601387
28799.9999998614,26.6098334610383,1.00000000448676,0.702837912053548
28899.9999998599,26.7873506722411,1.00000000399925,0.702754369972757
28999.9999998585,26.9637213918179,1.0000000042742,0.692451298184689
