Time,AGPnorm,Energy,Entropy
0,0,1,-2.13561766921019e-19
99.9999999999986,0.00621165524140661,0.999999999995851,0.01851012915036
199.999999999993,0.0172031047900797,1.00000000000036,0.0539916414249626
300,0.0352130987565259,0.999999999996354,0.106638421332614
400.000000000022,0.0526646977535156,1.00000000001002,0.178868963036352
500.000000000045,0.0698374870952802,1.00000000021626,0.28508130342229
600.000000000068,0.159144697261486,1.00000000094125,0.40300122902496
700.000000000091,0.551979102330401,1.0000000017458,0.489776537399258
800.000000000113,1.63161349815584,1.00000000222504,0.539719382784629
900.000000000136,3.54330398165641,1.00000000226794,0.56638332953393
1000.00000000016,6.14536721943835,1.00000000247716,0.576293279785269
1100.0000000001,9.18326114856116,1.00000000251982,0.577377639367425
1200,12.3063010979431,1.00000000238904,0.570702691211606
1299.99999999991,15.2434969662732,1.0000000021604,0.566629346701223
1399.99999999982,17.8050979377369,1.00000000201818,0.559276223062992
1499.99999999973,19.846968593313,1.00000000179366,0.547709309157995
1599.99999999964,21.3676060146216,1.0000000015612,0.537188939882093
1699.99999999955,22.3490814869206,1.0000000015277,0.547885001191952
1799.99999999946,22.8804614118331,1.00000000120496,0.504310145732784
1899.99999999937,23.0311953821314,1.00000000168788,0.564681835533439
1999.99999999928,22.876415126892,1.00000000094518,0.465092964643465
2099.99999999919,22.5043477135362,1.00000000193059,0.578228408976057
2199.99999999909,22.0641786011198,1.00000000098885,0.450737057169523
2299.999999999,21.4246842306224,1.00000000153333,0.510483314527679
2399.99999999891,20.8551583628749,1.00000000204863,0.569155887951246
2499.99999999882,20.2590606059808,1.0000000007495,0.377702216480514
2599.99999999873,19.5750145810075,1.0000000015201,0.485779818109373
2699.99999999864,18.9549195496623,1.00000000218148,0.571554832000183
2799.99999999855,18.4018172912399,1.00000000131479,0.468419053904232
2899.99999999846,17.8279065986714,1.0000000008405,0.360596128977696
2999.99999999837,17.2560275708122,1.00000000155871,0.497354859189687
3099.99999999828,16.7092502624746,1.00000000184441,0.535515449940509
3199.99999999819,16.2157513589707,1.00000000179913,0.56128318156406
3299.99999999809,15.7562495654587,1.00000000078087,0.406508403261418
3399.999999998,15.3473966590766,1.00000000105546,0.375025763642531
3499.99999999791,14.9602540963131,1.00000000164107,0.498688573214333
3599.99999999782,14.5734105803944,1.00000000138652,0.526644054823266
3699.99999999773,14.2012231302591,1.00000000158504,0.510079319629097
3799.99999999764,13.8289980888159,1.00000000211037,0.573584167941364
3899.99999999755,13.4842025673121,1.00000000130751,0.504721468627513
3999.99999999746,13.206904005846,1.00000000073019,0.375973387035083
4099.99999999738,13.0223414063927,1.00000000122962,0.394680061903804
4199.99999999775,12.8484534082013,1.00000000163767,0.497844089017234
4299.99999999811,12.6523780894396,1.00000000166695,0.538125691709334
4399.99999999848,12.4374560986519,1.00000000156096,0.544681769978839
4499.99999999884,12.2305340266947,1.0000000013153,0.532744399955948
4599.9999999992,12.017157244745,1.0000000016522,0.528223351729192
4699.99999999957,11.7858418627451,1.00000000186408,0.555999040331508
4799.99999999993,11.5488700534243,1.00000000183979,0.579164752951922
4900.00000000029,11.3384516429094,1.00000000102048,0.489027247057792
5000.00000000066,11.217430832584,1.00000000074333,0.391015049948099
5100.00000000102,11.2092141290256,1.00000000114392,0.398267267835222
5200.00000000139,11.2434745410718,1.00000000155918,0.464567714683554
5300.00000000175,11.2397896657018,1.00000000179475,0.530808868673532
5400.00000000211,11.2067107210295,1.00000000145455,0.550469341196319
5500.00000000248,11.163044885877,1.00000000149577,0.556893552181727
5600.00000000284,11.0962327297943,1.00000000161353,0.566922433763803
5700.00000000321,11.0045481720595,1.00000000153,0.548623738458161
5800.00000000357,10.8979823283478,1.00000000163919,0.571581613477154
5900.00000000393,10.7867190020849,1.00000000146051,0.566164001919448
6000.0000000043,10.6822141116035,1.0000000012576,0.571435954386121
6100.00000000466,10.5667762250773,1.00000000155056,0.577996646301701
6200.00000000502,10.4359084122614,1.00000000168421,0.581531477194284
6300.00000000539,10.2904825673199,1.00000000197023,0.589701555310846
6400.00000000575,10.1382632459501,1.00000000182555,0.589799465305121
6500.00000000612,9.99745850718694,1.00000000121383,0.529227337254713
6600.00000000648,9.9104796975174,1.00000000082942,0.448968552891872
6700.00000000684,9.9317532294211,1.00000000075032,0.402999828753815
6800.00000000721,10.0593971482866,1.00000000113406,0.423879596646028
6900.00000000757,10.2342398818466,1.00000000140396,0.458314044870418
7000.00000000793,10.3869168714783,1.00000000159382,0.504444735295551
7100.0000000083,10.5116800528534,1.00000000157548,0.536686987049296
7200.00000000866,10.6027470143881,1.00000000157785,0.562292647247279
7300.00000000903,10.6674473483294,1.00000000160609,0.568834330699943
7400.00000000939,10.7101864917,1.00000000162087,0.587751496891407
7500.00000000975,10.7169135556941,1.00000000171808,0.596968583203856
7600.00000001012,10.6948101916535,1.00000000161593,0.593619856906857
7700.00000001048,10.6647903687875,1.00000000151155,0.570413173508986
7800.00000001084,10.6310717118461,1.00000000147685,0.566504616289032
7900.00000001121,10.593688710172,1.00000000157066,0.548002255316413
8000.00000001157,10.5499522629965,1.00000000162083,0.548378775156778
8100.00000001194,10.5016819656014,1.00000000153434,0.575399558849995
8200.0000000123,10.4552654882108,1.00000000145331,0.569624675031301
8300.00000001266,10.4085618419652,1.00000000154843,0.57220772119952
8400.00000001303,10.3635766613606,1.00000000144826,0.574680480690871
8500.00000001339,10.3156524806325,1.00000000159141,0.57134632491361
8600.00000001376,10.2597710734872,1.00000000147519,0.563670844955913
8700.00000001412,10.1948811738176,1.00000000167221,0.574098581505835
8800.00000001448,10.1182488523919,1.0000000015406,0.600997528926107
8900.00000001485,10.0362320804854,1.00000000139375,0.603547015976313
9000.00000001521,9.95730518625756,1.00000000134626,0.60126755661422
9100.00000001557,9.87535189452392,1.00000000149792,0.601851451561373
9200.00000001594,9.78865080432352,1.00000000170804,0.597018261260858
9300.0000000163,9.69908761102193,1.00000000176492,0.599888282920434
9400.00000001667,9.60998431277248,1.00000000203897,0.592165203370305
9500.00000001703,9.52352973148522,1.00000000205003,0.579284035750814
9600.00000001739,9.43444105917523,1.00000000185563,0.579363545097914
9700.00000001776,9.34027154669579,1.00000000143974,0.554181874015458
9800.00000001812,9.25260529823831,1.00000000112642,0.507057821308267
9900.00000001848,9.20494050055954,1.00000000089561,0.45387818762346
10000.0000000188,9.23600790158013,1.00000000080664,0.417950470581528
10100.0000000192,9.37332539521213,1.00000000097557,0.411824660045509
10200.0000000196,9.59847667650323,1.00000000108446,0.430976650825812
10300.0000000199,9.87660387168538,1.00000000166393,0.449466131333148
10400.0000000203,10.1566326514876,1.00000000143751,0.480835165293395
10500.0000000207,10.4217884291593,1.00000000176908,0.509482330873126
10600.000000021,10.6548868107679,1.00000000167634,0.527277678996605
10700.0000000214,10.8651553731795,1.000000001529,0.546298848250693
10800.0000000218,11.0487953414147,1.00000000155044,0.568429215449023
10900.0000000221,11.2110336241102,1.00000000161183,0.583853271715921
11000.0000000225,11.3408119771144,1.00000000168999,0.591605174898645
11100.0000000229,11.4465729002764,1.00000000160492,0.602596578704713
11200.0000000232,11.5328461182477,1.00000000173159,0.618369850821803
11300.0000000236,11.5954892667054,1.0000000017317,0.624363696494275
11400.0000000239,11.6315581743471,1.00000000179627,0.626849699477816
11500.0000000243,11.6490966974406,1.00000000158481,0.626160264008883
11600.0000000247,11.6544058205809,1.00000000160547,0.625185330011805
11700.000000025,11.6501086488471,1.00000000163522,0.617382674598022
11800.0000000254,11.6408326727979,1.00000000161922,0.620515206362018
11900.0000000258,11.6184936301508,1.00000000174657,0.620121721716511
12000.0000000261,11.5916456622471,1.00000000140952,0.599568350706723
12100.0000000265,11.5626116023723,1.00000000171327,0.617110499434649
12200.0000000269,11.5222918576131,1.00000000160503,0.61215623287429
12300.0000000272,11.4774672414346,1.00000000160164,0.62172642151005
12400.0000000276,11.4268179665592,1.00000000164647,0.627055499930022
12500.0000000279,11.3697570046612,1.00000000175576,0.640823858858361
12600.0000000283,11.3080730122268,1.00000000167464,0.64239240589686
12700.0000000287,11.2487666863433,1.00000000144104,0.626192857660644
12800.000000029,11.1970859964703,1.00000000143073,0.60792253405267
12900.0000000294,11.153817091862,1.00000000153432,0.602792767281328
13000.0000000298,11.1159639176776,1.00000000170725,0.59618440039231
13100.0000000301,11.0811815403557,1.00000000155846,0.602292241060417
13200.0000000305,11.0485529060375,1.00000000162132,0.600612834390447
13300.0000000309,11.0166369310482,1.00000000162313,0.609533598190453
13400.0000000312,10.9837807849636,1.00000000162282,0.620769937907408
13500.0000000316,10.9533906062828,1.000000001578,0.611429298942583
13600.0000000319,10.920079655885,1.00000000177787,0.599523929065447
13700.0000000323,10.8873931289609,1.00000000150442,0.612655398681876
13800.0000000327,10.8584583281385,1.00000000166915,0.599051569400196
13900.000000033,10.8320399017339,1.0000000016362,0.584112786701102
14000.0000000334,10.8039819213453,1.0000000017245,0.584504875812208
14100.0000000338,10.7752919240495,1.00000000162252,0.580278560384565
14200.0000000341,10.750099609869,1.00000000172659,0.58985084877394
14300.0000000345,10.7202261292234,1.00000000174689,0.625034265647836
14400.0000000349,10.6887274616276,1.00000000166941,0.621106188872221
14500.0000000352,10.6586028929541,1.00000000158553,0.604198583889985
14600.0000000356,10.6268727126085,1.00000000183581,0.603074568184604
14700.0000000359,10.5955924184424,1.00000000156847,0.615445998269688
14800.0000000363,10.5700217890722,1.00000000179602,0.615236775256068
14900.0000000367,10.5428760570503,1.00000000180443,0.632367150991257
15000.000000037,10.5107519467784,1.00000000165787,0.62933936794486
15100.0000000374,10.4820838395454,1.00000000161902,0.615775837505948
15200.0000000378,10.4547279283423,1.00000000176775,0.634399913203186
15300.0000000381,10.4199990789903,1.00000000170535,0.631945070708974
15400.0000000385,10.382395709555,1.00000000183609,0.613398927696697
15500.0000000389,10.3423049942419,1.00000000163633,0.622529773326545
15600.0000000392,10.3041138471724,1.00000000153467,0.637036979199766
15700.0000000396,10.2697698800132,1.00000000161055,0.642264384195128
15800.0000000399,10.2355938304884,1.00000000173437,0.635528035622536
15900.0000000403,10.1968760880859,1.00000000186061,0.63589977772256
16000.0000000407,10.1554898501329,1.00000000173912,0.634170399274025
16100.000000041,10.1185483133859,1.00000000157125,0.625904166791779
16200.0000000414,10.078395273764,1.00000000211064,0.640477049209778
16300.0000000418,10.0363827421572,1.00000000169083,0.630775010512844
16400.0000000418,9.99700502464002,1.00000000163264,0.623128680637088
16500.0000000404,9.95795233962544,1.00000000176734,0.619824154299231
16600.0000000389,9.91785246710337,1.00000000170436,0.625366391428242
16700.0000000375,9.87554661925665,1.00000000180215,0.642101407222818
16800.000000036,9.83128923506784,1.00000000164677,0.649254147846024
16900.0000000346,9.78472691163196,1.0000000017395,0.636243013760487
17000.0000000331,9.73742139826671,1.00000000187624,0.639396546798272
17100.0000000317,9.6876802214233,1.00000000188652,0.636750065331248
17200.0000000302,9.63730804514973,1.00000000168712,0.637834222399169
17300.0000000287,9.5876470495205,1.00000000162254,0.639975041510306
17400.0000000273,9.53569010356542,1.0000000019329,0.658361723827067
17500.0000000258,9.4822271812748,1.00000000193091,0.652287615372009
17600.0000000244,9.42924557112157,1.00000000157324,0.632051499015836
17700.0000000229,9.37647513065605,1.00000000161828,0.629586592130032
17800.0000000215,9.32422988154159,1.00000000176223,0.654693592592984
17900.00000002,9.27288206912831,1.00000000160869,0.628193705878235
18000.0000000186,9.22207662716508,1.00000000164258,0.628988064822797
18100.0000000171,9.1725521235957,1.00000000160084,0.631084120652713
18200.0000000156,9.12520025883758,1.0000000016395,0.634128077143037
18300.0000000142,9.08186024203419,1.00000000179721,0.637636424540204
18400.0000000127,9.04504784101802,1.00000000189573,0.645401880073166
18500.0000000113,9.01556105881976,1.00000000198085,0.659442704764576
18600.0000000098,8.99945047638771,1.00000000237343,0.655054989997151
18700.0000000084,8.99168604268488,1.00000000207223,0.663188098604222
18800.0000000069,9.00425427245038,1.00000000254854,0.653411067140768
18900.0000000055,9.02163445242889,1.00000000218081,0.65843670774611
19000.000000004,9.05957093801199,1.00000000215451,0.637871868194644
19100.0000000026,9.09243397323965,1.00000000230541,0.622628593503973
19200.0000000011,9.13315365229436,1.0000000021332,0.606173898632318
19299.9999999996,9.15375561269908,1.00000000193668,0.594760178096899
19399.9999999982,9.1581089385002,1.00000000174717,0.586674291486947
19499.9999999967,9.13856478564234,1.0000000016004,0.560885834909812
19599.9999999953,9.10134221521489,1.00000000133843,0.530335160680054
19699.9999999938,9.06254244694324,1.00000000109594,0.506009599193885
19799.9999999924,9.03864058520406,1.00000000114779,0.480593360052891
19899.9999999909,9.054861712245,1.00000000105346,0.458679679201854
19999.9999999895,9.1325255055544,1.00000000113816,0.442187443329473
20099.999999988,9.29381990978475,1.00000000115928,0.437911122728282
20199.9999999865,9.53608599264843,1.00000000117364,0.441609926899058
20299.9999999851,9.8796213113121,1.00000000129445,0.448412742254688
20399.9999999836,10.2734883707546,1.00000000150697,0.45605073587862
20499.9999999822,10.7454606349358,1.00000000159011,0.469107267379507
20599.9999999807,11.2165887780576,1.0000000017662,0.480758217168936
20699.9999999793,11.7250635881277,1.00000000190041,0.490169881970735
20799.9999999778,12.2100392725911,1.00000000196878,0.503525556357553
20899.9999999764,12.6954734834746,1.00000000183106,0.511064768024228
20999.9999999749,13.1608540153591,1.00000000197708,0.526292527090005
21099.9999999734,13.5989314678783,1.00000000206256,0.531002354441129
21199.999999972,14.0254616338658,1.00000000223767,0.547489381195517
21299.9999999705,14.4160385024821,1.0000000020162,0.55490493076825
21399.9999999691,14.8073344997511,1.00000000194007,0.564033830282298
21499.9999999676,15.172026140407,1.00000000197793,0.572958385390816
21599.9999999662,15.5266778463273,1.00000000186285,0.57618594465768
21699.9999999647,15.8759193510998,1.00000000191215,0.585517092738667
21799.9999999633,16.1909398647886,1.00000000214703,0.595267535693054
21899.9999999618,16.4926157434525,1.00000000203546,0.608474398938855
21999.9999999603,16.7674610109955,1.00000000189922,0.614436046198284
22099.9999999589,17.0347911004809,1.00000000189312,0.625642559330237
22199.9999999574,17.2670496015296,1.00000000209663,0.624852807877777
22299.999999956,17.4818015338317,1.0000000019862,0.642280236949117
22399.9999999545,17.6721674389292,1.00000000204717,0.649142943109377
22499.9999999531,17.8480711597113,1.00000000209842,0.645874491551418
22599.9999999516,18.0178714769793,1.00000000194301,0.642834824031399
22699.9999999502,18.1649470006538,1.00000000194239,0.64818046715271
22799.9999999487,18.3025496196837,1.00000000203488,0.650151357704154
22899.9999999473,18.4157457694164,1.0000000020555,0.650442167825991
22999.9999999458,18.5216518793507,1.00000000190792,0.649134055694487
23099.9999999443,18.6128263614441,1.00000000187987,0.65873566226988
23199.9999999429,18.6946547871698,1.00000000211586,0.649901377363244
23299.9999999414,18.7666072361978,1.00000000205246,0.665035123576133
23399.99999994,18.8274829265493,1.0000000020725,0.655821562862774
23499.9999999385,18.8862901332864,1.0000000018428,0.646392292026203
23599.9999999371,18.9346354440709,1.0000000020468,0.650405811636594
23699.9999999356,18.972846822337,1.00000000210563,0.640001429123591
23799.9999999342,18.9944293779641,1.00000000197011,0.661922597765146
23899.9999999327,19.0099156197824,1.00000000187688,0.646318617491187
23999.9999999312,19.0313486021482,1.00000000185611,0.654347767705008
24099.9999999298,19.0525654296972,1.00000000175612,0.641278907700993
24199.9999999283,19.0745395004845,1.00000000207142,0.657914206835057
24299.9999999269,19.0860967494927,1.00000000185085,0.657257107167648
24399.9999999254,19.0919060212146,1.00000000205757,0.656136813889117
24499.999999924,19.0868252968923,1.00000000204596,0.652568759930058
24599.9999999225,19.0789177972553,1.00000000191745,0.649924696697252
24699.9999999211,19.0705567896027,1.00000000187366,0.648302404702355
24799.9999999196,19.0671793201551,1.00000000187907,0.620031211287999
24899.9999999181,19.0637861485015,1.00000000202436,0.633054252875791
24999.9999999167,19.049121723178,1.00000000212528,0.630291713222641
25099.9999999152,19.0271552370931,1.00000000218986,0.632653106191708
25199.9999999138,19.0060692985845,1.00000000176887,0.611230823082732
25299.9999999123,18.9952276403984,1.00000000172185,0.623383067290712
25399.9999999109,18.988425382277,1.00000000209124,0.658661725676718
25499.9999999094,18.9735454565247,1.00000000213928,0.660013536488216
25599.999999908,18.9504913009933,1.00000000199689,0.654975992797083
25699.9999999065,18.9236126677716,1.00000000217004,0.660249442665309
25799.9999999051,18.8986181734169,1.00000000192966,0.643818079127483
25899.9999999036,18.8746452022466,1.00000000219669,0.644544074705187
25999.9999999021,18.8512959379308,1.00000000198302,0.647316208455821
26099.9999999007,18.8302510837087,1.00000000177705,0.628763521831955
26199.9999998992,18.8195087316698,1.00000000189816,0.62180718899437
26299.9999998978,18.8086493113388,1.00000000209438,0.652977725877817
26399.9999998963,18.7859753133286,1.00000000220643,0.639440987037081
26499.9999998949,18.7599585466117,1.0000000021569,0.622077615116198
26599.9999998934,18.7363195495103,1.00000000187844,0.616202986343693
26699.999999892,18.7221213597687,1.00000000190034,0.648012625395542
26799.9999998905,18.7037996451147,1.00000000229888,0.666214802730984
26899.999999889,18.6784492933283,1.00000000222864,0.653422103334433
26999.9999998876,18.6527283318085,1.00000000180708,0.650441219187745
27099.9999998861,18.6341074109485,1.00000000188929,0.645421156370153
27199.9999998847,18.6186477594525,1.00000000216668,0.642292211519412
27299.9999998832,18.6037028882139,1.00000000203751,0.642693126661846
27399.9999998818,18.5843380331284,1.00000000226962,0.643619868681666
27499.9999998803,18.5586531785326,1.00000000212509,0.64384031148943
27599.9999998789,18.5314398144516,1.00000000223398,0.632687803181792
27699.9999998774,18.5028455989258,1.00000000207675,0.648237107823428
27799.9999998759,18.4740058616415,1.00000000205351,0.639767680012158
27899.9999998745,18.4439440025135,1.00000000183088,0.640375531011113
27999.999999873,18.4149122053615,1.00000000211714,0.622774073402401
28099.9999998716,18.383710058936,1.0000000020191,0.643607834947081
28199.9999998701,18.3485438320158,1.00000000220573,0.63550309767461
28299.9999998687,18.3122368612974,1.0000000020844,0.629562531533641
28399.9999998672,18.279611265209,1.00000000197565,0.611624716801248
28499.9999998658,18.2483554909985,1.00000000215639,0.632114087090083
28599.9999998643,18.2154088191666,1.00000000210171,0.644352114509763
28699.9999998629,18.1811954886412,1.00000000231039,0.631307385726473
28799.9999998614,18.1500155290088,1.00000000209178,0.618324841719293
28899.9999998599,18.1250106418551,1.00000000192788,0.634139135841722
28999.9999998585,18.1023509150349,1.00000000208833,0.654006075713695
29099.999999857,18.077876966113,1.00000000211595,0.658058534225247
