Time,AGPnorm,Energy,Entropy
0,0,1,-1.22130635457943e-17
99.9999999999986,1.03834167307143e-05,0.999999999999595,0.000484364167119043
199.999999999993,0.000881105108308464,1.00000000000076,0.00076011477111798
300,0.00217513412257425,0.999999999999401,0.00135041159261305
400.000000000022,0.00299739685476505,1.00000000000033,0.00233931942822461
500.000000000045,0.00369493095852682,1.00000000000024,0.00311029425827436
600.000000000068,0.00534781648023424,0.999999999999448,0.00439322336811704
700.000000000091,0.0065467300039034,1.00000000000074,0.00563715029360475
800.000000000113,0.00841115863736104,0.999999999999587,0.00694766763033484
900.000000000136,0.0106117408775447,1.00000000000009,0.00860882608959558
1000.00000000016,0.0123887771635506,1.00000000000042,0.0100883135871254
1100.0000000001,0.0148743895988768,0.99999999999939,0.0118969888972953
1200,0.0173792366641231,1.00000000000064,0.0137632914932887
1299.99999999991,0.0202179205245009,0.99999999999981,0.015594243011443
1399.99999999982,0.0233938126429739,0.999999999999871,0.0177469287980185
1499.99999999973,0.0261979306708108,1.00000000000052,0.0197712253389948
1599.99999999964,0.0295542997101761,0.999999999999423,0.0220045445504195
1699.99999999955,0.0331568856710205,1.0000000000005,0.0243666546011277
1799.99999999946,0.0369055832417047,1.00000000000003,0.0266460479359215
1899.99999999937,0.0409150803233037,0.999999999999685,0.0292115689099018
1999.99999999928,0.0446595038392621,1.00000000000055,0.0317106097894305
2099.99999999919,0.0488603802051967,0.99999999999954,0.0343306615007651
2199.99999999909,0.0533920567791335,1.00000000000034,0.0371318281303247
2299.999999999,0.0578804521359396,1.00000000000021,0.0398397124837202
2399.99999999891,0.0625428940691675,0.999999999999553,0.0427905296818536
2499.99999999882,0.0671436916520892,1.00000000000051,0.0457399650214015
2599.99999999873,0.0721374791694239,0.999999999999719,0.0487504263255137
2699.99999999864,0.0774096490608943,1.00000000000017,0.0519764019308668
2799.99999999855,0.08246020155087,1.00000000000031,0.0551245862651436
2899.99999999846,0.0876130091084966,0.999999999999498,0.0584701701284322
2999.99999999837,0.0929554233972368,1.00000000000045,0.0618841160475835
3099.99999999828,0.098614312472486,0.999999999999924,0.0653241906010607
3199.99999999819,0.104408769416977,0.999999999999993,0.0690002513315381
3299.99999999809,0.109881227858003,1.00000000000034,0.072629232623172
3399.999999998,0.11544432935723,0.999999999999534,0.0764196375637424
3499.99999999791,0.121374835485992,1.00000000000039,0.0803550664792717
3599.99999999782,0.127490712664624,1.0000000000001,0.0843017675440583
3699.99999999773,0.133561078628898,0.999999999999815,0.0884980618101197
3799.99999999764,0.13935645468224,1.0000000000003,0.0926974186980091
3899.99999999755,0.145307894203372,0.999999999999654,0.0970406883676306
3999.99999999746,0.151642076075962,1.00000000000035,0.101610167942785
4099.99999999738,0.15797135039075,1.00000000000022,0.106207696904607
4199.99999999775,0.164100351540992,0.999999999999687,0.111064357663559
4299.99999999811,0.170131657559173,1.00000000000026,0.11601173094064
4399.99999999848,0.176421227661981,0.999999999999847,0.121122257977678
4499.99999999884,0.182964258993288,1.0000000000003,0.126558427889692
4599.9999999992,0.18926665380813,1.00000000000032,0.132074456927564
4699.99999999957,0.195370493465897,0.999999999999736,0.137900320400111
4799.99999999993,0.201530790803272,1.0000000000004,0.143971437359625
4900.00000000029,0.208046691139114,1.00000000000036,0.150286999991025
5000.00000000066,0.21461707379998,1.00000000000069,0.157075137854208
5100.00000000102,0.220652595684205,1.00000000000117,0.164062091636645
5200.00000000139,0.226970592832804,1.00000000000125,0.17145878057517
5300.00000000175,0.233105661642429,1.00000000000276,0.179293833819879
5400.00000000211,0.239816447826014,1.00000000000418,0.187437143448102
5500.00000000248,0.246896324184022,1.00000000000591,0.196097718385809
5600.00000000284,0.252542491968321,1.0000000000087,0.204953199485944
5700.00000000321,0.260840697389141,1.00000000001206,0.214083421660926
5800.00000000357,0.268565409859387,1.00000000001643,0.223562008289988
5900.00000000393,0.277773844838758,1.00000000002219,0.23304447957642
6000.0000000043,0.291553495590533,1.00000000002758,0.242734817626301
6100.00000000466,0.303482438289235,1.00000000003284,0.252366794363359
6200.00000000502,0.325770256816042,1.000000000042,0.261876391575518
6300.00000000539,0.352862588932552,1.00000000004823,0.271520307424551
6400.00000000575,0.386667480053029,1.00000000005698,0.280845290555721
6500.00000000612,0.44065848311969,1.00000000006439,0.290106372526283
6600.00000000648,0.501476790587794,1.00000000007928,0.299155672996189
6700.00000000684,0.590724738461327,1.0000000000841,0.308000470001045
6800.00000000721,0.706886745482239,1.00000000009768,0.316794651011765
6900.00000000757,0.847032816066098,1.00000000010679,0.325292655749664
7000.00000000793,1.0396879876227,1.00000000011864,0.333555364957902
7100.0000000083,1.26685307452853,1.00000000012109,0.341785596009175
7200.00000000866,1.55354768317729,1.00000000013957,0.349636074662535
7300.00000000903,1.90984067781582,1.00000000014878,0.357456237792449
7400.00000000939,2.32360859944217,1.00000000014974,0.365051116580195
7500.00000000975,2.83540098646269,1.00000000016629,0.372272564652296
7600.00000001012,3.42860402406453,1.00000000016801,0.379549415752289
7700.00000001048,4.1222301787726,1.00000000018299,0.386447793850897
7800.00000001084,4.94081654593107,1.00000000018879,0.393225958045643
7900.00000001121,5.86286520900945,1.0000000002023,0.399809040324546
8000.00000001157,6.93160567775192,1.00000000020869,0.406081575669143
8100.00000001194,8.13844626555375,1.00000000021718,0.412357127464097
8200.0000000123,9.48903440977366,1.00000000022488,0.41830918461175
8300.00000001266,11.0189946697238,1.00000000023313,0.424075821038125
8400.00000001303,12.7017436882436,1.00000000023164,0.429758723859488
8500.00000001339,14.5731036756515,1.00000000024355,0.435113552238137
8600.00000001376,16.6358972469714,1.00000000025218,0.440391014569071
8700.00000001412,18.8810366204575,1.00000000025702,0.445505308984735
8800.00000001448,21.3467042465181,1.00000000026424,0.450324031807941
8900.00000001485,24.0082552017858,1.00000000026511,0.455188997953652
9000.00000001521,26.8870278413759,1.00000000027151,0.459689862527128
9100.00000001557,29.9965273631917,1.00000000028467,0.464058358029601
9200.00000001594,33.3160102549168,1.00000000027224,0.468430068864076
9300.0000000163,36.8781269655304,1.00000000028885,0.472383951719808
9400.00000001667,40.6649708574333,1.00000000028576,0.47650703696804
9500.00000001703,44.6828087534367,1.00000000028817,0.480258053768167
9600.00000001739,48.9497514313163,1.00000000029173,0.483874651838645
9700.00000001776,53.4403481157124,1.00000000029906,0.487457707797316
9800.00000001812,58.1763182658602,1.00000000029435,0.490759666914
9900.00000001848,63.1477931537686,1.00000000030158,0.49407502486116
10000.0000000188,68.3490120818975,1.00000000031143,0.497170613321452
10100.0000000192,73.7966141758252,1.00000000029527,0.50016749958335
10200.0000000196,79.4663510784981,1.00000000031223,0.503065615421602
10300.0000000199,85.3678306007655,1.0000000003087,0.505744551329251
10400.0000000203,91.4980710555327,1.00000000032236,0.508280086329997
10500.0000000207,97.8430827165894,1.00000000031949,0.510912858660355
10600.000000021,104.414008993754,1.00000000031628,0.513173206848726
10700.0000000214,111.191346015832,1.00000000030667,0.515689681919278
10800.0000000218,118.174514707349,1.0000000003169,0.517785262998153
10900.0000000221,125.363998667375,1.00000000032867,0.519735627495297
11000.0000000225,132.742555846021,1.00000000032739,0.521891947553739
11100.0000000229,140.314307224572,1.00000000032602,0.523597520388804
11200.0000000232,148.064373253556,1.00000000030547,0.525687717939364
11300.0000000236,155.986902138379,1.00000000031596,0.527414684977383
11400.0000000239,164.08147156141,1.00000000032037,0.528746821288198
11500.0000000243,172.330459796503,1.00000000031819,0.530596922697384
11600.0000000247,180.73302451256,1.00000000031152,0.531968859502068
11700.000000025,189.27707864088,1.00000000030293,0.533237591482681
11800.0000000254,197.955016707182,1.00000000031398,0.534788230418365
11900.0000000258,206.763755146298,1.00000000030838,0.535832165509793
12000.0000000261,215.687844919538,1.00000000031796,0.536863972065865
12100.0000000265,224.722172570771,1.00000000031282,0.538344453181318
12200.0000000269,233.85818021403,1.00000000029924,0.539062862959837
12300.0000000272,243.085841723743,1.00000000031452,0.5400438071303
12400.0000000276,252.400360846986,1.00000000030652,0.541114746122732
12500.0000000279,261.789985754623,1.00000000030708,0.541648169207539
12600.0000000283,271.245744848548,1.0000000003131,0.542604711651174
12700.0000000287,280.761021144656,1.00000000030733,0.54331081301839
12800.000000029,290.328610337903,1.00000000031596,0.543692093641265
12900.0000000294,299.938000887898,1.00000000030234,0.54461382284395
13000.0000000298,309.582702882526,1.00000000029129,0.545274390783018
13100.0000000301,319.25283654441,1.00000000029862,0.54559710045385
13200.0000000305,328.941372531926,1.00000000029425,0.545949552399796
13300.0000000309,338.642772328397,1.00000000029017,0.546363925717703
13400.0000000312,348.346436142383,1.00000000030118,0.546830756332308
13500.0000000316,358.044743763609,1.00000000028931,0.547341142551182
13600.0000000319,367.733487208965,1.00000000029523,0.547320301238924
13700.0000000323,377.402119312059,1.00000000028751,0.547543712743791
13800.0000000327,387.048159248283,1.00000000028686,0.547877425983852
13900.000000033,396.660470651146,1.00000000027893,0.548293881673018
14000.0000000334,406.232528941435,1.00000000029306,0.548278932068543
14100.0000000338,415.76165620933,1.00000000028875,0.548111107204897
14200.0000000341,425.237142925234,1.00000000028342,0.54838832753653
14300.0000000345,434.657365411594,1.00000000027874,0.548538194976966
14400.0000000349,444.014518824322,1.00000000028382,0.548509905080407
14500.0000000352,453.299185308806,1.00000000027754,0.548658696460063
14600.0000000356,462.514249877621,1.0000000002841,0.548450219292202
14700.0000000359,471.647763202744,1.00000000027642,0.548459487365925
14800.0000000363,480.697266080508,1.00000000027295,0.548398855378377
14900.0000000367,489.658694701565,1.00000000025958,0.548511170935755
15000.000000037,498.522666027472,1.00000000026453,0.548531218801782
15100.0000000374,507.292386109673,1.00000000026817,0.548266770617286
15200.0000000378,515.95775531507,1.00000000026224,0.547997494576224
15300.0000000381,524.516545662365,1.00000000026018,0.547782243688975
15400.0000000385,532.966533110964,1.00000000026522,0.547811137723903
15500.0000000389,541.300199633524,1.00000000026968,0.547822888893402
15600.0000000392,549.519939118278,1.00000000025087,0.547545971154979
15700.0000000396,557.617962036385,1.00000000025794,0.547434720698474
15800.0000000399,565.591627769062,1.00000000025737,0.547095406930059
15900.0000000403,573.441451395997,1.00000000024999,0.546898835467232
16000.0000000407,581.159217698676,1.00000000025329,0.546856897132019
16100.000000041,588.748367094714,1.00000000024821,0.546664833223677
16200.0000000414,596.205213000589,1.00000000025884,0.546753405901631
16300.0000000418,603.522991096993,1.00000000024153,0.546029689943776
16400.0000000418,610.707412885914,1.00000000024485,0.54629099441318
16500.0000000404,617.75045131708,1.00000000024271,0.545494186496156
16600.0000000389,624.656573324236,1.0000000002392,0.545823905075071
16700.0000000375,631.420486030518,1.00000000023906,0.544745348309038
16800.000000036,638.038645459549,1.00000000023523,0.545599997419202
16900.0000000346,644.516399356813,1.00000000022907,0.544621218846142
17000.0000000331,650.847130618047,1.00000000023819,0.544765373856045
17100.0000000317,657.032335268991,1.00000000023211,0.543721556084987
17200.0000000302,663.071146115185,1.0000000002334,0.543857736182956
17300.0000000287,668.959791805006,1.00000000022889,0.543406139166865
17400.0000000273,674.702986769731,1.00000000022785,0.543247960681609
17500.0000000258,680.296035109741,1.00000000022825,0.543041417998213
17600.0000000244,685.738906082241,1.00000000023077,0.542809040409632
17700.0000000229,691.03422889494,1.00000000022037,0.542466710041532
17800.0000000215,696.176745542835,1.00000000022454,0.54168694148279
17900.00000002,701.172362859803,1.00000000021954,0.54136040470603
18000.0000000186,706.0175937068,1.00000000021654,0.541127609744357
18100.0000000171,710.712110785157,1.00000000021444,0.541245059914531
18200.0000000156,715.259688197924,1.00000000021292,0.541042135848164
18300.0000000142,719.655430091611,1.00000000021315,0.540830740525811
18400.0000000127,723.905699722996,1.00000000020755,0.540305367278568
18500.0000000113,728.007897152991,1.00000000020249,0.539451098761631
18600.0000000098,731.961132638184,1.00000000020924,0.538901426796451
18700.0000000084,735.769650386286,1.00000000019919,0.538385775746318
18800.0000000069,739.430085364089,1.00000000019892,0.538935054399298
18900.0000000055,742.948458631424,1.00000000019574,0.539268181075827
19000.000000004,746.323727139085,1.00000000020488,0.539579310707143
19100.0000000026,749.55563997924,1.00000000020309,0.538986953950799
19200.0000000011,752.648429578938,1.00000000019795,0.53765156108544
19299.9999999996,755.599619435655,1.00000000018897,0.536437412962711
19399.9999999982,758.410670160175,1.00000000018397,0.535186026246708
19499.9999999967,761.082602308475,1.00000000018533,0.535545559048313
19599.9999999953,763.614789569262,1.00000000018645,0.536657484304667
19699.9999999938,766.015603116347,1.00000000018657,0.538677546498489
19799.9999999924,768.285396899767,1.00000000019461,0.539405422237524
19899.9999999909,770.42687707342,1.00000000019263,0.538732049424562
19999.9999999895,772.442067414704,1.00000000018706,0.536465508413188
20099.999999988,774.326251141282,1.00000000017715,0.533207924034935
20199.9999999865,776.081773569979,1.00000000017521,0.530754724076757
20299.9999999851,777.704961915144,1.00000000017325,0.530417360653837
20399.9999999836,779.198267577572,1.00000000017059,0.533222870399145
20499.9999999822,780.57072775795,1.0000000001754,0.53734287208207
20599.9999999807,781.826658660173,1.0000000001781,0.54072137623276
20699.9999999793,782.976837886858,1.00000000018408,0.542060839561089
20799.9999999778,784.022429144246,1.0000000001782,0.539655886424866
20899.9999999764,784.959706203776,1.00000000018074,0.534416441269715
20999.9999999749,785.785810414011,1.00000000017065,0.527808555020627
21099.9999999734,786.489858272479,1.00000000015737,0.523742488259928
21199.999999972,787.072731824743,1.00000000015745,0.524056216312474
21299.9999999705,787.537582331112,1.00000000015977,0.529084770223813
21399.9999999691,787.895278453622,1.00000000017227,0.536981335675767
21499.9999999676,788.164053739315,1.00000000017862,0.543712985357319
21599.9999999662,788.354102663232,1.00000000018906,0.546908461716639
21699.9999999647,788.472818668258,1.00000000018549,0.544562930639567
21799.9999999633,788.516178753803,1.00000000018244,0.537002482636011
21899.9999999618,788.471812771501,1.00000000016449,0.526306516237937
21999.9999999603,788.32787034681,1.00000000014933,0.516473491683767
22099.9999999589,788.072435493908,1.00000000013774,0.512407629357667
22199.9999999574,787.707836942334,1.00000000014473,0.516731512014719
22299.999999956,787.246354386725,1.00000000015277,0.52733891640315
22399.9999999545,786.707292448801,1.00000000017964,0.53981060169375
22499.9999999531,786.114085926758,1.00000000019244,0.549052276649105
22599.9999999516,785.479993550383,1.00000000020136,0.552501600375984
22699.9999999502,784.810043470114,1.00000000020356,0.548356267197844
22799.9999999487,784.097094994377,1.00000000018568,0.537382455692683
22899.9999999473,783.322323639788,1.00000000016753,0.521597107176051
22999.9999999458,782.467587662011,1.00000000014107,0.505850435914433
23099.9999999443,781.515888997745,1.00000000012519,0.497120056471105
23199.9999999429,780.465890572975,1.00000000012211,0.500018142324475
23299.9999999414,779.330017831469,1.00000000014335,0.513870947458042
23399.99999994,778.13017795069,1.0000000001681,0.532046700731474
23499.9999999385,776.894073381335,1.00000000019411,0.547277361339651
23599.9999999371,775.641882771118,1.00000000021019,0.5560635461086
23699.9999999356,774.384546589705,1.00000000021426,0.556649575355203
23799.9999999342,773.121573108229,1.00000000021098,0.548596068240889
23899.9999999327,771.837494029662,1.00000000019313,0.532744623287834
23999.9999999312,770.51193966693,1.00000000015594,0.511278412859837
24099.9999999298,769.119898033278,1.00000000012522,0.489865526622013
24199.9999999283,767.64501033248,1.00000000010683,0.478186881310184
24299.9999999269,766.085962683128,1.00000000010779,0.480956701173615
24399.9999999254,764.453326532255,1.000000000126,0.498878401409724
24499.999999924,762.772748161754,1.00000000016861,0.523191579883101
24599.9999999225,761.070928100494,1.00000000019487,0.544105435916345
24699.9999999211,759.370111174119,1.00000000021585,0.556990088726648
24799.9999999196,757.686517640669,1.00000000024052,0.561830264721563
24899.9999999181,756.022048898574,1.0000000002372,0.557727752746762
24999.9999999167,754.368243837738,1.00000000021675,0.545233318944507
25099.9999999152,752.707391332637,1.00000000018508,0.524509887506756
25199.9999999138,751.01452573992,1.00000000014603,0.497241106389216
25299.9999999123,749.268082073223,1.00000000011013,0.471822809832973
25399.9999999109,747.451319014476,1.00000000009205,0.458213815975872
25499.9999999094,745.565171048572,1.00000000009402,0.462143071530218
25599.999999908,743.620808256992,1.00000000011808,0.483776700512864
25699.9999999065,741.640911984016,1.0000000001594,0.513272416627835
25799.9999999051,739.651753572964,1.00000000019368,0.538473814447332
25899.9999999036,737.673963469079,1.0000000002268,0.555325912084476
25999.9999999021,735.722551884047,1.00000000025588,0.563054121432011
26099.9999999007,733.804658040286,1.00000000025982,0.563357149880824
26199.9999998992,731.916009983728,1.00000000023268,0.555757501730398
26299.9999998978,730.045592411774,1.00000000021559,0.54060401516298
26399.9999998963,728.17464628957,1.00000000017824,0.515588185921624
26499.9999998949,726.280150332687,1.00000000014433,0.484768403793244
26599.9999998934,724.344080202185,1.00000000010776,0.456363509260307
26699.999999892,722.352790659408,1.00000000008375,0.440204759300969
26799.9999998905,720.307663797898,1.00000000008648,0.442932793546519
26899.999999889,718.217217163583,1.00000000011158,0.465314803028841
26999.9999998876,716.100741411946,1.00000000015046,0.497448883667664
27099.9999998861,713.978903946417,1.00000000019231,0.526860750420039
27199.9999998847,711.869696450252,1.00000000023485,0.548559338225774
27299.9999998832,709.788003799217,1.0000000002549,0.559134054269949
27399.9999998818,707.741339564794,1.00000000025849,0.563162963393468
27499.9999998803,705.731047464049,1.00000000025865,0.560188449470406
27599.9999998789,703.752623561787,1.00000000024788,0.552213348294372
27699.9999998774,701.795596309728,1.00000000023,0.536486153360993
27799.9999998759,699.84403413059,1.00000000018294,0.51038200094469
27899.9999998745,697.881252123453,1.0000000001553,0.481060372052291
27999.999999873,695.891595850796,1.00000000011447,0.448867504453921
28099.9999998716,693.86588847887,1.00000000008968,0.428896306218411
28199.9999998701,691.80009206589,1.00000000008377,0.424804167908713
28299.9999998687,689.70122771006,1.00000000009728,0.439729741097638
28399.9999998672,687.579953543507,1.00000000013242,0.467669972324566
28499.9999998658,685.450670271013,1.00000000017225,0.501340064279893
28599.9999998643,683.328413921338,1.0000000002015,0.528512881292184
28699.9999998629,681.224634677864,1.00000000024204,0.547707919955634
28799.9999998614,679.148176957397,1.00000000025823,0.55616500776309
