Time,AGPnorm,Energy,Entropy
0,0,1,2.61613164478216e-18
99.9999999999986,0.01009709736172,1.00000000000111,0.0275411345432551
199.999999999993,0.0268777066324965,1.00000000000026,0.0797797435030671
300,0.0517967091203273,1.00000000000605,0.162706860736643
400.000000000022,0.0798840633385714,1.00000000035743,0.293194490943365
500.000000000045,0.171255620948472,1.00000000182577,0.438590973118504
600.000000000068,0.763880183864987,1.00000000311818,0.528147705117981
700.000000000091,2.120912765603,1.00000000373311,0.572316290481359
800.000000000113,4.18264536342616,1.00000000403599,0.589850751403982
900.000000000136,6.63218361406286,1.00000000365824,0.590891616519217
1000.00000000016,9.03641086293872,1.00000000329967,0.585839528257074
1100.0000000001,11.1630925750096,1.00000000325191,0.577553176021745
1200,12.7986638048727,1.00000000272996,0.565620020053812
1299.99999999991,13.9164605627868,1.00000000260729,0.564015402199323
1399.99999999982,14.5298865528085,1.00000000227521,0.565418336320275
1499.99999999973,14.7204832033937,1.0000000020124,0.532750264886754
1599.99999999964,14.6529269742822,1.00000000200415,0.522634370943622
1699.99999999955,14.3490731023411,1.00000000285557,0.582838097651465
1799.99999999946,13.9427589821514,1.00000000133106,0.449750788897653
1899.99999999937,13.4780200314124,1.00000000317842,0.582395000388869
1999.99999999928,12.9949894764886,1.00000000132056,0.413157143779461
2099.99999999919,12.4776489162775,1.00000000303454,0.563787893523353
2199.99999999909,12.0210360949057,1.00000000189724,0.458904647340113
2299.999999999,11.550047009658,1.00000000187165,0.453328968611481
2399.99999999891,11.0902249739449,1.00000000283583,0.55225838699776
2499.99999999882,10.681741334523,1.00000000186729,0.485399873028278
2599.99999999873,10.3110189079479,1.0000000017798,0.424069290499194
2699.99999999864,9.94556150846284,1.00000000236456,0.51335479692926
2799.99999999855,9.59804354429231,1.00000000271689,0.539237000155418
2899.99999999846,9.27326814729378,1.00000000218695,0.523650169230741
2999.99999999837,9.01789387446271,1.00000000134565,0.408436571315976
3099.99999999828,8.78902714276999,1.0000000026867,0.500384212268237
3199.99999999819,8.554109973877,1.00000000205544,0.524165148694453
3299.99999999809,8.32989959456494,1.0000000022432,0.545313420832902
3399.999999998,8.09884821875136,1.00000000291775,0.554204503697801
3499.99999999791,7.88798113313314,1.00000000179775,0.504358057085417
3599.99999999782,7.76374636274817,1.00000000163406,0.432073575124982
3699.99999999773,7.6799757799268,1.00000000241346,0.493735197978516
3799.99999999764,7.57293939420628,1.00000000227692,0.538377001044159
3899.99999999755,7.46976248860704,1.00000000241533,0.557469417896167
3999.99999999746,7.35085248300586,1.00000000255288,0.578553281625546
4099.99999999738,7.2233079597326,1.00000000224336,0.568633209385607
4199.99999999775,7.0894997666147,1.00000000283748,0.57318568163827
4299.99999999811,6.94662102882695,1.00000000274268,0.579250179471704
4399.99999999848,6.83540586507549,1.00000000167817,0.503119606199048
4499.99999999884,6.81768332259969,1.00000000166675,0.454243060067823
4599.9999999992,6.84893107228925,1.00000000260761,0.499843509911653
4699.99999999957,6.860864205562,1.00000000232292,0.531129762741082
4799.99999999993,6.85507549105963,1.00000000244538,0.571571216135843
4900.00000000029,6.8287233303326,1.00000000244271,0.583797770871547
5000.00000000066,6.79703745811428,1.00000000218946,0.590859111884279
5100.00000000102,6.76315852740851,1.00000000251226,0.592447190383793
5200.00000000139,6.71127458058879,1.00000000244437,0.581717745790364
5300.00000000175,6.64307868198238,1.00000000252466,0.594896159436989
5400.00000000211,6.57210428710565,1.00000000219884,0.602579329971177
5500.00000000248,6.49641315130012,1.00000000235653,0.603436319924934
5600.00000000284,6.41270532789203,1.00000000284483,0.615463785529242
5700.00000000321,6.32326741441506,1.00000000269555,0.598586912382427
5800.00000000357,6.2351159638276,1.00000000228519,0.568863406085785
5900.00000000393,6.19531304784072,1.00000000154304,0.499660129049057
6000.0000000043,6.24683200903128,1.00000000169919,0.478385445958166
6100.00000000466,6.35662312776493,1.00000000231675,0.505386225370801
6200.00000000502,6.45675032165813,1.00000000267663,0.541926460241808
6300.00000000539,6.53829518590301,1.00000000258358,0.565566624912964
6400.00000000575,6.60194207760717,1.00000000242036,0.586856529431376
6500.00000000612,6.64982979220373,1.00000000267428,0.608601792943023
6600.00000000648,6.67473778991468,1.00000000243106,0.615476312103447
6700.00000000684,6.68857104757332,1.00000000251562,0.627685547938177
6800.00000000721,6.68656590129955,1.00000000259949,0.624121190141865
6900.00000000757,6.66739049832287,1.00000000269575,0.638821846954869
7000.00000000793,6.65059540052739,1.0000000023421,0.625185826538897
7100.0000000083,6.64263465814731,1.00000000234069,0.615050796186412
7200.00000000866,6.62964870598059,1.00000000268347,0.601310940467422
7300.00000000903,6.60236946051523,1.00000000251783,0.615048675977582
7400.00000000939,6.57811505492053,1.00000000231492,0.618345734748368
7500.00000000975,6.55296616255762,1.00000000257028,0.635202751092567
7600.00000001012,6.5235380534445,1.00000000240742,0.632703065179418
7700.00000001048,6.49061724832696,1.0000000026067,0.621482817424794
7800.00000001084,6.45846701662542,1.00000000236822,0.615178187440428
7900.00000001121,6.41421178013809,1.00000000296299,0.636144562865642
8000.00000001157,6.36034363200356,1.0000000025867,0.644012478134658
8100.00000001194,6.30149616082001,1.00000000244481,0.633451383099967
8200.0000000123,6.24304643762054,1.00000000244627,0.646826584648067
8300.00000001266,6.1844056379025,1.00000000281021,0.649745519970973
8400.00000001303,6.12700555554575,1.00000000287541,0.663102145747761
8500.00000001339,6.07312806236503,1.00000000308524,0.670813108386044
8600.00000001376,6.01605232542861,1.00000000306194,0.643617458251569
8700.00000001412,5.95451686918868,1.00000000245911,0.5981646388373
8800.00000001448,5.91268162048644,1.00000000198476,0.548693902886248
8900.00000001485,5.92822745960239,1.00000000179,0.513128245917703
9000.00000001521,6.02352018408684,1.00000000177639,0.502490258500655
9100.00000001557,6.17751499399416,1.00000000221064,0.511741774103254
9200.00000001594,6.35079277505823,1.00000000278942,0.533535702399703
9300.0000000163,6.5156681599735,1.00000000267351,0.552830316783629
9400.00000001667,6.66237240682735,1.00000000270094,0.565887346551739
9500.00000001703,6.79839729858992,1.0000000025668,0.577962552765701
9600.00000001739,6.91357783826026,1.00000000271467,0.593782506212156
9700.00000001776,7.01644098400268,1.00000000273393,0.601432285110599
9800.00000001812,7.10083331138307,1.00000000286985,0.626202721513869
9900.00000001848,7.17119198094259,1.00000000298192,0.634701695654252
10000.0000000188,7.23163752414963,1.00000000277414,0.612550441281385
10100.0000000192,7.27848033626943,1.00000000279045,0.639942776468912
10200.0000000196,7.30847014168798,1.00000000289935,0.658070344126823
10300.0000000199,7.33450973808841,1.00000000264052,0.657196455324075
10400.0000000203,7.35769327031011,1.00000000277363,0.636065339214906
10500.0000000207,7.37815214342413,1.0000000030058,0.645177069748399
10600.000000021,7.38684689225539,1.00000000262428,0.657546255366177
10700.0000000214,7.3948536667041,1.00000000275879,0.657102737983234
10800.0000000218,7.39741729844751,1.00000000283395,0.664120611412289
10900.0000000221,7.39152949481498,1.00000000336088,0.660685904166239
11000.0000000225,7.38341586877183,1.00000000335413,0.656197556043285
11100.0000000229,7.37253132536674,1.00000000302849,0.650644093553864
11200.0000000232,7.35853601061225,1.00000000298347,0.669176897443516
11300.0000000236,7.33908950261024,1.00000000285981,0.660410398908408
11400.0000000239,7.31659469781163,1.00000000293578,0.661160375211915
11500.0000000243,7.29688123255774,1.00000000313564,0.648346713453333
11600.0000000247,7.28259502420288,1.00000000262972,0.636960792515255
11700.000000025,7.28211555743989,1.00000000290578,0.612568443338357
11800.0000000254,7.29653357206657,1.00000000278879,0.61505469574863
11900.0000000258,7.31588147405922,1.00000000301614,0.624190538363518
12000.0000000261,7.32882585733259,1.00000000297822,0.614873470837755
12100.0000000265,7.33680608379499,1.00000000337589,0.629900406015836
12200.0000000269,7.34157526545642,1.00000000276423,0.629230754600433
12300.0000000272,7.35221648650115,1.00000000294604,0.641515881008897
12400.0000000276,7.35757638164639,1.00000000316755,0.626200886617297
12500.0000000279,7.36682697233619,1.00000000292433,0.650082725287009
12600.0000000283,7.37889174746753,1.00000000292071,0.658378073682015
12700.0000000287,7.38676728501496,1.0000000032867,0.664513523517533
12800.000000029,7.38846093726158,1.000000003138,0.663082362221994
12900.0000000294,7.39509070262182,1.00000000294606,0.653524519067976
13000.0000000298,7.40516722267275,1.00000000326652,0.65318094192187
13100.0000000301,7.42085661262279,1.00000000349835,0.646452496077371
13200.0000000305,7.43958842172999,1.00000000322783,0.647136111283079
13300.0000000309,7.45268971102635,1.0000000032821,0.667530908785336
13400.0000000312,7.46100947490406,1.00000000308088,0.664524369835372
13500.0000000316,7.47511395771572,1.00000000299447,0.677783241713792
13600.0000000319,7.49206198315776,1.00000000326148,0.671351969043694
13700.0000000323,7.50800143010319,1.00000000332036,0.659013299437058
13800.0000000327,7.52294294634376,1.00000000348917,0.678234851790654
13900.000000033,7.53069956273199,1.00000000321934,0.67386643412963
14000.0000000334,7.54559980766002,1.00000000301476,0.663816045004064
14100.0000000338,7.55643462066803,1.00000000366177,0.680613116717783
14200.0000000341,7.56512082854838,1.0000000033758,0.689044437636894
14300.0000000345,7.5748756715344,1.00000000285586,0.670482179582516
14400.0000000349,7.58578426483929,1.00000000324801,0.678921328731414
14500.0000000352,7.58498160117284,1.00000000355329,0.650947215593896
14600.0000000356,7.58231797538644,1.00000000319191,0.667384781548422
14700.0000000359,7.58306240779971,1.00000000349024,0.669491793704817
14800.0000000363,7.5862013090231,1.00000000316072,0.671644343751362
14900.0000000367,7.59473755391255,1.0000000034089,0.674091799333103
15000.000000037,7.59471842999594,1.00000000342703,0.687630713919215
15100.0000000374,7.58802638839899,1.00000000332405,0.671329892472101
15200.0000000378,7.58361346138172,1.00000000358387,0.670715304231081
15300.0000000381,7.5802880249716,1.00000000347772,0.681572620003675
15400.0000000385,7.5774168711236,1.00000000334314,0.675794573166155
15500.0000000389,7.56799773855361,1.00000000364312,0.676791077335748
15600.0000000392,7.5506557449772,1.00000000353961,0.675212044024315
15700.0000000396,7.53401811043325,1.00000000342948,0.668521523984924
15800.0000000399,7.5158105390386,1.00000000348258,0.681355516407891
15900.0000000403,7.49087411198986,1.00000000372163,0.685462631971191
16000.0000000407,7.46053685560014,1.00000000353889,0.691534956606928
16100.000000041,7.42845329630974,1.00000000316706,0.69162204213833
16200.0000000414,7.395264627085,1.00000000354492,0.700776131670225
16300.0000000418,7.36104876022242,1.00000000341826,0.695657975444729
16400.0000000418,7.32824770433086,1.00000000363386,0.689842645412003
16500.0000000404,7.29778144115212,1.00000000343402,0.676679592271104
16600.0000000389,7.26991834610583,1.00000000327906,0.688667448750406
16700.0000000375,7.24724642059699,1.00000000388581,0.673915878024321
16800.000000036,7.22744961313863,1.00000000339728,0.684983329966133
16900.0000000346,7.2133659658173,1.00000000389587,0.692735967526672
17000.0000000331,7.20520776697402,1.00000000424169,0.702383826327695
17100.0000000317,7.19594451336672,1.00000000400309,0.696469111137796
17200.0000000302,7.18492904427753,1.00000000408095,0.681401541097311
17300.0000000287,7.16787932763872,1.00000000374521,0.65313166912654
17400.0000000273,7.14243813685625,1.00000000376697,0.631638897715305
17500.0000000258,7.11805101003717,1.00000000395766,0.603465804100485
17600.0000000244,7.10867184302499,1.00000000312281,0.588655903009917
17700.0000000229,7.13652380909642,1.00000000271,0.572190376367498
17800.0000000215,7.21483930481866,1.00000000306433,0.559177057771975
17900.00000002,7.36443376269831,1.00000000279391,0.54849367958178
18000.0000000186,7.58099506512288,1.00000000318737,0.541501023847772
18100.0000000171,7.87678246809717,1.00000000314236,0.546200690317522
18200.0000000156,8.2078228714203,1.00000000345504,0.548921572481072
18300.0000000142,8.59468671990124,1.00000000356085,0.556108896719014
18400.0000000127,8.97021400304441,1.00000000375525,0.561219814248159
18500.0000000113,9.37078559313503,1.00000000361186,0.569050859711397
18600.0000000098,9.74759109670982,1.00000000358644,0.577222796952184
18700.0000000084,10.1267307898359,1.00000000377734,0.582358784948643
18800.0000000069,10.4937745468544,1.00000000364768,0.589269596765793
18900.0000000055,10.8531916833718,1.00000000369155,0.591095114154113
19000.000000004,11.2134910911947,1.00000000358643,0.602726211934808
19100.0000000026,11.5581526650359,1.00000000373166,0.60695465961344
19200.0000000011,11.9116573592787,1.00000000370315,0.614936439842913
19299.9999999996,12.238223004182,1.00000000366124,0.627684297648898
19399.9999999982,12.5604704879145,1.00000000326791,0.639194491738542
19499.9999999967,12.8724354060542,1.00000000366273,0.659471217477697
19599.9999999953,13.1616267610375,1.00000000356874,0.660600519849251
19699.9999999938,13.4499048966762,1.00000000363846,0.667632995428273
19799.9999999924,13.7158593056017,1.00000000405669,0.667583394718476
19899.9999999909,13.974345231058,1.00000000369765,0.672155299449782
19999.9999999895,14.2108648115753,1.00000000368332,0.665714235611067
20099.999999988,14.4346024182533,1.00000000407273,0.672060008812847
20199.9999999865,14.6418190921629,1.00000000364558,0.671946209177644
20299.9999999851,14.8378125001694,1.00000000358327,0.683656559388782
20399.9999999836,15.0308614276364,1.00000000402105,0.690218500288896
20499.9999999822,15.2059559055491,1.0000000040325,0.685389942889788
20599.9999999807,15.3727003727167,1.00000000372327,0.689079496833626
20699.9999999793,15.5269064444858,1.00000000379928,0.69217659081993
20799.9999999778,15.6838948506259,1.00000000421626,0.685156433844659
20899.9999999764,15.8342847682125,1.00000000414871,0.712485600343126
20999.9999999749,15.9793424708154,1.00000000355248,0.701597452135932
21099.9999999734,16.1179873057398,1.00000000413064,0.690590797305707
21199.999999972,16.234571276512,1.00000000447894,0.695143649022719
21299.9999999705,16.3432105185974,1.00000000390704,0.708608078241456
21399.9999999691,16.4570150742876,1.00000000368006,0.701479889959785
21499.9999999676,16.5914452029997,1.00000000418681,0.689756173453051
21599.9999999662,16.7308667121426,1.00000000405621,0.690012428528388
21699.9999999647,16.8567773315781,1.0000000040105,0.691493896000746
21799.9999999633,16.9655425106633,1.0000000044288,0.704690773438955
21899.9999999618,17.0643824873971,1.00000000381763,0.688399123785326
21999.9999999603,17.1708874964006,1.00000000457509,0.687856619491682
22099.9999999589,17.2856682325762,1.00000000448355,0.688096427441782
22199.9999999574,17.3960373905413,1.00000000453834,0.683690451044093
22299.999999956,17.504275563209,1.00000000433321,0.684457437097167
22399.9999999545,17.6093640250013,1.00000000411002,0.700702235862346
22499.9999999531,17.7101288187532,1.00000000385458,0.709677217224591
22599.9999999516,17.8149673027058,1.0000000036482,0.701163093552344
22699.9999999502,17.9251046622932,1.00000000392344,0.686456875519614
22799.9999999487,18.0290973167082,1.00000000430386,0.703756596469656
22899.9999999473,18.1317498762447,1.00000000412263,0.688221275433195
22999.9999999458,18.2315219530853,1.00000000461325,0.69648032427864
23099.9999999443,18.3346689653332,1.00000000390705,0.686389548526764
23199.9999999429,18.4434102653994,1.00000000437611,0.701794771870067
23299.9999999414,18.5506412599611,1.00000000411112,0.706725296283125
23399.99999994,18.6561385655128,1.00000000419195,0.687076943720846
23499.9999999385,18.765085743464,1.00000000441877,0.692009383068546
23599.9999999371,18.8745496290578,1.00000000400354,0.686646294528649
23699.9999999356,18.981796065289,1.00000000436982,0.692903453311884
23799.9999999342,19.0904206583004,1.00000000421955,0.685546488268352
23899.9999999327,19.2033423600095,1.0000000044068,0.704695347690398
23999.9999999312,19.3126018187998,1.00000000420089,0.691751638760025
24099.9999999298,19.4215618794012,1.00000000409007,0.678134156279788
24199.9999999283,19.5358389528784,1.00000000409517,0.677316796277661
24299.9999999269,19.6585250920268,1.00000000391362,0.679513601549591
24399.9999999254,19.7770437328154,1.0000000046586,0.692805816341099
24499.999999924,19.8865563693378,1.00000000417038,0.693988056647205
24599.9999999225,20.0080299284296,1.00000000389954,0.686452179625382
24699.9999999211,20.1328381187582,1.00000000471287,0.700966680622398
24799.9999999196,20.2465895658491,1.00000000472605,0.699578299147235
24899.9999999181,20.3500799016533,1.00000000520265,0.702463913702945
24999.9999999167,20.4542405523259,1.00000000401232,0.696364337119748
25099.9999999152,20.5766564671516,1.00000000388717,0.675079095199208
25199.9999999138,20.7081743382576,1.000000004115,0.683907928630814
25299.9999999123,20.8359834160634,1.0000000042197,0.697920679364065
25399.9999999109,20.9544101262169,1.00000000443692,0.709669697242366
25499.9999999094,21.0653243523518,1.00000000456459,0.687837811982705
25599.999999908,21.1652156073092,1.00000000479512,0.688573609351261
25699.9999999065,21.2601829684794,1.00000000424558,0.710153703984563
25799.9999999051,21.3617314050934,1.00000000424788,0.698988930505849
25899.9999999036,21.4817891651858,1.00000000410044,0.699838355023032
25999.9999999021,21.621748635442,1.00000000407499,0.694199456163141
26099.9999999007,21.7725780291394,1.00000000440946,0.700891846442045
26199.9999998992,21.9389158343656,1.00000000413774,0.690925958423481
26299.9999998978,22.1209215755303,1.00000000422815,0.7032996139702
26399.9999998963,22.3038380592678,1.00000000450673,0.706330575669978
26499.9999998949,22.4838336946673,1.00000000504022,0.710767485237214
26599.9999998934,22.6531069570477,1.00000000450604,0.716660897401317
26699.999999892,22.8218531781238,1.00000000419042,0.701402503006814
26799.9999998905,22.9944161144523,1.00000000476193,0.707516130399428
26899.999999889,23.1594486988238,1.00000000492659,0.706109931230108
26999.9999998876,23.3220615867234,1.00000000490681,0.69879960847795
27099.9999998861,23.4773350794909,1.0000000045521,0.714651268156154
27199.9999998847,23.6311367451467,1.00000000431514,0.69601698707539
27299.9999998832,23.7939445412963,1.0000000045885,0.69334962491945
27399.9999998818,23.9594314200918,1.00000000441631,0.696607595151657
27499.9999998803,24.1262657759852,1.00000000488925,0.69851232575337
27599.9999998789,24.295483030507,1.0000000043744,0.686652201329981
27699.9999998774,24.4752831574889,1.00000000429193,0.679977564170862
27799.9999998759,24.6525105075403,1.00000000509295,0.687252974341042
27899.9999998745,24.8135095964862,1.00000000481393,0.693641218374608
27999.999999873,24.9709701476688,1.00000000432035,0.69133509286872
28099.9999998716,25.1469690804772,1.0000000045028,0.675571805796466
28199.9999998701,25.3373928439981,1.00000000456693,0.66458084427847
28299.9999998687,25.5315601447525,1.00000000497159,0.690527176901972
28399.9999998672,25.70987778628,1.00000000542036,0.717754126590215
28499.9999998658,25.8741312816235,1.00000000441194,0.694729845519327
28599.9999998643,26.0461271971404,1.00000000452168,0.689188079229804
28699.9999998629,26.2279027985549,1.00000000455715,0.697328556132786
28799.9999998614,26.4193660949337,1.00000000460274,0.690446309875869
28899.9999998599,26.6215624142834,1.00000000503514,0.701407588830526
28999.9999998585,26.815049432439,1.00000000514973,0.710363976266419
29099.999999857,26.9950727611093,1.00000000499432,0.705608518912486
