Time,AGPnorm,Energy,Entropy
0,0,1,2.8830838534334e-18
99.9999999999986,0.00370258134094043,0.999999999998716,0.0118854467108215
199.999999999993,0.0105000826265922,1.00000000000052,0.0348727286330607
300,0.0220192458920862,0.999999999998503,0.0680566242270379
400.000000000022,0.034491146131673,1.00000000000134,0.110050651861854
500.000000000045,0.0487114356120642,1.00000000000235,0.164464907430896
600.000000000068,0.0651872183327774,1.00000000004982,0.236638308810036
700.000000000091,0.08906156796994,1.00000000025026,0.326169759814972
800.000000000113,0.238061226622119,1.0000000006523,0.411477777549843
900.000000000136,0.709700258062633,1.00000000105356,0.476030808457561
1000.00000000016,1.82549880058036,1.00000000125128,0.517906089029454
1100.0000000001,3.74728126760034,1.00000000136073,0.543502004158415
1200,6.49505023067185,1.00000000154293,0.555841492969986
1299.99999999991,9.92552572838481,1.00000000154364,0.56183543703107
1399.99999999982,13.8118805614284,1.00000000144684,0.561490173539878
1499.99999999973,17.8754012862147,1.00000000137391,0.556896359497364
1599.99999999964,21.899868433261,1.00000000125715,0.549593313891911
1699.99999999955,25.6626605185634,1.00000000125356,0.545087325857029
1799.99999999946,29.0559039938145,1.000000001214,0.534573599237437
1899.99999999937,31.9464348370215,1.00000000117097,0.532314321827638
1999.99999999928,34.3190886282978,1.00000000104411,0.513685674123134
2099.99999999919,36.1323370012878,1.00000000104216,0.527679055412347
2199.99999999909,37.4449471266456,1.0000000009338,0.500527787983739
2299.999999999,38.2109730893099,1.00000000084514,0.503551765772431
2399.99999999891,38.6390687711659,1.00000000103027,0.53831530276488
2499.99999999882,38.6957440337201,1.00000000061353,0.448603070015809
2599.99999999873,38.35016733842,1.00000000084464,0.503258523412733
2699.99999999864,37.949041857231,1.00000000112869,0.564472196662831
2799.99999999855,37.4348424130873,1.00000000062518,0.436544504927311
2899.99999999846,36.6290079139878,1.00000000051664,0.403459241973231
2999.99999999837,35.7691676823832,1.00000000119907,0.547160771406308
3099.99999999828,35.040718281007,1.00000000128407,0.563132516112605
3199.99999999819,34.3147869816889,1.00000000062066,0.414083556219275
3299.99999999809,33.4400233751053,1.00000000035527,0.320340983234561
3399.999999998,32.5256894228897,1.00000000093175,0.473502313985171
3499.99999999791,31.6743607542397,1.00000000123749,0.544899452416237
3599.99999999782,30.9406390616102,1.00000000119138,0.560971006464467
3699.99999999773,30.2485523587454,1.00000000074752,0.457805969945992
3799.99999999764,29.5213547732874,1.00000000039537,0.307677764862013
3899.99999999755,28.8094605232003,1.00000000052388,0.347178307360257
3999.99999999746,28.1220551356646,1.00000000095307,0.486649625362201
4099.99999999738,27.44610942605,1.00000000105776,0.520163494573476
4199.99999999775,26.7991924538328,1.00000000111558,0.508153064205437
4299.99999999811,26.1958832540537,1.00000000121123,0.567611704341682
4399.99999999848,25.6327948346607,1.00000000091279,0.518718907356886
4499.99999999884,25.0911926818415,1.00000000040245,0.368277982029893
4599.9999999992,24.6249382305369,1.00000000043707,0.29561413194951
4699.99999999957,24.257728122132,1.0000000006804,0.36966054880287
4799.99999999993,23.9170407147429,1.00000000100783,0.473512602680549
4900.00000000029,23.5322534489495,1.00000000115161,0.538881797064798
5000.00000000066,23.1269907299158,1.00000000084606,0.526056576471118
5100.00000000102,22.7421142412714,1.00000000072052,0.466603736192616
5200.00000000139,22.3528543051001,1.00000000104193,0.489073381440011
5300.00000000175,21.9423806105584,1.00000000128094,0.542126945653037
5400.00000000211,21.5392750573608,1.0000000011775,0.57204628256438
5500.00000000248,21.1553022313422,1.00000000084221,0.522833937516412
5600.00000000284,20.8075452581979,1.00000000046738,0.403068634822949
5700.00000000321,20.5624767080527,1.00000000035156,0.31644686118116
5800.00000000357,20.472354341578,1.00000000047895,0.310179247362089
5900.00000000393,20.4862975661661,1.00000000082876,0.390708002518183
6000.0000000043,20.4974827986262,1.00000000101037,0.480649072269104
6100.00000000466,20.4583555099148,1.00000000097044,0.523258958645215
6200.00000000502,20.3694623327913,1.00000000096913,0.518349119945011
6300.00000000539,20.2295291553519,1.00000000100431,0.531690552289052
6400.00000000575,20.0436080918297,1.00000000101298,0.546059844259406
6500.00000000612,19.8457860270693,1.00000000082603,0.523550046819241
6600.00000000648,19.6634360656882,1.00000000075282,0.505238128568842
6700.00000000684,19.4890236879638,1.00000000077386,0.514624322714313
6800.00000000721,19.3044844310654,1.00000000089283,0.518762448404911
6900.00000000757,19.0996270677391,1.00000000098427,0.52070183776524
7000.00000000793,18.8678411698874,1.0000000011388,0.53078788748532
7100.0000000083,18.6155477967328,1.00000000129863,0.557931830706549
7200.00000000866,18.3621565413688,1.00000000118079,0.575915738202541
7300.00000000903,18.1152163595467,1.00000000092195,0.55099076718551
7400.00000000939,17.8841216232691,1.00000000063612,0.477248979899381
7500.00000000975,17.7128541995844,1.00000000041256,0.387144085374205
7600.00000001012,17.6679187219158,1.00000000036965,0.332342874576261
7700.00000001048,17.7952312384983,1.00000000042685,0.31840282056162
7800.00000001084,18.0733245118582,1.00000000066599,0.357366287887649
7900.00000001121,18.4151219914246,1.00000000083398,0.423698632277248
8000.00000001157,18.7351711896026,1.00000000097541,0.478981872103876
8100.00000001194,18.9849416294484,1.00000000106053,0.523306812976425
8200.0000000123,19.166475994917,1.00000000092198,0.534951550440043
8300.00000001266,19.2966827165666,1.00000000089331,0.546331520729988
8400.00000001303,19.3713147874117,1.00000000096971,0.568986585388296
8500.00000001339,19.3894836238921,1.00000000096785,0.573707389831659
8600.00000001376,19.3725576830954,1.0000000008895,0.553660707318952
8700.00000001412,19.3295983818956,1.0000000009169,0.546856068907664
8800.00000001448,19.2630757319255,1.00000000089733,0.543423722521157
8900.00000001485,19.1699045606997,1.00000000102331,0.548179738303581
9000.00000001521,19.0647812472691,1.00000000086255,0.54247479225899
9100.00000001557,18.9733305965963,1.0000000007432,0.52810857657785
9200.00000001594,18.8975041634722,1.00000000081,0.522908370144113
9300.0000000163,18.8189402185361,1.00000000092726,0.528383603292643
9400.00000001667,18.7340112127251,1.00000000090625,0.535611740925873
9500.00000001703,18.6491045225084,1.00000000084164,0.53522326742859
9600.00000001739,18.5628383640375,1.0000000009102,0.54184087761672
9700.00000001776,18.4682363169857,1.00000000091079,0.547844320604399
9800.00000001812,18.3572064192993,1.00000000095518,0.560394967573096
9900.00000001848,18.2377117140199,1.00000000086481,0.572006611567831
10000.0000000188,18.1161307870261,1.00000000076825,0.570015828153483
10100.0000000192,17.9968592810681,1.00000000073718,0.564384734616337
10200.0000000196,17.8718148251809,1.00000000083463,0.571171442724189
10300.0000000199,17.7345145210733,1.00000000099664,0.574491704750901
10400.0000000203,17.5855960128278,1.00000000104663,0.576491820828981
10500.0000000207,17.4298188620035,1.00000000117796,0.586242233505527
10600.000000021,17.2754110048506,1.00000000124921,0.589420622992215
10700.0000000214,17.1310261882197,1.00000000127512,0.591561914166324
10800.0000000218,16.9982503863317,1.00000000126856,0.594249557134068
10900.0000000221,16.8683112843747,1.00000000104333,0.580618746404358
11000.0000000225,16.7293819641178,1.00000000080012,0.544146399286328
11100.0000000229,16.5831263670599,1.00000000061497,0.491066417531154
11200.0000000232,16.4551313309527,1.00000000041573,0.428315254371365
11300.0000000236,16.3905848351493,1.00000000039871,0.379472681987091
11400.0000000239,16.4381744976744,1.00000000034123,0.340644780907228
11500.0000000243,16.6411021750806,1.00000000037132,0.333602400814729
11600.0000000247,17.0014645232842,1.00000000056239,0.346821914630852
11700.000000025,17.4969222724404,1.00000000062621,0.369093978155721
11800.0000000254,18.066744742014,1.00000000091011,0.406486384127988
11900.0000000258,18.6404263465755,1.00000000099476,0.445843389839439
12000.0000000261,19.185335387667,1.00000000107071,0.47789915890525
12100.0000000265,19.6689772524162,1.00000000101456,0.508975507200096
12200.0000000269,20.0853226532334,1.00000000094977,0.532920315312668
12300.0000000272,20.447822820638,1.00000000091978,0.537502482704425
12400.0000000276,20.7551334458509,1.00000000095177,0.549155813879399
12500.0000000279,21.0083136353466,1.00000000099864,0.576013807491118
12600.0000000283,21.2118601946591,1.00000000090474,0.578995603190376
12700.0000000287,21.3719136538266,1.00000000098899,0.578541315099143
12800.000000029,21.4897136824953,1.00000000090179,0.578078080622127
12900.0000000294,21.574360722305,1.00000000088706,0.587721647329482
13000.0000000298,21.6242100453312,1.00000000102606,0.602278346680773
13100.0000000301,21.6405341288252,1.00000000089488,0.590428592266133
13200.0000000305,21.6403265532679,1.00000000087821,0.571899570458202
13300.0000000309,21.6232778906679,1.00000000089603,0.560602946279671
13400.0000000312,21.5883037947876,1.00000000093428,0.561033334200814
13500.0000000316,21.5488063869256,1.00000000081539,0.55493687294386
13600.0000000319,21.5021474073577,1.00000000093685,0.568061925751799
13700.0000000323,21.4415718193866,1.00000000089051,0.567721611460953
13800.0000000327,21.3695596180261,1.00000000095823,0.58146528172197
13900.000000033,21.2895763699269,1.00000000089402,0.578043873986517
14000.0000000334,21.201783789162,1.00000000094302,0.574874656977911
14100.0000000338,21.1076295700224,1.00000000093541,0.578196934689519
14200.0000000341,21.0087841424577,1.00000000089269,0.580537928022856
14300.0000000345,20.9104841856908,1.00000000086106,0.566876092106297
14400.0000000349,20.818457157517,1.00000000072142,0.548838809356739
14500.0000000352,20.7333910716749,1.00000000087516,0.545202189537731
14600.0000000356,20.6472755505991,1.00000000097379,0.551533608883941
14700.0000000359,20.5585839618717,1.00000000091651,0.560386219786664
14800.0000000363,20.4683359412379,1.00000000099884,0.561917202286158
14900.0000000367,20.3721019652242,1.00000000099486,0.570951790908432
15000.000000037,20.2756759786645,1.00000000084421,0.568404748168208
15100.0000000374,20.187961832491,1.00000000079938,0.563300571698634
15200.0000000378,20.1116861256471,1.00000000080896,0.560127687795943
15300.0000000381,20.0430824860834,1.00000000092047,0.551861573444235
15400.0000000385,19.9796288495126,1.0000000008518,0.554525690421917
15500.0000000389,19.9270452430477,1.00000000075457,0.536470404125065
15600.0000000392,19.8803893852084,1.00000000094759,0.526074335565434
15700.0000000396,19.8308364927388,1.00000000097109,0.52729015015864
15800.0000000399,19.7820060869695,1.00000000086691,0.535820977598786
15900.0000000403,19.7412676759684,1.00000000080949,0.544554132936835
16000.0000000407,19.704065007907,1.0000000008992,0.566208695531372
16100.000000041,19.6627684576306,1.00000000086956,0.584633134824556
16200.0000000414,19.6183577227812,1.00000000096659,0.586632740544988
16300.0000000418,19.5671505244665,1.00000000095831,0.573238958498001
16400.0000000418,19.508607859773,1.00000000099251,0.56280779140569
16500.0000000404,19.4513540011089,1.00000000075366,0.560318963311113
16600.0000000389,19.4010307182743,1.0000000008936,0.573344294935491
16700.0000000375,19.3486159227677,1.00000000087739,0.583519853993932
16800.000000036,19.290490713112,1.00000000089731,0.596616205228546
16900.0000000346,19.2333601532259,1.00000000076327,0.592816416509128
17000.0000000331,19.1729640476247,1.00000000096792,0.603724355677187
17100.0000000317,19.1047546935867,1.00000000095218,0.606162247688031
17200.0000000302,19.0334174352786,1.00000000086831,0.599587676552796
17300.0000000287,18.9594375887009,1.00000000099008,0.598300312355283
17400.0000000273,18.8811682893617,1.00000000099635,0.607524931325714
17500.0000000258,18.8019401415342,1.00000000088012,0.604534297132936
17600.0000000244,18.728113463383,1.000000000782,0.594761278325232
17700.0000000229,18.6561788306047,1.00000000095551,0.593307914340287
17800.0000000215,18.5814633332948,1.00000000092366,0.586995966206895
17900.00000002,18.5052646084414,1.00000000089406,0.582470030572418
18000.0000000186,18.4302451406879,1.00000000083767,0.596790169418489
18100.0000000171,18.3568595321183,1.00000000090981,0.6033452886242
18200.0000000156,18.2820381061038,1.00000000096799,0.601935341994176
18300.0000000142,18.2077927884654,1.00000000085912,0.592319198606305
18400.0000000127,18.1359277269524,1.00000000085426,0.597675409317155
18500.0000000113,18.0637105263551,1.00000000092029,0.588037429968157
18600.0000000098,17.9876347679887,1.00000000094308,0.593165503360514
18700.0000000084,17.9094899101327,1.00000000091117,0.591792661792451
18800.0000000069,17.8304799447002,1.00000000091509,0.592174016879578
18900.0000000055,17.7493994674721,1.00000000096364,0.594759335989453
19000.000000004,17.6663924180247,1.00000000097934,0.606747506180888
19100.0000000026,17.5803205734537,1.00000000100127,0.618952854661902
19200.0000000011,17.4926791768908,1.00000000096672,0.619884837377455
19299.9999999996,17.4055540628138,1.00000000083835,0.605765697680721
19399.9999999982,17.3203238047514,1.00000000085832,0.601949996451017
19499.9999999967,17.2345760855644,1.00000000105241,0.620182080246682
19599.9999999953,17.1473954982312,1.00000000103174,0.622823120848528
19699.9999999938,17.0611655854786,1.00000000084632,0.614106946540974
19799.9999999924,16.975782873495,1.00000000076011,0.59153580266277
19899.9999999909,16.8909392480312,1.0000000008522,0.601019386217087
19999.9999999895,16.8070279893115,1.00000000084222,0.614390798817511
20099.999999988,16.7240871750837,1.00000000076392,0.610852541610715
20199.9999999865,16.6420701127212,1.00000000078356,0.604581584439457
20299.9999999851,16.5615768798565,1.00000000080265,0.603395493524191
20399.9999999836,16.4832681511009,1.00000000092754,0.615092100406608
20499.9999999822,16.408946932485,1.00000000097123,0.609388171258253
20599.9999999807,16.340595246823,1.00000000101867,0.602866010274409
20699.9999999793,16.2807324040899,1.00000000103569,0.620675450687846
20799.9999999778,16.2344018694959,1.00000000108516,0.620350254235406
20899.9999999764,16.2035968598114,1.00000000113147,0.624349634562438
20999.9999999749,16.1975274733631,1.00000000117157,0.631843724933052
21099.9999999734,16.2128112556459,1.00000000120254,0.633046016126385
21199.999999972,16.2656616440958,1.00000000129598,0.635635529954095
21299.9999999705,16.3435810931548,1.00000000130222,0.635946253710914
21399.9999999691,16.4627777680595,1.00000000120617,0.624215100409192
21499.9999999676,16.602613790373,1.00000000131729,0.615580050939671
21599.9999999662,16.7755086147076,1.0000000012854,0.606121689872941
21699.9999999647,16.9536300822795,1.00000000119445,0.594067176443775
21799.9999999633,17.1287440472095,1.00000000112122,0.587705391274771
21899.9999999618,17.2764500568851,1.00000000093881,0.574950544162218
21999.9999999603,17.3827442764129,1.00000000082628,0.552810609234388
22099.9999999589,17.4399851174627,1.00000000071062,0.524667379559447
22199.9999999574,17.4462430242809,1.0000000006359,0.496310188896279
22299.999999956,17.4108911269224,1.0000000005178,0.464122768048606
22399.9999999545,17.3513868105152,1.00000000052399,0.435198244162916
22499.9999999531,17.285877658072,1.00000000043532,0.406874887465954
22599.9999999516,17.2483169549077,1.00000000040209,0.383210283719476
22699.9999999502,17.263016748177,1.00000000036793,0.363259305685578
22799.9999999487,17.3612167704111,1.0000000003434,0.34657956927308
22899.9999999473,17.5734011986928,1.00000000038488,0.339455201274081
22999.9999999458,17.9049257718453,1.00000000043407,0.339570084912314
23099.9999999443,18.3858658524718,1.00000000051313,0.345007458420362
23199.9999999429,18.9912738972891,1.00000000052842,0.357341389759131
23299.9999999414,19.7310877531246,1.0000000006468,0.367815606741827
23399.99999994,20.5695439016088,1.00000000074238,0.384345410710342
23499.9999999385,21.4805908250593,1.00000000091705,0.39637274755177
23599.9999999371,22.4429029993463,1.00000000095789,0.417795846482512
23699.9999999356,23.4071240208201,1.00000000097014,0.431136933730455
23799.9999999342,24.3900925804058,1.0000000010846,0.446583221435402
23899.9999999327,25.3286781373616,1.00000000100046,0.469340616974238
23999.9999999312,26.2604232021714,1.000000001122,0.47669380962566
24099.9999999298,27.1293139879191,1.00000000116378,0.488365541667974
24199.9999999283,27.9574044519056,1.00000000102548,0.504000106581568
24299.9999999269,28.7405393454452,1.00000000108204,0.515832313460885
24399.9999999254,29.4660514260165,1.00000000113413,0.521290395293774
24499.999999924,30.1510193056373,1.00000000099046,0.535103876028205
24599.9999999225,30.779615621056,1.00000000103902,0.546925873822746
24699.9999999211,31.382645432037,1.00000000104615,0.554923589023038
24799.9999999196,31.9335387791291,1.00000000102025,0.563677412378557
24899.9999999181,32.4481367167306,1.00000000106622,0.568818529023723
24999.9999999167,32.9203480475358,1.00000000101531,0.577776165581102
25099.9999999152,33.3504452440122,1.00000000101813,0.595364630219844
25199.9999999138,33.7498804672481,1.00000000096,0.600888841167829
25299.9999999123,34.1081978546421,1.00000000100355,0.590933453459869
25399.9999999109,34.4390533135268,1.00000000103814,0.600584808105473
25499.9999999094,34.7165035284894,1.00000000102178,0.620592059451958
25599.999999908,34.9608557939879,1.00000000102946,0.62805540299277
25699.9999999065,35.173502666212,1.00000000092961,0.617317768813131
25799.9999999051,35.3682414057332,1.00000000100827,0.606675988857647
25899.9999999036,35.5382051776125,1.00000000098938,0.613092643886475
25999.9999999021,35.6743505813333,1.00000000110496,0.620227085278802
26099.9999999007,35.7794802343923,1.00000000110508,0.633853878936455
26199.9999998992,35.8548772393831,1.00000000098328,0.630544012916924
26299.9999998978,35.9243219271985,1.00000000092018,0.616657825932517
26399.9999998963,35.9831057834416,1.00000000092414,0.602815210014889
26499.9999998949,36.0347449510587,1.0000000010227,0.60163406406696
26599.9999998934,36.0646020226554,1.00000000103153,0.618332891304277
26699.999999892,36.0722775651981,1.00000000112423,0.622005646020547
26799.9999998905,36.0632992356131,1.00000000097463,0.623730987301575
26899.999999889,36.0460415809398,1.00000000096092,0.609722553139223
26999.9999998876,36.0282796837149,1.00000000090862,0.608912197558094
27099.9999998861,36.0039573098824,1.00000000093194,0.608793044352298
27199.9999998847,35.9738910794802,1.00000000095638,0.593373811135972
27299.9999998832,35.9352882812262,1.00000000102633,0.588407863694907
27399.9999998818,35.8915121824555,1.00000000103617,0.599659972740125
27499.9999998803,35.8389413196422,1.00000000105046,0.620317243576299
27599.9999998789,35.7793966825563,1.00000000098004,0.625049095776822
27699.9999998774,35.7180751269583,1.0000000009248,0.604825079116335
27799.9999998759,35.6592274105542,1.0000000009378,0.586545938765593
27899.9999998745,35.6039580515196,1.00000000101732,0.601766339588963
27999.999999873,35.539577756036,1.00000000105847,0.59820193198547
28099.9999998716,35.4652093820298,1.00000000116264,0.594638646600983
28199.9999998701,35.3853288452616,1.00000000091842,0.58230172382183
28299.9999998687,35.3069236885288,1.00000000087636,0.570052299782447
28399.9999998672,35.2290220196435,1.00000000091575,0.588156879195735
28499.9999998658,35.1471705632643,1.000000001052,0.598344209461701
28599.9999998643,35.0586844262321,1.00000000104452,0.607995750355205
28699.9999998629,34.9653406921357,1.0000000010704,0.611580925397767
28799.9999998614,34.8739461860536,1.00000000079117,0.593477155917856
28899.9999998599,34.7864917108857,1.00000000092762,0.589658224926307
28999.9999998585,34.7012972554945,1.00000000098531,0.602506123620245
29099.999999857,34.6142673392918,1.00000000105208,0.603208675034246
