Time,AGPnorm,Energy,Entropy
0,0,1,-1.33743056534272e-17
99.9999999999986,1.09394072420357e-05,1.00000000000089,0.000513441230813776
199.999999999993,0.000947240399464821,1,0.000815569880275788
300,0.00232930074592075,1.0000000000005,0.00145338163493295
400.000000000022,0.00326868483311007,1.00000000000064,0.00248439156474526
500.000000000045,0.00403537321981843,0.999999999999895,0.00334047422955232
600.000000000068,0.00570747112447594,1.00000000000088,0.00470085342452342
700.000000000091,0.00703574075135774,1.0000000000001,0.00603055816859564
800.000000000113,0.00918206706650528,1.00000000000037,0.00745545577335919
900.000000000136,0.0115834068237417,1.00000000000077,0.00918456152184074
1000.00000000016,0.0134064559892659,0.999999999999809,0.0108114768944756
1100.0000000001,0.0159429647380068,1.00000000000084,0.0127385982127676
1200,0.0187895872500761,1.00000000000026,0.0147082515044012
1299.99999999991,0.0220190773490761,1.00000000000023,0.0167101294768286
1399.99999999982,0.0253643755267547,1.00000000000086,0.0189599973870699
1499.99999999973,0.0283008256443689,0.999999999999763,0.0211600040054321
1599.99999999964,0.0318876863165921,1.00000000000078,0.0235540050697076
1699.99999999955,0.0359332282010671,1.00000000000046,0.0260344767232917
1799.99999999946,0.0399982125364386,1.00000000000005,0.028536089956002
1899.99999999937,0.0440944823846116,1.00000000000088,0.0312333098950869
1999.99999999928,0.0481810181062103,0.999999999999798,0.033919946809713
2099.99999999919,0.0528745267409558,1.0000000000007,0.0367514954515718
2199.99999999909,0.0578427743849378,1.00000000000066,0.0396950923009442
2299.999999999,0.0624825947664471,0.999999999999856,0.0426642183656373
2399.99999999891,0.0671855490238402,1.00000000000088,0.0457898925917502
2499.99999999882,0.0723433150322359,0.999999999999946,0.048943172739104
2599.99999999873,0.0780013248483273,1.00000000000058,0.0522279095340858
2699.99999999864,0.0836145646165678,1.00000000000079,0.0556319978245317
2799.99999999855,0.08873775928635,0.999999999999683,0.0590675872662566
2899.99999999846,0.0940224443829162,1.00000000000088,0.0626469981198101
2999.99999999837,0.100026373477527,1.0000000000002,0.0663003842897683
3099.99999999828,0.106290241128692,1.00000000000039,0.0700892670213667
3199.99999999819,0.112256880435906,1.00000000000081,0.0739927199604457
3299.99999999809,0.117900642112034,0.999999999999577,0.077942595576528
3399.999999998,0.123834231705648,1.00000000000089,0.0820568182639931
3499.99999999791,0.13040461778151,1.00000000000049,0.0862935131900783
3599.99999999782,0.136866889726013,1.00000000000015,0.0906743914399283
3699.99999999773,0.142945703271977,1.00000000000079,0.0951777026343347
3799.99999999764,0.149112530394709,0.999999999999602,0.0997661922842786
3899.99999999755,0.155671361245121,1.00000000000085,0.104576416244724
3999.99999999746,0.162503956826559,1.00000000000073,0.109555941499981
4099.99999999738,0.168891988810199,0.999999999999919,0.114693110127703
4199.99999999775,0.17498034986032,1.00000000000084,0.120010889659903
4299.99999999811,0.181545056631801,0.999999999999835,0.125501897102662
4399.99999999848,0.18849754740932,1.00000000000078,0.131309159864552
4499.99999999884,0.195274770584508,1.00000000000093,0.137372765829355
4599.9999999992,0.201493387663493,0.999999999999883,0.143659861483835
4699.99999999957,0.207720956354849,1.00000000000127,0.15026552426707
4799.99999999993,0.214447963038173,1.00000000000075,0.157222440762658
4900.00000000029,0.221505395873917,1.00000000000153,0.164642497037822
5000.00000000066,0.228081093578669,1.00000000000251,0.172460227056127
5100.00000000102,0.234023640263787,1.00000000000247,0.180616660764535
5200.00000000139,0.241067775802663,1.00000000000551,0.189233197519246
5300.00000000175,0.247785808214364,1.00000000000752,0.198269238364193
5400.00000000211,0.255287154547527,1.00000000001081,0.20768680186831
5500.00000000248,0.263333656357529,1.00000000001531,0.217375241869735
5600.00000000284,0.270263827322138,1.00000000001865,0.227210608372341
5700.00000000321,0.28253413333136,1.00000000002656,0.237235382482431
5800.00000000357,0.294786164234259,1.00000000003421,0.247336277193405
5900.00000000393,0.311167551406856,1.00000000004058,0.257403987691865
6000.0000000043,0.336037518362547,1.00000000005031,0.267349858819161
6100.00000000466,0.363472088496386,1.00000000005813,0.277180190989587
6200.00000000502,0.408904895969588,1.00000000007016,0.286954223497616
6300.00000000539,0.465961824776977,1.00000000007765,0.296563034609011
6400.00000000575,0.540558597486356,1.00000000008985,0.305870707244649
6500.00000000612,0.646932144047745,1.00000000010029,0.314996200280786
6600.00000000648,0.775232742841042,1.0000000001121,0.323921791471794
6700.00000000684,0.948654520099077,1.00000000012658,0.332732343593955
6800.00000000721,1.16626909031098,1.00000000013412,0.341312159517678
6900.00000000757,1.43207733176543,1.00000000014133,0.349649723042509
7000.00000000793,1.76995640281767,1.00000000015821,0.357741068345889
7100.0000000083,2.17019536349525,1.00000000016857,0.365663093278944
7200.00000000866,2.65740391219968,1.00000000017537,0.37341450600798
7300.00000000903,3.23900824486706,1.00000000019246,0.380822619007422
7400.00000000939,3.91518038103179,1.00000000019484,0.388154259393066
7500.00000000975,4.71326924118994,1.00000000020799,0.395226207532991
7600.00000001012,5.62802157776738,1.00000000022025,0.402054057805389
7700.00000001048,6.67934327864584,1.00000000022968,0.408713107040842
7800.00000001084,7.87934382048195,1.00000000024156,0.415105588764352
7900.00000001121,9.22662758213394,1.00000000023909,0.42136580163159
8000.00000001157,10.7447161382817,1.00000000025966,0.427348478088098
8100.00000001194,12.4336813798557,1.00000000025622,0.433218766487013
8200.0000000123,14.3062975639591,1.00000000026421,0.438860086465518
8300.00000001266,16.3724484082388,1.00000000026848,0.444281908695014
8400.00000001303,18.6330556808903,1.00000000028168,0.449481392116789
8500.00000001339,21.1035923363719,1.00000000029145,0.454579229987794
8600.00000001376,23.7858128016432,1.00000000030165,0.459363010764548
8700.00000001412,26.6877492169773,1.00000000028731,0.464175632628163
8800.00000001448,29.8113344803564,1.00000000030828,0.468666528142737
8900.00000001485,33.1609025996575,1.00000000030048,0.473079899096275
9000.00000001521,36.74457198035,1.00000000030504,0.477286433393877
9100.00000001557,40.5594923459911,1.00000000030977,0.481281300754079
9200.00000001594,44.6139921586104,1.00000000031587,0.485153322798267
9300.0000000163,48.8999684921172,1.00000000032588,0.488862168982574
9400.00000001667,53.423027220594,1.00000000033885,0.49239317986667
9500.00000001703,58.1879618128068,1.00000000032412,0.495862549229413
9600.00000001739,63.1813757459278,1.00000000033129,0.499184949082544
9700.00000001776,68.4157506997551,1.00000000032446,0.502287917625213
9800.00000001812,73.8754815016632,1.0000000003353,0.50526965975934
9900.00000001848,79.5622810956941,1.00000000034243,0.508085183278066
10000.0000000188,85.4827270810538,1.00000000033903,0.510819456791142
10100.0000000192,91.6110889445019,1.00000000035227,0.513480960304349
10200.0000000196,97.9638619951018,1.00000000034043,0.516023008934563
10300.0000000199,104.523234173215,1.00000000035453,0.518330875540828
10400.0000000203,111.282433974199,1.00000000034074,0.520649810073453
10500.0000000207,118.252749469476,1.00000000033983,0.522774318375939
10600.000000021,125.399392912638,1.00000000034725,0.524788376991337
10700.0000000214,132.737976027708,1.00000000034596,0.526881323555403
10800.0000000218,140.256093575901,1.00000000035166,0.528611995586163
10900.0000000221,147.93410913363,1.00000000034178,0.530417322012043
11000.0000000225,155.789256955711,1.00000000035458,0.532057963971202
11100.0000000229,163.78415732664,1.00000000034873,0.53361061747313
11200.0000000232,171.927145685749,1.00000000034446,0.535135208812958
11300.0000000236,180.215980243464,1.00000000034366,0.536601251662231
11400.0000000239,188.618774742123,1.00000000033907,0.537848233264348
11500.0000000243,197.157096254976,1.00000000034694,0.539112232388615
11600.0000000247,205.796014787613,1.00000000034576,0.540431961689207
11700.000000025,214.534464987225,1.00000000032607,0.541294638451482
11800.0000000254,223.379889308816,1.0000000003356,0.542475070685131
11900.0000000258,232.293224303903,1.00000000033009,0.543492722027979
12000.0000000261,241.295423322429,1.00000000035016,0.544107425362257
12100.0000000265,250.358679070025,1.00000000033832,0.545266448993639
12200.0000000269,259.473489418763,1.00000000033825,0.545680898294343
12300.0000000272,268.653989545789,1.00000000034289,0.54631718187287
12400.0000000276,277.858382941046,1.00000000033538,0.547478778662228
12500.0000000279,287.105409849031,1.00000000033901,0.547544993289893
12600.0000000283,296.376650207514,1.00000000032377,0.548237316312424
12700.0000000287,305.653210862819,1.00000000032415,0.549077107221947
12800.000000029,314.955195175347,1.00000000033069,0.549066565961504
12900.0000000294,324.241296224422,1.00000000032922,0.549632216046859
13000.0000000298,333.524960330967,1.00000000032107,0.549884898955633
13100.0000000301,342.800137648841,1.0000000003321,0.55000511155546
13200.0000000305,352.038412900226,1.00000000032126,0.550829586670327
13300.0000000309,361.26387300392,1.00000000031816,0.550654796098309
13400.0000000312,370.442090169419,1.00000000030701,0.550810730038039
13500.0000000316,379.575843232264,1.00000000031151,0.551105293263657
13600.0000000319,388.671523314768,1.00000000030768,0.55118271925443
13700.0000000323,397.695368993201,1.00000000031259,0.551425708772036
13800.0000000327,406.670961171966,1.00000000030461,0.551311819116851
13900.000000033,415.572566574967,1.00000000030424,0.551257977086615
14000.0000000334,424.394689573188,1.00000000029791,0.551356469528927
14100.0000000338,433.152174264451,1.00000000029505,0.551395963319805
14200.0000000341,441.811190361283,1.00000000029802,0.55150807195807
14300.0000000345,450.390677802368,1.00000000030182,0.551296839077717
14400.0000000349,458.874884085908,1.0000000002954,0.551168308954236
14500.0000000352,467.251544111941,1.00000000029372,0.551051988852175
14600.0000000356,475.540191071203,1.00000000028973,0.550904041801926
14700.0000000359,483.709122742418,1.00000000028537,0.551155364854889
14800.0000000363,491.772354363945,1.00000000028591,0.550885747576385
14900.0000000367,499.724186759094,1.00000000027681,0.550321105347749
15000.000000037,507.547389918148,1.00000000027563,0.550309264467297
15100.0000000374,515.261884889706,1.00000000027953,0.55022155039012
15200.0000000378,522.843975365612,1.00000000028252,0.550193159678022
15300.0000000381,530.299115815612,1.00000000027771,0.549865155975516
15400.0000000385,537.629912828783,1.00000000028184,0.549633316418941
15500.0000000389,544.818976438075,1.00000000027208,0.549387638094981
15600.0000000392,551.883599528757,1.00000000026095,0.549019823242024
15700.0000000396,558.804700810414,1.00000000026791,0.548932936054661
15800.0000000399,565.584772135736,1.00000000027177,0.548874151955208
15900.0000000403,572.234066379133,1.00000000025641,0.548624499534225
16000.0000000407,578.729806438708,1.00000000026078,0.548003681630442
16100.000000041,585.090622491366,1.00000000026436,0.548361882929892
16200.0000000414,591.305178765277,1.00000000025411,0.547495680507692
16300.0000000418,597.369784775061,1.00000000025935,0.547828542162332
16400.0000000418,603.297427774281,1.00000000024606,0.546550699228144
16500.0000000404,609.069541448679,1.00000000025871,0.547817300839014
16600.0000000389,614.701037887116,1.00000000024035,0.546581506491166
16700.0000000375,620.184150403743,1.00000000024773,0.546777288197144
16800.000000036,625.513474372682,1.00000000024458,0.545606155410759
16900.0000000346,630.702781270906,1.00000000025342,0.545919370192752
17000.0000000331,635.737164787761,1.00000000023627,0.54534117577449
17100.0000000317,640.625375621994,1.00000000024193,0.545310668419078
17200.0000000302,645.366623529396,1.00000000023875,0.544889585268054
17300.0000000287,649.952350143626,1.0000000002317,0.545029851914544
17400.0000000273,654.398099084191,1.00000000023389,0.544273989827361
17500.0000000258,658.690072344039,1.0000000002341,0.543476793128635
17600.0000000244,662.834645590027,1.00000000023087,0.543165431034858
17700.0000000229,666.835478206934,1.00000000022038,0.54295023825505
17800.0000000215,670.683315630579,1.00000000022408,0.543426519375182
17900.00000002,674.392512120319,1.00000000022465,0.543115825114018
18000.0000000186,677.952951485616,1.00000000022154,0.543086314207649
18100.0000000171,681.368465192804,1.00000000021541,0.542066753436387
18200.0000000156,684.644873022743,1.0000000002184,0.540931180371598
18300.0000000142,687.772755347881,1.00000000020576,0.54029389285815
18400.0000000127,690.763349881189,1.00000000021613,0.540265184943311
18500.0000000113,693.612449244657,1.00000000020795,0.541280164074371
18600.0000000098,696.321107990372,1.00000000020815,0.542158119603812
18700.0000000084,698.900123602251,1.00000000021661,0.542348878862767
18800.0000000069,701.339585354734,1.00000000020637,0.541070831130503
18900.0000000055,703.648725511301,1.00000000020728,0.539001057545913
19000.000000004,705.82300510405,1.00000000020274,0.536648790632719
19100.0000000026,707.858692671274,1.000000000199,0.536394447964932
19200.0000000011,709.767205777543,1.00000000020052,0.537666893598069
19299.9999999996,711.542539668248,1.00000000019532,0.540689571777224
19399.9999999982,713.197700692822,1.00000000020181,0.543159804904792
19499.9999999967,714.735485304601,1.00000000020386,0.54321281493545
19599.9999999953,716.15342629089,1.0000000001983,0.541016052015306
19699.9999999938,717.457858831656,1.00000000019502,0.536047155856491
19799.9999999924,718.635943250405,1.00000000018432,0.532200884301446
19899.9999999909,719.689325874964,1.00000000018468,0.530717228637831
19999.9999999895,720.619752338383,1.00000000018256,0.533171090255354
20099.999999988,721.430455356696,1.00000000018781,0.53925650555048
20199.9999999865,722.140247768403,1.00000000019607,0.544410937571565
20299.9999999851,722.753349728837,1.0000000002045,0.547208242772494
20399.9999999836,723.277433693046,1.00000000019803,0.544889299468598
20499.9999999822,723.711287159227,1.0000000001915,0.538041825385815
20599.9999999807,724.040699699726,1.00000000017782,0.529804740905045
20699.9999999793,724.261164033002,1.00000000016136,0.5232276162577
20799.9999999778,724.363442212277,1.00000000016242,0.523239521245556
20899.9999999764,724.354925988686,1.00000000016056,0.529918561374677
20999.9999999749,724.253204284793,1.00000000018531,0.53989620948751
21099.9999999734,724.073070549181,1.00000000019595,0.548601459317482
21199.999999972,723.834220870383,1.00000000020234,0.551962816448665
21299.9999999705,723.539967953148,1.00000000021389,0.548806934986119
21399.9999999691,723.183203790616,1.0000000001929,0.538561869347047
21499.9999999676,722.752582914308,1.00000000017646,0.525114936740016
21599.9999999662,722.225619544692,1.00000000015243,0.513772144893416
21699.9999999647,721.597302175961,1.00000000014434,0.510005553296536
21799.9999999633,720.868014044552,1.000000000152,0.51710519888141
21899.9999999618,720.055552466051,1.00000000016917,0.531650940648025
21999.9999999603,719.186892887827,1.00000000020527,0.546055651132461
22099.9999999589,718.281621595157,1.00000000022042,0.555612600124757
22199.9999999574,717.355098718845,1.0000000002304,0.556468369237238
22299.999999956,716.406688341896,1.00000000022642,0.548866112948584
22399.9999999545,715.420876510764,1.00000000019215,0.533301754416677
22499.9999999531,714.379061755761,1.00000000016534,0.513858563332465
22599.9999999516,713.255852246497,1.00000000013442,0.497776873951275
22699.9999999502,712.043269033533,1.00000000012681,0.492998148295019
22799.9999999487,710.745063226472,1.00000000013643,0.50288283757261
22899.9999999473,709.379876892482,1.00000000016796,0.52344039903533
22999.9999999458,707.977993454047,1.00000000020429,0.54362170022894
23099.9999999443,706.562156138933,1.00000000023129,0.55705427150452
23199.9999999429,705.150181707953,1.00000000025063,0.561509343036655
23299.9999999414,703.745799804017,1.00000000024465,0.556521988290269
23399.99999994,702.336309281566,1.00000000022809,0.541611179952519
23499.9999999385,700.903323912266,1.00000000018467,0.518947579462023
23599.9999999371,699.418869061872,1.00000000014421,0.494028929800548
23699.9999999356,697.864122195209,1.00000000011697,0.476502929833822
23799.9999999342,696.232259343944,1.00000000010628,0.474739044255065
23899.9999999327,694.530416146209,1.0000000001329,0.491704744661087
23999.9999999312,692.784419365413,1.00000000016405,0.51866629924418
24099.9999999298,691.019128951408,1.00000000021936,0.543310561669653
24199.9999999283,689.259936729979,1.00000000024615,0.559473374892533
24299.9999999269,687.523262624834,1.00000000026068,0.565020268994899
24399.9999999254,685.810770478033,1.00000000027409,0.562166648239284
24499.999999924,684.117243781707,1.00000000024222,0.549466507236218
24599.9999999225,682.4231375464,1.00000000020609,0.526978814531317
24699.9999999211,680.704417176898,1.00000000016297,0.498014439046647
24799.9999999196,678.939993460706,1.00000000012157,0.470236930965349
24899.9999999181,677.112287177265,1.00000000009791,0.455239033440628
24999.9999999167,675.223919487303,1.00000000010325,0.460401312559704
25099.9999999152,673.286104854509,1.00000000013182,0.484313536378357
25199.9999999138,671.32105808874,1.00000000018084,0.516455344688678
25299.9999999123,669.354805752676,1.00000000023116,0.543058108297787
25399.9999999109,667.405354179072,1.00000000026495,0.559596485356949
25499.9999999094,665.486786039697,1.00000000027346,0.566208035548865
25599.999999908,663.603334516272,1.00000000027314,0.564542737049431
25699.9999999065,661.748937068331,1.00000000026524,0.555440406768883
25799.9999999051,659.911981532384,1.00000000022933,0.536028896714525
25899.9999999036,658.071066306019,1.00000000019625,0.508404573621801
25999.9999999021,656.207573212246,1.00000000014164,0.475675933835971
26099.9999999007,654.304394118747,1.00000000010416,0.44846758051743
26199.9999998992,652.352196217548,1.00000000009031,0.438610124653458
26299.9999998978,650.357111191406,1.00000000010027,0.448663490534105
26399.9999998963,648.328728722701,1.00000000013362,0.475656400718849
26499.9999998949,646.286635269367,1.00000000018028,0.510499971219557
26599.9999998934,644.250442276904,1.00000000023477,0.538518836067105
26699.999999892,642.233588449151,1.00000000025899,0.556010994743169
26799.9999998905,640.248321970525,1.00000000028486,0.563735885555081
26899.999999889,638.2978885398,1.00000000028192,0.562854855705412
26999.9999998876,636.380525380908,1.00000000027703,0.557846321141485
27099.9999998861,634.48989207698,1.00000000026253,0.543379035572533
27199.9999998847,632.611267622749,1.00000000022014,0.522990393180443
27299.9999998832,630.732557735054,1.00000000018126,0.493962039883367
27399.9999998818,628.836935452794,1.0000000001375,0.461481461805422
27499.9999998803,626.914165076527,1.00000000011435,0.437081126475045
27599.9999998789,624.960845163212,1.00000000009413,0.426902581046233
27699.9999998774,622.977293735234,1.00000000010583,0.435142640969937
27799.9999998759,620.974281934608,1.00000000012683,0.458560677114324
27899.9999998745,618.96241205051,1.00000000017356,0.490484852711231
27999.999999873,616.954179651424,1.00000000021329,0.521368342819194
28099.9999998716,614.962383110989,1.0000000002483,0.543469207277263
28199.9999998701,612.993776514908,1.00000000026724,0.553449820099214
28299.9999998687,611.053710415347,1.00000000029039,0.558409764030234
28399.9999998672,609.144409592696,1.00000000027875,0.553701790038538
28499.9999998658,607.261729040595,1.0000000002734,0.547780215373518
28599.9999998643,605.402315829696,1.00000000025068,0.535928049942691
28699.9999998629,603.556154392132,1.00000000022183,0.517326857190653
28799.9999998614,601.714722434135,1.00000000019998,0.495400847583754
