Time,AGPnorm,Energy,Entropy
0,0,1,-8.80942288549127e-19
99.9999999999986,0.00874632484644224,1.00000000000198,0.0244386004046339
199.999999999993,0.0237008039539788,1.00000000000027,0.0705954930211447
300,0.0463222808778249,1.00000000000362,0.141905055200826
400.000000000022,0.0698331956347152,1.00000000013033,0.249831823275985
500.000000000045,0.109547254147654,1.00000000109786,0.39122150049943
600.000000000068,0.480930292347664,1.00000000235582,0.495519225318817
700.000000000091,1.50727120468835,1.00000000308346,0.552419823172772
800.000000000113,3.34949717218064,1.00000000328539,0.579320752553948
900.000000000136,5.79163289073659,1.00000000329232,0.587212939797384
1000.00000000016,8.43636045582966,1.00000000313448,0.586003880080176
1100.0000000001,10.9953465656245,1.00000000298302,0.579041626051409
1200,13.1714125282786,1.00000000257509,0.5678711341381
1299.99999999991,14.8693202984768,1.00000000240564,0.561067989699403
1399.99999999982,16.0324467326098,1.00000000212494,0.54899078795865
1499.99999999973,16.7054386066733,1.00000000202403,0.544630175459145
1599.99999999964,16.9518686610187,1.00000000205403,0.570407837586388
1699.99999999955,16.8554862491734,1.00000000153552,0.508808641913531
1799.99999999946,16.6131242723465,1.00000000190818,0.548357996143949
1899.99999999937,16.1504984200635,1.0000000017809,0.50764806563701
1999.99999999928,15.7041816130938,1.00000000216289,0.53937809198866
2099.99999999919,15.1545482943987,1.00000000134084,0.431029871846308
2199.99999999909,14.6159906623587,1.00000000281685,0.57713062035705
2299.999999999,14.1205121900085,1.00000000127888,0.416124847606527
2399.99999999891,13.5855314787411,1.00000000182146,0.469752910721242
2499.99999999882,13.0815911962318,1.00000000257892,0.559422143748634
2599.99999999873,12.6312339715759,1.00000000153477,0.458904593587457
2699.99999999864,12.2031627221214,1.00000000151496,0.414014064078523
2799.99999999855,11.7825323092234,1.00000000212079,0.519414199425644
2899.99999999846,11.3819218923918,1.00000000259031,0.540251373945971
2999.99999999837,11.0117076478978,1.00000000204322,0.524910005655983
3099.99999999828,10.7041243923063,1.00000000104651,0.386456484507811
3199.99999999819,10.434090670633,1.00000000215248,0.476043987460995
3299.99999999809,10.1550395123868,1.00000000194944,0.529673330670172
3399.999999998,9.89103140974251,1.00000000196744,0.527151057171115
3499.99999999791,9.619941668103,1.0000000025701,0.549884271060309
3599.99999999782,9.36194880084933,1.00000000187683,0.529520651338115
3699.99999999773,9.17485059359829,1.00000000115083,0.407797395059368
3799.99999999764,9.06526190719255,1.00000000160957,0.442044733788258
3899.99999999755,8.94368493642014,1.00000000216376,0.52536645420667
3999.99999999746,8.81336055804417,1.00000000213383,0.544121901017532
4099.99999999738,8.67218880151877,1.00000000214123,0.548912979180833
4199.99999999775,8.52295236673712,1.00000000199673,0.562507136874184
4299.99999999811,8.37051333624986,1.00000000218585,0.541259377535803
4399.99999999848,8.20310051746588,1.00000000282759,0.565666353028142
4499.99999999884,8.03890399716279,1.00000000199731,0.542812964211847
4599.9999999992,7.93946231447513,1.00000000121933,0.439013623173969
4699.99999999957,7.94357387718702,1.00000000160072,0.434174763383064
4799.99999999993,7.97183092696541,1.0000000019777,0.48896952833544
4900.00000000029,7.97791229306374,1.00000000221174,0.535526686877458
5000.00000000066,7.96031563430495,1.00000000212344,0.56004546187498
5100.00000000102,7.92506511811413,1.00000000214548,0.575015650428107
5200.00000000139,7.88049965374598,1.00000000195794,0.573501635569119
5300.00000000175,7.8283045504944,1.00000000206713,0.570244667511577
5400.00000000211,7.75885230048134,1.00000000218895,0.572250051987338
5500.00000000248,7.67824096334736,1.00000000210319,0.583836654884137
5600.00000000284,7.5970234353081,1.00000000194731,0.590317283749131
5700.00000000321,7.50851057112115,1.00000000224414,0.583832077424157
5800.00000000357,7.40998885073752,1.00000000259985,0.587731653773072
5900.00000000393,7.30256570218693,1.00000000272626,0.580151907068232
6000.0000000043,7.19649589967633,1.00000000188479,0.553262465790953
6100.00000000466,7.13516057098001,1.00000000135996,0.483738974953307
6200.00000000502,7.16977748062229,1.000000001305,0.446964795970431
6300.00000000539,7.28717760266481,1.00000000177837,0.468338922806684
6400.00000000575,7.41344413128948,1.00000000227562,0.513243365294651
6500.00000000612,7.51813051119085,1.00000000216357,0.542265948042052
6600.00000000648,7.60367048735933,1.00000000195844,0.564470703120948
6700.00000000684,7.67195225686137,1.00000000230371,0.593106595389279
6800.00000000721,7.70934885083401,1.00000000232843,0.608011089194496
6900.00000000757,7.7282322980922,1.00000000207497,0.62259942925639
7000.00000000793,7.72919063835725,1.00000000234924,0.624230140359662
7100.0000000083,7.71163451696439,1.00000000226642,0.625655031807773
7200.00000000866,7.68851108336562,1.00000000216368,0.615514746636653
7300.00000000903,7.66773705040684,1.00000000191608,0.605819898434034
7400.00000000939,7.65111947556022,1.00000000222196,0.590201040895407
7500.00000000975,7.61978714393277,1.00000000226855,0.604500301288024
7600.00000001012,7.58694746338424,1.00000000224485,0.606246114740871
7700.00000001048,7.56028082475661,1.00000000227595,0.621879453597469
7800.00000001084,7.52570397428748,1.00000000215207,0.629272899409746
7900.00000001121,7.49017352458543,1.00000000233659,0.622688962911522
8000.00000001157,7.4502122852737,1.0000000021988,0.604439491329702
8100.00000001194,7.40665091602347,1.00000000236587,0.615621292806681
8200.0000000123,7.35110339401167,1.00000000238466,0.6429925087693
8300.00000001266,7.28947032985683,1.00000000218324,0.636062847967018
8400.00000001303,7.22651255553924,1.00000000199962,0.632530360207179
8500.00000001339,7.16172972338647,1.00000000222422,0.638549293180053
8600.00000001376,7.09440345391795,1.00000000256949,0.64427463437315
8700.00000001412,7.02660624846294,1.0000000025403,0.657913475125105
8800.00000001448,6.95988395066233,1.00000000284588,0.650927664412393
8900.00000001485,6.89039058279974,1.00000000257198,0.632003250335485
9000.00000001521,6.81785259892224,1.00000000218257,0.595939131541222
9100.00000001557,6.76331296360299,1.00000000174609,0.542451305064337
9200.00000001594,6.76395832697196,1.00000000151788,0.494982803558344
9300.0000000163,6.85178487135591,1.0000000015924,0.476438554897212
9400.00000001667,7.0203531158677,1.0000000018297,0.479308466614714
9500.00000001703,7.22920202169324,1.00000000233919,0.507012908025353
9600.00000001739,7.44402378121849,1.00000000253413,0.528102360343838
9700.00000001776,7.63762752205616,1.00000000249352,0.548032017547175
9800.00000001812,7.81982927450283,1.00000000257043,0.569009345389748
9900.00000001848,7.97869831275039,1.00000000240075,0.576593092991261
10000.0000000188,8.12378808878711,1.00000000254349,0.593383830217923
10100.0000000192,8.24389458506212,1.0000000025292,0.614192339698765
10200.0000000196,8.34582014253873,1.00000000264011,0.62940071616861
10300.0000000199,8.42839480910652,1.00000000260665,0.611164126750026
10400.0000000203,8.49248663992797,1.00000000250617,0.632809434057457
10500.0000000207,8.53829066152946,1.0000000026305,0.65828837405941
10600.000000021,8.57196518266856,1.00000000254486,0.650428481333163
10700.0000000214,8.59679875375736,1.00000000236844,0.645210562052845
10800.0000000218,8.62136438882259,1.00000000244994,0.643295890053586
10900.0000000221,8.63439324632022,1.00000000264497,0.645015263305684
11000.0000000225,8.64366467379776,1.00000000226182,0.649623921552587
11100.0000000229,8.64571244366387,1.00000000238601,0.644126231035661
11200.0000000232,8.63742850496519,1.00000000259959,0.652406271063156
11300.0000000236,8.62647477044642,1.00000000254764,0.652107931435151
11400.0000000239,8.60887074423199,1.00000000249028,0.646621329252451
11500.0000000243,8.58782426073844,1.0000000025297,0.651480907254661
11600.0000000247,8.56065197167095,1.00000000262131,0.662911373893889
11700.000000025,8.53243625148106,1.00000000254112,0.653599927421245
11800.0000000254,8.50365835224855,1.00000000250228,0.648460059315124
11900.0000000258,8.47494024903135,1.00000000235982,0.639324927690119
12000.0000000261,8.45058640396746,1.00000000237208,0.619534635960162
12100.0000000265,8.43552290436762,1.00000000248975,0.607740449545995
12200.0000000269,8.43166922554975,1.00000000247521,0.629118182234121
12300.0000000272,8.43555939401453,1.00000000246705,0.641012479063903
12400.0000000276,8.4384974955713,1.00000000255728,0.636131879332443
12500.0000000279,8.43577146687022,1.00000000270079,0.629717224612799
12600.0000000283,8.43417206930566,1.00000000240309,0.617426716839313
12700.0000000287,8.43531332118767,1.00000000286643,0.626813486363779
12800.000000029,8.43283135894714,1.0000000027936,0.627281348682806
12900.0000000294,8.43105695460321,1.00000000240295,0.632816789090917
13000.0000000298,8.43165587775507,1.00000000252249,0.641103090783396
13100.0000000301,8.42813532332558,1.0000000027657,0.646032865565082
13200.0000000305,8.42005791283632,1.00000000259742,0.641238393490933
13300.0000000309,8.41619416236075,1.00000000250174,0.641176598094678
13400.0000000312,8.41466439225333,1.00000000264993,0.650575837267413
13500.0000000316,8.41698115118504,1.00000000238257,0.642969280351982
13600.0000000319,8.42209133535115,1.00000000261369,0.646601908450179
13700.0000000323,8.42210419169819,1.00000000269626,0.648112947844705
13800.0000000327,8.41681516179228,1.000000002765,0.641253388272764
13900.000000033,8.41476061411371,1.00000000238495,0.655105658165497
14000.0000000334,8.40914776161347,1.0000000027127,0.665603642343147
14100.0000000338,8.4013203053242,1.00000000260729,0.658279495461354
14200.0000000341,8.39384448934265,1.00000000269766,0.67594177790672
14300.0000000345,8.38243866975501,1.00000000271992,0.67190890549606
14400.0000000349,8.37306120307838,1.00000000262405,0.66398790014907
14500.0000000352,8.3632788116365,1.00000000270062,0.662889562410478
14600.0000000356,8.353595429428,1.00000000253354,0.659186286308195
14700.0000000359,8.34442238167538,1.00000000248228,0.661149199214768
14800.0000000363,8.33469428982299,1.00000000270974,0.659676730657149
14900.0000000367,8.32070910083077,1.00000000293641,0.662374931923413
15000.000000037,8.30322437639006,1.0000000026042,0.659772332378598
15100.0000000374,8.28650849493156,1.00000000247576,0.649462706930477
15200.0000000378,8.26925450782815,1.00000000270408,0.660627345635474
15300.0000000381,8.2518583767732,1.00000000265887,0.656499057962417
15400.0000000385,8.23679459400267,1.00000000281885,0.659153727055878
15500.0000000389,8.21468416031357,1.00000000287145,0.678730631157723
15600.0000000392,8.19094642073246,1.0000000026223,0.659478847455459
15700.0000000396,8.16932354256483,1.00000000289246,0.654314842824087
15800.0000000399,8.1463805587297,1.00000000267001,0.665657061898896
15900.0000000403,8.12226129239752,1.00000000279671,0.667178228656517
16000.0000000407,8.09270972201034,1.0000000030518,0.680153701426294
16100.000000041,8.05808546123874,1.00000000269485,0.671774365326801
16200.0000000414,8.02422452738909,1.00000000266144,0.665032753969881
16300.0000000418,7.98780742604771,1.00000000312611,0.67047342932382
16400.0000000418,7.94786877175263,1.00000000288436,0.66906977334926
16500.0000000404,7.90588838112425,1.00000000327722,0.66670485336117
16600.0000000389,7.86237929385196,1.00000000281575,0.671320667868993
16700.0000000375,7.81899495249663,1.00000000263209,0.658718306453525
16800.000000036,7.77519106620607,1.00000000282492,0.671471726108554
16900.0000000346,7.73251840810904,1.00000000262726,0.656601593161621
17000.0000000331,7.6910364464115,1.00000000267263,0.654792798749743
17100.0000000317,7.65277665072795,1.00000000301873,0.653258757586623
17200.0000000302,7.61781181800358,1.00000000302209,0.652091158556121
17300.0000000287,7.58756441402143,1.00000000340253,0.661943469693652
17400.0000000273,7.56483170576702,1.00000000324325,0.675180298323596
17500.0000000258,7.54522770929311,1.00000000318126,0.676075596422276
17600.0000000244,7.53364872928381,1.00000000316214,0.679984164007729
17700.0000000229,7.51725761309462,1.00000000319011,0.675103207146314
17800.0000000215,7.5030141454699,1.00000000298641,0.663953759456939
17900.00000002,7.47604413290195,1.00000000307306,0.651147673092605
18000.0000000186,7.44195216214618,1.00000000301209,0.625035216759296
18100.0000000171,7.40300904231887,1.00000000260854,0.602147338846627
18200.0000000156,7.37017124949677,1.00000000235048,0.582635873578574
18300.0000000142,7.36482831295958,1.00000000224049,0.560966297551521
18400.0000000127,7.40486763625377,1.00000000206763,0.540164806857577
18500.0000000113,7.51507456037162,1.00000000224231,0.525494028389163
18600.0000000098,7.69875521560869,1.00000000217233,0.518922611706264
18700.0000000084,7.97249974541698,1.00000000232771,0.524598454213867
18800.0000000069,8.30348659709913,1.00000000233738,0.525890328016894
18900.0000000055,8.70167103581916,1.00000000282258,0.535334110220579
19000.000000004,9.10709301708793,1.0000000026669,0.540097573979106
19100.0000000026,9.5460732774642,1.00000000311819,0.549665969664493
19200.0000000011,9.95927218743872,1.00000000318538,0.556092633467651
19299.9999999996,10.3834921135787,1.0000000031722,0.565922948385686
19399.9999999982,10.7762972828583,1.00000000323236,0.581426728604146
19499.9999999967,11.164575436306,1.00000000318286,0.582161290519796
19599.9999999953,11.5379424470656,1.00000000323534,0.587702604452477
19699.9999999938,11.9002115372905,1.00000000309945,0.589549783152675
19799.9999999924,12.2605058431506,1.00000000306695,0.60378902488373
19899.9999999909,12.6055162744239,1.00000000291995,0.607171481173619
19999.9999999895,12.9506921507092,1.00000000328144,0.621344766606177
20099.999999988,13.2756617953449,1.00000000288346,0.626269688609829
20199.9999999865,13.5882786347608,1.00000000348387,0.633140788902774
20299.9999999851,13.8872586924024,1.00000000326166,0.645253282926679
20399.9999999836,14.1624952689291,1.00000000314683,0.640435475285032
20499.9999999822,14.4265429378543,1.00000000328072,0.650219304814644
20599.9999999807,14.6609838316401,1.00000000320016,0.652609243026495
20699.9999999793,14.8810297984017,1.00000000382296,0.657684633398005
20799.9999999778,15.0752848859131,1.00000000297858,0.669379223003547
20899.9999999764,15.261438075612,1.00000000347384,0.660571356929451
20999.9999999749,15.4475568603669,1.00000000315921,0.672832951250002
21099.9999999734,15.6202357810991,1.0000000030787,0.67182439545621
21199.999999972,15.7824477943783,1.00000000296395,0.668747533065597
21299.9999999705,15.935252712734,1.00000000308189,0.678453809447108
21399.9999999691,16.0848047491034,1.00000000330201,0.682245163381915
21499.9999999676,16.2224228293412,1.0000000030027,0.675500307284578
21599.9999999662,16.3570590273292,1.00000000315174,0.683779179397661
21699.9999999647,16.4849559861478,1.00000000337463,0.68988865729909
21799.9999999633,16.5952093779226,1.00000000342702,0.683723653077709
21899.9999999618,16.7027725467428,1.00000000300416,0.691570790022656
21999.9999999603,16.806291466583,1.00000000335086,0.69559233892789
22099.9999999589,16.9196871928191,1.00000000279208,0.686892184314366
22199.9999999574,17.0328716910348,1.00000000310272,0.683149751744248
22299.999999956,17.1405767235291,1.00000000312407,0.679648792537047
22399.9999999545,17.2349269400989,1.00000000324454,0.689073027307644
22499.9999999531,17.3257594001069,1.00000000330023,0.690712540236345
22599.9999999516,17.4220653140784,1.00000000314885,0.679152045011859
22699.9999999502,17.5275856205004,1.0000000029886,0.687337959449872
22799.9999999487,17.6457915263791,1.00000000314043,0.69330821152833
22899.9999999473,17.7478327821544,1.00000000342088,0.678233149404581
22999.9999999458,17.8316721855192,1.00000000313382,0.662536273892213
23099.9999999443,17.9116138620945,1.00000000288978,0.677633021013439
23199.9999999429,17.9947218924783,1.00000000302011,0.682421142062747
23299.9999999414,18.0850633349628,1.00000000318184,0.67630266795058
23399.99999994,18.1690286932407,1.00000000354456,0.685099220402452
23499.9999999385,18.2427939906334,1.00000000331664,0.681045857638821
23599.9999999371,18.307662037796,1.00000000330276,0.693378975802115
23699.9999999356,18.3742827833662,1.00000000359856,0.680366652259001
23799.9999999342,18.4562049943127,1.00000000351966,0.664225715991761
23899.9999999327,18.5470648648031,1.00000000382956,0.690100037050243
23999.9999999312,18.6374632202418,1.00000000299978,0.684594526138813
24099.9999999298,18.7304612358389,1.00000000338764,0.685985640241099
24199.9999999283,18.8255753143195,1.00000000362002,0.691011218720207
24299.9999999269,18.9074793564352,1.00000000372835,0.678789432054504
24399.9999999254,18.988926704395,1.00000000356845,0.679086808579074
24499.999999924,19.0721567565157,1.00000000320269,0.673942236661177
24599.9999999225,19.1646822367344,1.00000000385616,0.681726838269058
24699.9999999211,19.2596895404579,1.00000000323033,0.669118994697725
24799.9999999196,19.3520419715097,1.00000000325994,0.661956159501092
24899.9999999181,19.4442164898505,1.00000000323142,0.666936155946539
24999.9999999167,19.5404844647226,1.00000000295196,0.669752838355951
25099.9999999152,19.6504968847551,1.0000000032754,0.668268376374854
25199.9999999138,19.7556185587407,1.00000000375889,0.688175349953168
25299.9999999123,19.8469622375784,1.00000000336408,0.683328257291166
25399.9999999109,19.9372833915561,1.0000000032323,0.685723951947594
25499.9999999094,20.0250893589333,1.00000000368892,0.687837757169299
25599.999999908,20.1133376670136,1.00000000374705,0.672060974672265
25699.9999999065,20.199665895632,1.00000000366504,0.688950219244335
25799.9999999051,20.2788490273511,1.00000000351538,0.6863987826968
25899.9999999036,20.3537464828322,1.00000000345041,0.67809671272218
25999.9999999021,20.4366983739923,1.00000000335198,0.674829647315512
26099.9999999007,20.5219639567425,1.00000000313399,0.688577805440908
26199.9999998992,20.6012761129766,1.00000000368586,0.696405732875626
26299.9999998978,20.6796136095964,1.0000000035481,0.698384711110272
26399.9999998963,20.7622314566759,1.00000000345176,0.698023651516635
26499.9999998949,20.8421218259956,1.00000000366638,0.692583544063411
26599.9999998934,20.920612509216,1.00000000369033,0.687243350085306
26699.999999892,21.0009289943548,1.00000000348132,0.693918270102689
26799.9999998905,21.0851290918758,1.00000000338599,0.689397684701034
26899.999999889,21.1796217112848,1.00000000323928,0.673262065845056
26999.9999998876,21.290949191387,1.00000000349637,0.671817625712665
27099.9999998861,21.4110914609844,1.00000000369441,0.688158531077055
27199.9999998847,21.540622959167,1.00000000344435,0.690436880773706
27299.9999998832,21.6796120131511,1.0000000033526,0.687178752790882
27399.9999998818,21.8220357760729,1.00000000357578,0.686264197330512
27499.9999998803,21.9647214320958,1.00000000359604,0.680998091542555
27599.9999998789,22.0959651631209,1.00000000399601,0.682265064676843
27699.9999998774,22.2208426258572,1.00000000380457,0.690400942946475
27799.9999998759,22.3434208485762,1.00000000366183,0.689741481589787
27899.9999998745,22.4700699949072,1.00000000331444,0.673047668592361
27999.999999873,22.603694626154,1.00000000357925,0.686859172532816
28099.9999998716,22.7344035245038,1.00000000394742,0.704386274994893
28199.9999998701,22.8671766589615,1.00000000360655,0.688617858197642
28299.9999998687,23.0034041643617,1.0000000036313,0.692623376053752
28399.9999998672,23.1368627914401,1.0000000035384,0.697071801175452
28499.9999998658,23.2790848722459,1.00000000341441,0.693433248962389
28599.9999998643,23.4230848875176,1.00000000342418,0.699402531773622
28699.9999998629,23.5627996914244,1.00000000385179,0.694225833147556
28799.9999998614,23.6985386912921,1.00000000364176,0.695817178868232
28899.9999998599,23.8356420463357,1.0000000032591,0.690243931958866
28999.9999998585,23.9644940302414,1.00000000364944,0.686409641166084
29099.999999857,24.0874956139107,1.00000000316904,0.674017360091254
