Time,AGPnorm,Energy,Entropy
0,0,1,-7.6058497847721e-17
99.9999999999986,0.00087793024698403,0.999999999997406,0.00317017108639456
199.999999999993,0.00635805533565944,0.99999999999659,0.00932166587623217
300,0.013041013810874,0.999999999999005,0.0172398602322881
400.000000000022,0.0192866627448746,1.00000000000064,0.0274231383617841
500.000000000045,0.0278994898699366,0.999999999998341,0.039702443752358
600.000000000068,0.0386023484491162,0.999999999996352,0.0535506729865978
700.000000000091,0.0502978672293141,0.999999999998035,0.0689626971288647
800.000000000113,0.061095937692268,1.00000000000031,0.0862621060596755
900.000000000136,0.0742667985805725,0.999999999999765,0.106087506357146
1000.00000000016,0.0869152682596307,0.999999999996721,0.128316717976151
1100.0000000001,0.101504017832167,0.999999999998403,0.153842651953906
1200,0.11399848415387,1.00000000000626,0.184329120625557
1299.99999999991,0.127560156491837,1.00000000003415,0.221018798669448
1399.99999999982,0.139164514916761,1.0000000001006,0.263225467043372
1499.99999999973,0.163239885309026,1.00000000022697,0.30618771901408
1599.99999999964,0.230681145611719,1.00000000038692,0.347251050721579
1699.99999999955,0.366809236550703,1.00000000058307,0.383858321750633
1799.99999999946,0.631587254579379,1.00000000075915,0.416781802295195
1899.99999999937,1.126051555973,1.00000000091959,0.444523538604046
1999.99999999928,1.9275648064807,1.00000000105002,0.468421150803857
2099.99999999919,3.06989387831383,1.00000000110314,0.489266054920719
2199.99999999909,4.60713159358371,1.00000000118918,0.507361764857875
2299.999999999,6.61042479427388,1.00000000126469,0.521518283681588
2399.99999999891,9.06582617188737,1.00000000127917,0.533465478506309
2499.99999999882,11.9163798584799,1.00000000136372,0.543344318525237
2599.99999999873,15.1415039806152,1.00000000132598,0.552325845821743
2699.99999999864,18.7414332396388,1.0000000013481,0.558214243231539
2799.99999999855,22.6492434847195,1.00000000135115,0.562788058596649
2899.99999999846,26.7512469598207,1.00000000134853,0.566754662766871
2999.99999999837,30.9893004074787,1.00000000134387,0.569673683581699
3099.99999999828,35.3379298964998,1.00000000127647,0.571191728642334
3199.99999999819,39.7452062787013,1.00000000120669,0.571369282223509
3299.99999999809,44.1133457898672,1.00000000119994,0.571647689491109
3399.999999998,48.3757506330773,1.00000000119036,0.571551652035046
3499.99999999791,52.5163342777779,1.00000000117505,0.57192467060579
3599.99999999782,56.5078043788916,1.00000000121681,0.570072041279924
3699.99999999773,60.3044664010391,1.00000000111047,0.567619734938323
3799.99999999764,63.8580137834533,1.0000000011125,0.565897850507591
3899.99999999755,67.1498317609423,1.00000000108535,0.56715855040206
3999.99999999746,70.1816284059676,1.00000000102623,0.563494957645609
4099.99999999738,72.9519847163641,1.0000000009908,0.559921307766656
4199.99999999775,75.433971020825,1.00000000097017,0.56112743000355
4299.99999999811,77.616389855171,1.00000000092948,0.557115537652153
4399.99999999848,79.5203438192204,1.0000000008866,0.557609260499915
4499.99999999884,81.1543770022154,1.00000000087441,0.553554517934725
4599.9999999992,82.5215430288979,1.0000000008363,0.551381256700179
4699.99999999957,83.6298940462444,1.00000000082264,0.557196897530362
4799.99999999993,84.4865628738239,1.00000000078656,0.545257386071534
4900.00000000029,85.1041324383205,1.00000000079706,0.553213289490177
5000.00000000066,85.5340713413442,1.00000000080864,0.557328237130686
5100.00000000102,85.7630961079574,1.00000000069238,0.532727193512357
5200.00000000139,85.7811660381993,1.00000000074058,0.550660103601333
5300.00000000175,85.6797208114202,1.00000000084793,0.564867518029009
5400.00000000211,85.4447220836713,1.0000000006427,0.524078476890979
5500.00000000248,85.0309072699259,1.0000000006662,0.530003433307124
5600.00000000284,84.5421184232882,1.00000000095123,0.574531801295972
5700.00000000321,84.012847475706,1.00000000076935,0.540681747031546
5800.00000000357,83.3546452379038,1.00000000051276,0.492687833926267
5900.00000000393,82.5902407795064,1.00000000078,0.544094819550101
6000.0000000043,81.8383819478303,1.00000000105277,0.578122556703495
6100.00000000466,81.0871350368702,1.00000000072574,0.521281389591281
6200.00000000502,80.2405038819256,1.00000000043819,0.466446746585856
6300.00000000539,79.3186207941767,1.00000000078146,0.524896128397132
6400.00000000575,78.4269040317315,1.00000000112154,0.577177409752045
6500.00000000612,77.5810206320894,1.00000000086225,0.542606691074061
6600.00000000648,76.7057195985535,1.0000000004882,0.457488576959483
6700.00000000684,75.761071689293,1.00000000050102,0.455036379108512
6800.00000000721,74.8059259850617,1.00000000097032,0.539821403546235
6900.00000000757,73.9003958289453,1.00000000119509,0.569700619632089
7000.00000000793,73.0401072375062,1.00000000092869,0.532339494263279
7100.0000000083,72.1717810801881,1.00000000055553,0.449478091415565
7200.00000000866,71.2682589466999,1.00000000050898,0.432081930907365
7300.00000000903,70.3553009671599,1.00000000076286,0.493410123927138
7400.00000000939,69.4689482078739,1.00000000110146,0.549589108341485
7500.00000000975,68.6245449678234,1.00000000106338,0.552540842757012
7600.00000001012,67.8066563358053,1.0000000007941,0.505088485172127
7700.00000001048,66.989723107597,1.00000000054998,0.449176696396079
7800.00000001084,66.1686286481983,1.00000000054731,0.437790886302664
7900.00000001121,65.3515536215511,1.00000000067922,0.469510902445311
8000.00000001157,64.5492205982547,1.00000000092835,0.517683951349554
8100.00000001194,63.7702169831542,1.00000000100094,0.54030031463203
8200.0000000123,63.0162325720466,1.00000000095104,0.533045522279788
8300.00000001266,62.27972359446,1.00000000072762,0.49523166824654
8400.00000001303,61.5549883597604,1.00000000061544,0.460520575638828
8500.00000001339,60.8449749313342,1.0000000006587,0.452117406446593
8600.00000001376,60.1510445134226,1.00000000070525,0.475753195966883
8700.00000001412,59.4726444527501,1.00000000074552,0.487784402302808
8800.00000001448,58.8099279011971,1.00000000081044,0.506337139522218
8900.00000001485,58.1607118427005,1.00000000091615,0.524427345678806
9000.00000001521,57.523185128021,1.00000000095868,0.534760756780646
9100.00000001557,56.8993339135342,1.00000000082318,0.515603547759501
9200.00000001594,56.2941792082435,1.00000000057995,0.470450847487716
9300.0000000163,55.7123208523237,1.00000000060559,0.459627755653213
9400.00000001667,55.1518911806907,1.00000000076962,0.473957429974084
9500.00000001703,54.6069703201902,1.0000000008107,0.496470886037394
9600.00000001739,54.0756290936706,1.00000000073678,0.496294755749298
9700.00000001776,53.5627483000555,1.00000000069554,0.487233773075541
9800.00000001812,53.0653663663186,1.00000000075936,0.501528195625371
9900.00000001848,52.5737432331265,1.00000000099491,0.528237222982087
10000.0000000188,52.0819702863113,1.00000000105348,0.5385367004455
10100.0000000192,51.5952372694414,1.00000000090035,0.522909714806945
10200.0000000196,51.1270375120876,1.00000000062651,0.484741111604566
10300.0000000199,50.6863553425096,1.00000000056558,0.461909048006624
10400.0000000203,50.2714709528805,1.00000000074216,0.470532724669188
10500.0000000207,49.8701571557359,1.00000000085597,0.48408953632561
10600.000000021,49.4729424677498,1.0000000008438,0.496332582475045
10700.0000000214,49.0819387649075,1.00000000080693,0.509100600631175
10800.0000000218,48.7073924193309,1.00000000069798,0.493697851242883
10900.0000000221,48.3517412432959,1.00000000068563,0.491918036061287
11000.0000000225,48.0060632721779,1.00000000079858,0.512058567216155
11100.0000000229,47.660824981124,1.00000000089696,0.5276389305724
11200.0000000232,47.3088544843424,1.00000000094593,0.533373299876335
11300.0000000236,46.95341745848,1.00000000094691,0.534185183937773
11400.0000000239,46.6064436934931,1.00000000071121,0.513750930648996
11500.0000000243,46.2804031153544,1.00000000065178,0.488132758784903
11600.0000000247,45.9802751960747,1.00000000064084,0.478246260607416
11700.000000025,45.7023252978701,1.00000000072206,0.484594885473909
11800.0000000254,45.4406997605277,1.00000000077562,0.490131959288279
11900.0000000258,45.1863248638116,1.00000000078746,0.502460088454345
12000.0000000261,44.9359243317924,1.00000000078861,0.496528257595461
12100.0000000265,44.6905467889126,1.00000000076845,0.507403041817794
12200.0000000269,44.4491098975903,1.00000000077162,0.521466539443295
12300.0000000272,44.2131818911033,1.00000000078938,0.528747905756295
12400.0000000276,43.9829013599656,1.0000000007338,0.529684206638942
12500.0000000279,43.7560371524025,1.00000000072798,0.531215000049268
12600.0000000283,43.5334516476001,1.00000000078684,0.527379149199235
12700.0000000287,43.3129841890874,1.00000000087694,0.527174168827469
12800.000000029,43.0898416062488,1.00000000092514,0.536810947745585
12900.0000000294,42.8606799991598,1.00000000091896,0.542447214398941
13000.0000000298,42.6323821025746,1.00000000075397,0.531829654844288
13100.0000000301,42.4204808449552,1.00000000067307,0.513490347783731
13200.0000000305,42.2335832175986,1.00000000063846,0.493455750938664
13300.0000000309,42.0699272333631,1.00000000069742,0.48863212755298
13400.0000000312,41.9172473938595,1.0000000008181,0.505213711768618
13500.0000000316,41.7679317707342,1.00000000083318,0.508001398484368
13600.0000000319,41.6245685264284,1.00000000077201,0.499493683390485
13700.0000000323,41.491819596365,1.00000000071679,0.504164839896018
13800.0000000327,41.3712942245534,1.00000000070709,0.508772199589023
13900.000000033,41.2615449212297,1.00000000072054,0.509978707444587
14000.0000000334,41.1535678487882,1.00000000082347,0.522706459640437
14100.0000000338,41.0366212564016,1.00000000091357,0.538822940121684
14200.0000000341,40.9057804668303,1.00000000089092,0.552095314149264
14300.0000000345,40.7642169034078,1.00000000082716,0.554522445913096
14400.0000000349,40.6175205123395,1.00000000078695,0.556089317795686
14500.0000000352,40.472638383887,1.00000000072076,0.550813283444855
14600.0000000356,40.3348953670495,1.0000000006768,0.544091472209988
14700.0000000359,40.2039044986445,1.00000000076243,0.53918282930287
14800.0000000363,40.074497032678,1.00000000080995,0.533182684526655
14900.0000000367,39.9424928559128,1.00000000088649,0.538823282978443
15000.000000037,39.8051408838095,1.00000000094046,0.544394012828284
15100.0000000374,39.6639922021666,1.00000000088164,0.549760435504757
15200.0000000378,39.5289957664031,1.00000000074695,0.541283369702643
15300.0000000381,39.4096933683417,1.00000000067314,0.530213306523278
15400.0000000385,39.3104800288626,1.00000000071019,0.517395482929617
15500.0000000389,39.2296176054484,1.00000000071586,0.511824789142206
15600.0000000392,39.1626159726594,1.00000000076417,0.513623646176958
15700.0000000396,39.1043740920223,1.00000000077897,0.509595564102968
15800.0000000399,39.0458376900105,1.00000000080062,0.512162036968693
15900.0000000403,38.98925650764,1.00000000076922,0.510629961965501
16000.0000000407,38.9407131862698,1.00000000074324,0.511422549019813
16100.000000041,38.9015535415542,1.00000000072669,0.521413929372294
16200.0000000414,38.8660323217408,1.00000000079192,0.534317348152882
16300.0000000418,38.8294185990886,1.00000000081749,0.5487988006078
16400.0000000418,38.7924515330911,1.00000000077083,0.552902734271146
16500.0000000404,38.7564472309529,1.00000000075434,0.554442974055341
16600.0000000389,38.7227300396963,1.00000000080486,0.554656446611344
16700.0000000375,38.6881059819166,1.00000000080988,0.547757679688338
16800.000000036,38.6452743670138,1.00000000082875,0.55415702647457
16900.0000000346,38.5900624550481,1.00000000088326,0.561409596551541
17000.0000000331,38.5218942671959,1.00000000086537,0.557410837030237
17100.0000000317,38.4398888566375,1.00000000085364,0.558292119197406
17200.0000000302,38.3469730272552,1.00000000087617,0.572777833184051
17300.0000000287,38.2491267338388,1.00000000086083,0.578686990837971
17400.0000000273,38.1528267001709,1.00000000072414,0.567785152387545
17500.0000000258,38.0627419057865,1.00000000067257,0.558102242769808
17600.0000000244,37.9813255431018,1.00000000074189,0.55062227132528
17700.0000000229,37.9053423748387,1.00000000077454,0.544336942597411
17800.0000000215,37.8303358668351,1.00000000088808,0.545537914970541
17900.00000002,37.7540854652391,1.00000000087584,0.551480309025151
18000.0000000186,37.6744271932271,1.00000000084235,0.55440462109218
18100.0000000171,37.5909948992603,1.00000000087347,0.557773270559955
18200.0000000156,37.5098400867034,1.00000000080729,0.557484030495374
18300.0000000142,37.4384237673087,1.00000000067228,0.550423826503688
18400.0000000127,37.3828638051448,1.00000000068647,0.545238217647343
18500.0000000113,37.344570970435,1.00000000065541,0.534930229493313
18600.0000000098,37.3204598414997,1.00000000073874,0.527640343899831
18700.0000000084,37.306889775635,1.00000000078962,0.52260060683274
18800.0000000069,37.2965940996778,1.00000000082336,0.524679041799799
18900.0000000055,37.2889043515575,1.00000000080287,0.530659611594504
19000.000000004,37.2875949442426,1.00000000076976,0.525980506333041
19100.0000000026,37.2934451917203,1.00000000075468,0.517165292481294
19200.0000000011,37.3037294398153,1.00000000080287,0.519071104767867
19299.9999999996,37.317271920823,1.00000000078161,0.519496794804895
19399.9999999982,37.3344102699453,1.00000000077597,0.516733083239852
19499.9999999967,37.3554812443706,1.00000000079899,0.521063199774425
19599.9999999953,37.3754817764244,1.00000000080792,0.537118086857297
19699.9999999938,37.3899270674101,1.00000000087713,0.555108375172677
19799.9999999924,37.3985283536467,1.00000000081129,0.557393064883739
19899.9999999909,37.403504322045,1.00000000082159,0.56105299614983
19999.9999999895,37.4078977316755,1.00000000079926,0.561740003190143
20099.999999988,37.413155151622,1.00000000075804,0.559385908115728
20199.9999999865,37.4164735528729,1.00000000083146,0.565868277765548
20299.9999999851,37.4141603558828,1.00000000085029,0.573595733148819
20399.9999999836,37.4063486151285,1.00000000082056,0.58381315238995
20499.9999999822,37.3953991829752,1.00000000078323,0.588057400878646
20599.9999999807,37.380143595191,1.00000000084796,0.586495981282604
20699.9999999793,37.3577726875014,1.00000000089514,0.583394376878328
20799.9999999778,37.3286371437658,1.00000000082236,0.583087945208581
20899.9999999764,37.2947638943113,1.00000000081864,0.579679699734201
20999.9999999749,37.2551635690585,1.00000000087965,0.573921656338992
21099.9999999734,37.2074428321224,1.00000000087702,0.565606629123091
21199.999999972,37.1504427419211,1.00000000088002,0.564031259501883
21299.9999999705,37.0836899950061,1.00000000090191,0.579051437416804
21399.9999999691,37.0098832084019,1.00000000088259,0.582833807748207
21499.9999999676,36.9311996299976,1.00000000083777,0.583145806409525
21599.9999999662,36.8516754321365,1.00000000080385,0.582375098266261
21699.9999999647,36.7745441069351,1.00000000073936,0.580289445527643
21799.9999999633,36.7023023600845,1.00000000071065,0.576077960090757
21899.9999999618,36.6362292313718,1.00000000072039,0.57349715970259
21999.9999999603,36.5745915849776,1.00000000073837,0.567728665471035
22099.9999999589,36.516201295956,1.00000000081313,0.565646656606938
22199.9999999574,36.4601757457511,1.00000000086743,0.568007161491619
22299.999999956,36.4055282178612,1.00000000085706,0.563708204916362
22399.9999999545,36.3512297109529,1.00000000091238,0.558771471222599
22499.9999999531,36.2959479484249,1.00000000087175,0.551173601797852
22599.9999999516,36.2397373816744,1.0000000009394,0.551085952428857
22699.9999999502,36.1837243098005,1.00000000087449,0.552196056221997
22799.9999999487,36.1322657894726,1.00000000073339,0.55319238991238
22899.9999999473,36.0903545147584,1.00000000071721,0.552483774382295
22999.9999999458,36.061969218952,1.00000000072457,0.553548606555293
23099.9999999443,36.0469721261219,1.00000000077476,0.548930932089273
23199.9999999429,36.0428174259989,1.0000000007945,0.547570574314282
23299.9999999414,36.0491169216113,1.00000000078973,0.544724044266106
23399.99999994,36.06225700306,1.00000000080234,0.539115501160753
23499.9999999385,36.0783757661719,1.00000000084422,0.536524788393394
23599.9999999371,36.0975827207614,1.00000000080937,0.53339135448929
23699.9999999356,36.1219008443516,1.00000000075138,0.530204018647394
23799.9999999342,36.1533358268893,1.00000000076199,0.530816242397767
23899.9999999327,36.1893513392722,1.00000000082364,0.533582257325426
23999.9999999312,36.2288683830542,1.00000000078619,0.533699691585685
24099.9999999298,36.2723963107299,1.00000000078077,0.530809744309332
24199.9999999283,36.3196081617943,1.00000000075214,0.531209108149889
24299.9999999269,36.3696816183357,1.00000000081215,0.536761147539069
24399.9999999254,36.4183612133942,1.00000000087233,0.543775321324336
24499.999999924,36.4617415932301,1.00000000085807,0.557018692405955
24599.9999999225,36.5005414996598,1.00000000085803,0.5684362517925
24699.9999999211,36.537690700674,1.00000000081962,0.574228889437497
24799.9999999196,36.5726439615205,1.00000000081078,0.575657122471903
24899.9999999181,36.604364904736,1.00000000079385,0.582733139682239
24999.9999999167,36.6331452750357,1.00000000082181,0.590578245075856
25099.9999999152,36.6598016845083,1.0000000008454,0.588223424291856
25199.9999999138,36.6836787272509,1.00000000084214,0.59071484005473
25299.9999999123,36.7054665530972,1.0000000008518,0.597864689284619
25399.9999999109,36.7246235049558,1.00000000087634,0.603543455401468
25499.9999999094,36.7410936885951,1.00000000085719,0.600646728009935
25599.999999908,36.7567772578051,1.00000000083936,0.596953514825169
25699.9999999065,36.7715033879907,1.00000000085698,0.597706299775793
25799.9999999051,36.781362829084,1.00000000085044,0.59544788752254
25899.9999999036,36.7865354579645,1.00000000085464,0.605325794492709
25999.9999999021,36.7872767720277,1.00000000085049,0.614156569761327
26099.9999999007,36.7842082353686,1.00000000081042,0.608550054158669
26199.9999998992,36.7788486352666,1.00000000082143,0.606725004090446
26299.9999998978,36.7690970375858,1.00000000085234,0.608081018608908
26399.9999998963,36.7560653258921,1.00000000082633,0.608789580915828
26499.9999998949,36.7427134361517,1.00000000081548,0.603715521180621
26599.9999998934,36.7289888346797,1.00000000086429,0.594602422284193
26699.999999892,36.7128228856437,1.00000000080543,0.590082135274782
26799.9999998905,36.692903668477,1.00000000085495,0.583851204005374
26899.999999889,36.6681464320662,1.00000000088987,0.594606911573005
26999.9999998876,36.636926929247,1.00000000086585,0.601365997453641
27099.9999998861,36.6002858540308,1.00000000089279,0.601461269775872
27199.9999998847,36.5617004253248,1.00000000083078,0.605727979175388
27299.9999998832,36.5230155995501,1.00000000081212,0.607935147443446
27399.9999998818,36.4857890487009,1.00000000076253,0.604448998234133
27499.9999998803,36.4498507301192,1.00000000084358,0.610106737378542
27599.9999998789,36.4126794112921,1.00000000084972,0.613901301674124
27699.9999998774,36.3733616331248,1.0000000008652,0.609482666820952
27799.9999998759,36.3324287867629,1.00000000081519,0.602850715802621
27899.9999998745,36.2876826643692,1.00000000084799,0.60659766084448
27999.999999873,36.2385370664778,1.00000000087631,0.608595950390275
28099.9999998716,36.1851439934132,1.00000000085627,0.606407366063789
28199.9999998701,36.1285224286945,1.0000000009609,0.609757807119474
28299.9999998687,36.068280673595,1.00000000091948,0.608854586631123
28399.9999998672,36.0036932120104,1.00000000091634,0.609028462452398
28499.9999998658,35.9355232474758,1.00000000088032,0.614024374512363
28599.9999998643,35.8646870367305,1.00000000088632,0.619457642132368
28699.9999998629,35.7920858494797,1.0000000009065,0.623237456315565
28799.9999998614,35.7180408204632,1.00000000079841,0.627008214675108
28899.9999998599,35.6435888775819,1.00000000082232,0.62644659945264
28999.9999998585,35.570595408691,1.00000000078033,0.620860337217973
