Time,AGPnorm,Energy,Entropy
0,0,1,2.37587465699604e-18
99.9999999999986,0.00466417951149259,0.999999999999829,0.0148691674069169
199.999999999993,0.0133608158862063,1.00000000000091,0.0437603250995923
300,0.0276195012243811,0.999999999999254,0.0854691667077487
400.000000000022,0.0422441322377593,1.00000000000313,0.140514171660959
500.000000000045,0.0575327845728276,1.00000000003259,0.216291281638806
600.000000000068,0.0866977253899484,1.00000000029921,0.317506665823259
700.000000000091,0.200678724994253,1.00000000078526,0.417286427164425
800.000000000113,0.696979929945181,1.00000000134652,0.489133368810282
900.000000000136,1.87068927216537,1.00000000179104,0.532824476307677
1000.00000000016,3.85960042125388,1.00000000183903,0.556681812752978
1100.0000000001,6.63780645204415,1.00000000209425,0.567331799603552
1200,9.91876448456734,1.00000000194794,0.569747096158165
1299.99999999991,13.4659956495317,1.00000000191086,0.567641555364257
1399.99999999982,16.964163248186,1.00000000177165,0.561651558929736
1499.99999999973,20.2003172328063,1.00000000170891,0.552258755981705
1599.99999999964,23.017216455481,1.00000000163464,0.546882299884471
1699.99999999955,25.3173972376148,1.00000000149489,0.53571509292662
1799.99999999946,27.1018185566153,1.00000000131807,0.539799480995501
1899.99999999937,28.337863997186,1.00000000114164,0.512016615615991
1999.99999999928,29.1094720429765,1.00000000123454,0.545349202922015
2099.99999999919,29.4534099721429,1.00000000092556,0.483369934761245
2199.99999999909,29.4038634764132,1.00000000127784,0.544572072595131
2299.999999999,29.216557862291,1.00000000108943,0.512533337215995
2399.99999999891,28.6977491645544,1.0000000007563,0.444155018370475
2499.99999999882,28.1012116078138,1.0000000015159,0.578511447027913
2599.99999999873,27.5431232889714,1.00000000110857,0.486213893099021
2699.99999999864,26.8017583071539,1.00000000058643,0.372301645931225
2799.99999999855,26.0091460310608,1.0000000015563,0.544590697443767
2899.99999999846,25.3355359095035,1.00000000163111,0.567364364161876
2999.99999999837,24.6886385725303,1.00000000081814,0.409646301262093
3099.99999999828,23.9705192188101,1.00000000064025,0.34881843915722
3199.99999999819,23.2488541844481,1.00000000131161,0.506750134166176
3299.99999999809,22.5762308106484,1.00000000160042,0.54613748225176
3399.999999998,21.9826692660777,1.00000000152631,0.557572184070438
3499.99999999791,21.4085240750147,1.00000000075095,0.403074888385269
3599.99999999782,20.8589536840719,1.00000000062142,0.332333498164844
3699.99999999773,20.350467385901,1.00000000119586,0.453375696648491
3799.99999999764,19.8426954246144,1.00000000135024,0.534971539917626
3899.99999999755,19.3490592020575,1.00000000122764,0.500391218843457
3999.99999999746,18.868745779322,1.00000000162878,0.557892749336959
4099.99999999738,18.4177546477221,1.00000000143853,0.552264989782884
4199.99999999775,18.0041326223144,1.00000000062893,0.410307975646446
4299.99999999811,17.6814553994685,1.000000000615,0.328586665014086
4399.99999999848,17.4466004463633,1.00000000108966,0.413641899557222
4499.99999999884,17.2130424858365,1.00000000147744,0.5039886308943
4599.9999999992,16.9360539473837,1.00000000143906,0.547719640247383
4699.99999999957,16.6490765447401,1.00000000101474,0.526151859479165
4799.99999999993,16.38049753435,1.00000000106152,0.503860802856773
4900.00000000029,16.0957941402904,1.00000000139916,0.520725077128931
5000.00000000066,15.7899970025292,1.00000000169559,0.560700315369139
5100.00000000102,15.4860632700388,1.00000000137045,0.575422307392732
5200.00000000139,15.2082658439515,1.00000000090139,0.483283421759736
5300.00000000175,15.0150209746699,1.00000000055638,0.371797046740049
5400.00000000211,14.9594376186894,1.0000000006423,0.352190886479639
5500.00000000248,15.0012607785905,1.00000000108315,0.411599956521468
5600.00000000284,15.0298930676057,1.00000000138487,0.496958106480445
5700.00000000321,15.0060581810801,1.00000000126665,0.541510108917876
5800.00000000357,14.9588648906848,1.00000000116733,0.5322016853079
5900.00000000393,14.8828614652282,1.0000000013296,0.546074268385305
6000.0000000043,14.7677873646105,1.00000000128236,0.552793851025124
6100.00000000466,14.6376842095732,1.00000000118699,0.535608498526063
6200.00000000502,14.507126494018,1.00000000115375,0.546157869503665
6300.00000000539,14.3787333799554,1.00000000101851,0.541966921784609
6400.00000000575,14.2472296990513,1.00000000110027,0.543500430788597
6500.00000000612,14.0957165051468,1.00000000138998,0.555459389608084
6600.00000000648,13.9206036203012,1.00000000153482,0.557165391092192
6700.00000000684,13.7287411217765,1.00000000166162,0.578863328081788
6800.00000000721,13.5342656701344,1.00000000147762,0.581031112636646
6900.00000000757,13.3509349462778,1.00000000104836,0.524256514925649
7000.00000000793,13.2185104602064,1.00000000066618,0.437264501746244
7100.0000000083,13.1991055609051,1.00000000059547,0.373034297027845
7200.00000000866,13.3239581189124,1.00000000077667,0.372982106367934
7300.00000000903,13.5602430814973,1.00000000103726,0.404747205497951
7400.00000000939,13.8157318735721,1.00000000135535,0.465876863458883
7500.00000000975,14.0347082273147,1.00000000130771,0.510798349830125
7600.00000001012,14.1999796516384,1.00000000132873,0.545437872760131
7700.00000001048,14.3230423747019,1.00000000119656,0.55075130448977
7800.00000001084,14.4122659642368,1.00000000120458,0.565439702836044
7900.00000001121,14.4630594660497,1.00000000128673,0.584877505689644
8000.00000001157,14.4735810435498,1.00000000122307,0.582541112086286
8100.00000001194,14.4573962447302,1.0000000011993,0.570374262825714
8200.0000000123,14.424129919174,1.00000000120352,0.559574842000136
8300.00000001266,14.3811360433132,1.0000000013461,0.558369413380602
8400.00000001303,14.3238975481767,1.00000000123112,0.548132003871364
8500.00000001339,14.2638157093754,1.0000000011714,0.54902968824982
8600.00000001376,14.2086505743377,1.00000000117193,0.552831364638888
8700.00000001412,14.1562162435633,1.00000000114916,0.551865237096097
8800.00000001448,14.0981759472334,1.00000000116724,0.557715416277029
8900.00000001485,14.0406584046119,1.00000000114883,0.560648645033468
9000.00000001521,13.9804212148649,1.00000000131091,0.56034055340416
9100.00000001557,13.9131857869956,1.00000000131455,0.557563839353239
9200.00000001594,13.833500435542,1.00000000130517,0.566102998747749
9300.0000000163,13.743502464273,1.00000000129457,0.591787858190234
9400.00000001667,13.647223196872,1.0000000010517,0.592703554694531
9500.00000001703,13.5526875451304,1.00000000105591,0.583661339013618
9600.00000001739,13.4553769311852,1.00000000120852,0.587597958556882
9700.00000001776,13.3501829646733,1.00000000125254,0.58844983025728
9800.00000001812,13.2361626678442,1.00000000142822,0.591588950913453
9900.00000001848,13.1172909308198,1.00000000153116,0.598636445438257
10000.0000000188,13.0002604454622,1.00000000158755,0.592208591455022
10100.0000000192,12.8879595313544,1.00000000177372,0.593561191026475
10200.0000000196,12.7760001713003,1.00000000137255,0.585730391966006
10300.0000000199,12.6580171175853,1.00000000127095,0.560505498209908
10400.0000000203,12.5406200538599,1.00000000083903,0.502322998554227
10500.0000000207,12.4532198148334,1.00000000067667,0.45142492596955
10600.000000021,12.4395082753469,1.00000000058595,0.400874983327981
10700.0000000214,12.5398156825494,1.00000000072042,0.379321648601484
10800.0000000218,12.7711748627477,1.00000000061872,0.38215976175845
10900.0000000221,13.1117377825644,1.00000000100599,0.405982647306761
11000.0000000225,13.5088248721056,1.00000000111698,0.437029214125445
11100.0000000229,13.9160152674802,1.00000000129094,0.467673250436814
11200.0000000232,14.287520728795,1.00000000143357,0.4992073006438
11300.0000000236,14.6257495538613,1.00000000133947,0.519180881277749
11400.0000000239,14.9209631641463,1.00000000139622,0.549822872807912
11500.0000000243,15.1769212662377,1.00000000128124,0.562215587220556
11600.0000000247,15.3967877028828,1.00000000126497,0.564890965937514
11700.000000025,15.5811405220627,1.00000000137651,0.579586288383657
11800.0000000254,15.732280840208,1.00000000115016,0.59565997465451
11900.0000000258,15.8538610428899,1.00000000135028,0.603036638406776
12000.0000000261,15.9420444226733,1.00000000138135,0.602937561479285
12100.0000000265,15.9977866779395,1.00000000127926,0.608666763985659
12200.0000000269,16.0335766408126,1.00000000133394,0.612602690043222
12300.0000000272,16.0502982942524,1.00000000136104,0.611870445151574
12400.0000000276,16.0554649201303,1.00000000119002,0.59107329561213
12500.0000000279,16.051948544796,1.0000000013158,0.593127265713973
12600.0000000283,16.0290698331073,1.00000000140382,0.593804049601286
12700.0000000287,15.999285805793,1.00000000116456,0.581272710089219
12800.000000029,15.9641208353247,1.00000000130792,0.592007232483445
12900.0000000294,15.9138371843978,1.00000000136984,0.597898791956785
13000.0000000298,15.8551449616097,1.00000000124899,0.602087410791017
13100.0000000301,15.7910144889928,1.00000000124862,0.601850605179077
13200.0000000305,15.7214842331156,1.00000000128259,0.609435857375547
13300.0000000309,15.6457937435493,1.00000000128791,0.612436484275059
13400.0000000312,15.5695571238457,1.00000000118153,0.60176753931044
13500.0000000316,15.4972517306301,1.00000000118711,0.586633951265112
13600.0000000319,15.4322303339646,1.00000000117167,0.568136390259948
13700.0000000323,15.3731124403748,1.00000000119958,0.571475162400524
13800.0000000327,15.3142803416842,1.00000000133229,0.586871135983409
13900.000000033,15.2572417777762,1.00000000123532,0.586396830090002
14000.0000000334,15.2008963268701,1.00000000126705,0.588172514623894
14100.0000000338,15.1450266785727,1.00000000126511,0.592833638676974
14200.0000000341,15.0937242824609,1.00000000115601,0.590541463327435
14300.0000000345,15.0493982110457,1.00000000127981,0.587457815001707
14400.0000000349,15.0011111931329,1.00000000142644,0.584596815111426
14500.0000000352,14.9531592967873,1.00000000117558,0.586174268037555
14600.0000000356,14.9118962623362,1.0000000011044,0.57146055945272
14700.0000000359,14.874427782253,1.00000000125094,0.557331965141858
14800.0000000363,14.8338460331456,1.00000000136263,0.555786973200832
14900.0000000367,14.7947145383548,1.00000000129813,0.563783305918416
15000.000000037,14.7597196558712,1.0000000011476,0.570515013546909
15100.0000000374,14.7232556284595,1.00000000136489,0.59915849111593
15200.0000000378,14.6849468344046,1.00000000122151,0.611636779367585
15300.0000000381,14.6483006705204,1.00000000129374,0.602896256864945
15400.0000000385,14.6089832055108,1.00000000135793,0.582999334496343
15500.0000000389,14.5668822391058,1.00000000135242,0.58478142778174
15600.0000000392,14.5290734730786,1.00000000113035,0.587511090651872
15700.0000000396,14.49341899024,1.00000000126984,0.599456614390441
15800.0000000399,14.4517505449194,1.00000000134543,0.614438816712124
15900.0000000403,14.4080870122651,1.00000000119657,0.616272701295523
16000.0000000407,14.3644796061734,1.00000000118422,0.625234602969728
16100.000000041,14.3174291368984,1.00000000137192,0.633366092562594
16200.0000000414,14.2657537170156,1.00000000117771,0.622118474847137
16300.0000000418,14.2090688732398,1.00000000143989,0.612086094286035
16400.0000000418,14.1485834715357,1.00000000128356,0.609042876604413
16500.0000000404,14.0892084127568,1.00000000112004,0.618170980112861
16600.0000000389,14.0381051001908,1.00000000106099,0.608556833071552
16700.0000000375,13.9901671814258,1.00000000136951,0.616332448262923
16800.000000036,13.9370506631682,1.0000000014187,0.616169488217448
16900.0000000346,13.8796630732512,1.00000000124908,0.613154689319143
17000.0000000331,13.8241482576982,1.00000000116093,0.61319894670119
17100.0000000317,13.7681655872784,1.00000000145589,0.625575877101483
17200.0000000302,13.7075593926216,1.00000000125451,0.621931267088642
17300.0000000287,13.6483668548641,1.000000001088,0.610015282606547
17400.0000000273,13.5918860447948,1.00000000121383,0.61349201682387
17500.0000000258,13.5349060349321,1.00000000130343,0.6062427885116
17600.0000000244,13.4770533730013,1.00000000117591,0.622497934432908
17700.0000000229,13.4170202558887,1.00000000141015,0.623725318326758
17800.0000000215,13.3545716669184,1.00000000139362,0.622719791931078
17900.00000002,13.2903856234035,1.00000000131967,0.610582074435001
18000.0000000186,13.2241286963154,1.0000000014198,0.626761061521188
18100.0000000171,13.1556879563734,1.00000000133773,0.629417542903699
18200.0000000156,13.0874787708183,1.00000000120778,0.622202597148135
18300.0000000142,13.0204331316024,1.0000000013262,0.629753279125274
18400.0000000127,12.9517742267508,1.00000000154674,0.638467410266962
18500.0000000113,12.8826709072433,1.00000000133314,0.630027467921756
18600.0000000098,12.8141388311067,1.00000000119471,0.637406609452957
18700.0000000084,12.7463215926076,1.00000000116993,0.621654923330629
18800.0000000069,12.6791131009347,1.00000000119647,0.639289024855441
18900.0000000055,12.612757994986,1.00000000127513,0.639801843948285
19000.000000004,12.5472746876226,1.0000000011454,0.627636828878461
19100.0000000026,12.4827939981047,1.00000000120738,0.625550255252313
19200.0000000011,12.4202648184012,1.00000000118376,0.636781841024304
19299.9999999996,12.3609686819256,1.00000000124143,0.63505741898926
19399.9999999982,12.3069060176566,1.00000000144264,0.630374727232828
19499.9999999967,12.2601580985921,1.00000000138124,0.637300821004913
19599.9999999953,12.225560643181,1.0000000015072,0.638159638499258
19699.9999999938,12.2026803032448,1.00000000158955,0.634200943176213
19799.9999999924,12.2016667858991,1.00000000170246,0.637249265472941
19899.9999999909,12.2152971411152,1.00000000164607,0.629455405906536
19999.9999999895,12.2603344847625,1.00000000171926,0.635820747416764
20099.999999988,12.3165929067082,1.00000000171662,0.634658958717569
20199.9999999865,12.4016138276712,1.00000000159637,0.631902278923945
20299.9999999851,12.4870441246637,1.00000000164541,0.627602035805455
20399.9999999836,12.5830587868534,1.00000000151697,0.615147700498823
20499.9999999822,12.6581942112502,1.0000000013364,0.604886935337974
20599.9999999807,12.7098299851067,1.00000000132692,0.590582154787924
20699.9999999793,12.725620517509,1.00000000098417,0.561563381642974
20799.9999999778,12.7062964535788,1.00000000087035,0.53170570837404
20899.9999999764,12.6642221287967,1.0000000008463,0.503527709349997
20999.9999999749,12.6138853680391,1.00000000079607,0.473142243577648
21099.9999999734,12.5780261078144,1.00000000072253,0.444444319525111
21199.999999972,12.5838689988002,1.0000000006668,0.421297741666215
21299.9999999705,12.6568577926475,1.00000000066051,0.405873496033257
21399.9999999691,12.8156135637305,1.00000000068217,0.396443312133256
21499.9999999676,13.0868282526129,1.00000000078181,0.396065833997899
21599.9999999662,13.4481476208193,1.00000000086883,0.401044772170074
21699.9999999647,13.9296632741347,1.00000000089847,0.412183055496545
21799.9999999633,14.4652927194065,1.00000000110813,0.423954079427978
21899.9999999618,15.0819693685683,1.00000000112844,0.439837463045266
21999.9999999603,15.7103927161686,1.00000000129992,0.447300205247967
22099.9999999589,16.3622899893888,1.00000000127846,0.462633983203434
22199.9999999574,17.0070805518293,1.00000000142609,0.473195710935196
22299.999999956,17.6223675728027,1.00000000144032,0.489852248190606
22399.9999999545,18.229720404479,1.00000000145531,0.497337554646979
22499.9999999531,18.7868400149488,1.00000000135172,0.513589620307504
22599.9999999516,19.3373713478476,1.00000000134455,0.524628754674062
22699.9999999502,19.8440537136977,1.00000000155284,0.534455473509033
22799.9999999487,20.3270091632901,1.00000000144512,0.539927704857437
22899.9999999473,20.7818133950886,1.00000000142245,0.552779290069564
22999.9999999458,21.2084505869928,1.00000000151946,0.560454419975517
23099.9999999443,21.613125547447,1.00000000137599,0.569740541651372
23199.9999999429,21.979148681367,1.0000000013785,0.583855735754766
23299.9999999414,22.3399461961526,1.00000000146868,0.595369624074266
23399.99999994,22.6656992419213,1.00000000144745,0.593188412645845
23499.9999999385,22.9685000462285,1.00000000134443,0.601920932357248
23599.9999999371,23.2383382843529,1.00000000150085,0.620940793837748
23699.9999999356,23.484755167113,1.00000000146231,0.620011072685781
23799.9999999342,23.7070868039778,1.00000000157855,0.622589922367934
23899.9999999327,23.8982288459861,1.00000000137034,0.621111880870475
23999.9999999312,24.0733209718112,1.00000000143733,0.634429004559331
24099.9999999298,24.2201690905086,1.00000000152301,0.636712033328357
24199.9999999283,24.3527559863092,1.00000000143352,0.631437785553856
24299.9999999269,24.4565880654705,1.00000000150047,0.629731055956749
24399.9999999254,24.5449162708841,1.0000000016464,0.633394164821196
24499.999999924,24.6162179736417,1.00000000149424,0.648854964106318
24599.9999999225,24.6693406925896,1.00000000135928,0.648342645778577
24699.9999999211,24.7142855911048,1.00000000132227,0.644198707855772
24799.9999999196,24.7500615342323,1.00000000139554,0.633043641979957
24899.9999999181,24.7834910754144,1.00000000142492,0.642430368526202
24999.9999999167,24.8048437707696,1.00000000138235,0.631292297702697
25099.9999999152,24.8135000466384,1.00000000154822,0.644814693510981
25199.9999999138,24.8015794505511,1.00000000162616,0.653588361306386
25299.9999999123,24.7845476147533,1.00000000126051,0.637635913063407
25399.9999999109,24.7718484325866,1.00000000113107,0.632001277456931
25499.9999999094,24.7611152358617,1.00000000123504,0.622884650610863
25599.999999908,24.749420787468,1.00000000147618,0.617114899609561
25699.9999999065,24.7291399296105,1.00000000144372,0.613032009481174
25799.9999999051,24.7022500489696,1.00000000153367,0.62857866079291
25899.9999999036,24.6645868897699,1.00000000144473,0.62873967566597
25999.9999999021,24.6246974407351,1.00000000171674,0.622657514834952
26099.9999999007,24.5847701458453,1.00000000121161,0.621140789307931
26199.9999998992,24.5469271314276,1.00000000134412,0.606489824292012
26299.9999998978,24.5097037985645,1.00000000147796,0.621100319400775
26399.9999998963,24.4661393815627,1.00000000154883,0.620815592181459
26499.9999998949,24.4150276748889,1.00000000151893,0.621061519818174
26599.9999998934,24.35837672229,1.00000000128984,0.612102219028878
26699.999999892,24.3048024858143,1.00000000121544,0.604756260557367
26799.9999998905,24.2547465322196,1.00000000133741,0.62766308507085
26899.999999889,24.2022311289188,1.00000000148732,0.635440912370034
26999.9999998876,24.1425279841848,1.00000000165453,0.629559887952354
27099.9999998861,24.0786763488923,1.00000000140473,0.626984922347665
27199.9999998847,24.0145854990423,1.00000000148879,0.625781369026973
27299.9999998832,23.9512566613246,1.0000000013177,0.621476075436276
27399.9999998818,23.8903399877545,1.00000000135286,0.620930666597583
27499.9999998803,23.830989765987,1.00000000147304,0.619890655972443
27599.9999998789,23.7779842849526,1.00000000101991,0.589458301466462
27699.9999998774,23.7340318825135,1.00000000117867,0.608622396706276
27799.9999998759,23.6903524449895,1.00000000143749,0.628727830053637
27899.9999998745,23.6434196345829,1.00000000154263,0.635625547887732
27999.999999873,23.5899243864269,1.00000000156807,0.619302115584793
28099.9999998716,23.5360168094571,1.00000000134091,0.598866888938545
28199.9999998701,23.4861799105516,1.0000000012564,0.605552606483265
28299.9999998687,23.4352987172054,1.00000000176883,0.639723535066661
28399.9999998672,23.3780212333958,1.00000000154498,0.627345144315512
28499.9999998658,23.3181980973587,1.00000000134441,0.6129758168302
28599.9999998643,23.2604708269585,1.00000000136158,0.615453206126471
28699.9999998629,23.2054063748328,1.00000000135847,0.627814103591735
28799.9999998614,23.1522600401501,1.00000000155831,0.629200809257112
28899.9999998599,23.097541259831,1.00000000142837,0.637393365293156
28999.9999998585,23.0395895308043,1.00000000146893,0.631226758709046
