Time,AGPnorm,Energy,Entropy
0,0,1,-7.3198295612172e-17
99.9999999999986,0.00102621762839553,1.00000000000168,0.00333766298068256
199.999999999993,0.00654297267930896,1.00000000000103,0.00994162031237473
300,0.0137864426029471,0.999999999999362,0.0183059868495777
400.000000000022,0.0209087897504669,0.999999999999472,0.0286450714885234
500.000000000045,0.0293774655256442,1.00000000000085,0.0413081315436881
600.000000000068,0.0406062520063797,1.00000000000131,0.0560333283752017
700.000000000091,0.0524355626491446,1.00000000000017,0.0722773051339728
800.000000000113,0.0644716520261091,0.999999999999565,0.0902349198655158
900.000000000136,0.0774408501469921,1.00000000000023,0.1107314970318
1000.00000000016,0.091219394659656,1.00000000000119,0.134447673687344
1100.0000000001,0.104869510019082,1.00000000000258,0.162094763975716
1200,0.119022459178693,1.00000000001186,0.194913671127714
1299.99999999991,0.13312560504141,1.00000000005529,0.23418999094962
1399.99999999982,0.145202260609501,1.00000000015333,0.278175492863228
1499.99999999973,0.173252400561099,1.00000000030636,0.322234099701553
1599.99999999964,0.266333560429701,1.00000000048208,0.362730113574306
1699.99999999955,0.459434559839711,1.00000000066879,0.398380981497781
1799.99999999946,0.800349582624089,1.00000000079859,0.429766834503474
1899.99999999937,1.38837981873808,1.00000000103464,0.456784819497535
1999.99999999928,2.32782970728299,1.00000000115373,0.479747603635419
2099.99999999919,3.66073256351865,1.0000000012911,0.499281416660068
2199.99999999909,5.39795781688278,1.00000000134775,0.515691033506918
2299.999999999,7.56691842522363,1.00000000131342,0.529673715677864
2399.99999999891,10.180805037649,1.00000000136134,0.540772555254327
2499.99999999882,13.2060343145027,1.00000000140829,0.549966964196262
2599.99999999873,16.5889321633333,1.0000000014294,0.557141789516563
2699.99999999864,20.2747369470386,1.00000000142728,0.562956312881047
2799.99999999855,24.2071495145072,1.00000000141027,0.567031348563853
2899.99999999846,28.314786147769,1.00000000132668,0.570419852077729
2999.99999999837,32.5352315882982,1.000000001335,0.572152855214993
3099.99999999828,36.8067678332651,1.00000000134057,0.573025058935305
3199.99999999819,41.0647764026683,1.00000000127476,0.573453451498593
3299.99999999809,45.2495221191719,1.00000000122717,0.573713426370184
3399.999999998,49.313784488784,1.00000000122521,0.572167853398387
3499.99999999791,53.2274504848445,1.00000000117559,0.571619098697358
3599.99999999782,56.9477650807688,1.00000000115542,0.571362617604411
3699.99999999773,60.4389066750608,1.00000000113267,0.568401550832737
3799.99999999764,63.6822719601158,1.00000000107421,0.565864723218679
3899.99999999755,66.661070116842,1.00000000107233,0.566936007634675
3999.99999999746,69.3665564592146,1.00000000104788,0.563456266594153
4099.99999999738,71.7948293606174,1.00000000095987,0.560828627830882
4199.99999999775,73.9348011134051,1.00000000098671,0.560356425095904
4299.99999999811,75.7867870571397,1.00000000095682,0.557635092458549
4399.99999999848,77.3699528377081,1.00000000095943,0.557803127011294
4499.99999999884,78.6850643949815,1.00000000089629,0.551501101559848
4599.9999999992,79.7411805591805,1.00000000084338,0.557441081072229
4699.99999999957,80.5600355493969,1.00000000082552,0.552476671797956
4799.99999999993,81.1346891434046,1.00000000075349,0.544560835689
4900.00000000029,81.5066374260374,1.00000000084857,0.562167650765257
5000.00000000066,81.7059965316361,1.00000000073244,0.541576660915796
5100.00000000102,81.6974129757683,1.00000000066832,0.534998726118643
5200.00000000139,81.5434324528515,1.00000000086293,0.568364304299215
5300.00000000175,81.2949134839382,1.00000000074977,0.541531248857863
5400.00000000211,80.8808333280268,1.00000000061022,0.51452576755294
5500.00000000248,80.3535673016171,1.00000000089967,0.565564857693245
5600.00000000284,79.807103638061,1.0000000009395,0.561118369384305
5700.00000000321,79.1737863972588,1.00000000056991,0.499911520890397
5800.00000000357,78.4129317747825,1.00000000068509,0.519875068117854
5900.00000000393,77.6389883886252,1.00000000109471,0.577376506629769
6000.0000000043,76.8907733961292,1.00000000086949,0.546315836403435
6100.00000000466,76.0801782808519,1.00000000049013,0.470092741592864
6200.00000000502,75.180674682471,1.00000000067937,0.50052644312921
6300.00000000539,74.2884764250878,1.00000000107346,0.571643297108177
6400.00000000575,73.4502259880405,1.00000000100741,0.55791025776821
6500.00000000612,72.6057115531742,1.00000000061461,0.473899692879786
6600.00000000648,71.7006444461195,1.00000000050416,0.445306947713843
6700.00000000684,70.7708810477137,1.00000000087737,0.522306721863886
6800.00000000721,69.8810141019201,1.00000000118075,0.569709989115737
6900.00000000757,69.0401925319692,1.00000000102215,0.541250825298587
7000.00000000793,68.2027630509771,1.0000000006386,0.464177965641953
7100.0000000083,67.3373737056947,1.0000000005304,0.432180277284843
7200.00000000866,66.4585571356058,1.00000000074469,0.482451000035148
7300.00000000903,65.6012440240691,1.00000000104988,0.544091987821906
7400.00000000939,64.78298382797,1.0000000010832,0.551915997741682
7500.00000000975,63.9927012465341,1.00000000087624,0.511315943588913
7600.00000001012,63.2072129382242,1.00000000064798,0.456382200164542
7700.00000001048,62.4200217055539,1.00000000056499,0.440536690080665
7800.00000001084,61.6380569894667,1.00000000069792,0.471092420530809
7900.00000001121,60.8705293896535,1.00000000092607,0.511990351892284
8000.00000001157,60.1238380477146,1.00000000105988,0.538958979342414
8100.00000001194,59.3998728460457,1.00000000100541,0.53577248080971
8200.0000000123,58.6935562248291,1.00000000074628,0.497185743977488
8300.00000001266,58.0004910402925,1.00000000061037,0.460615006190828
8400.00000001303,57.3238885007451,1.00000000065931,0.458252737525066
8500.00000001339,56.6640761095738,1.00000000074454,0.481370741172143
8600.00000001376,56.0195770984416,1.00000000072281,0.490387275245141
8700.00000001412,55.3906641303028,1.00000000085243,0.505710563711024
8800.00000001448,54.7750191606109,1.0000000009144,0.524694845336552
8900.00000001485,54.1696316793731,1.00000000103127,0.534498023885293
9000.00000001521,53.5769500020292,1.00000000083025,0.513405425298718
9100.00000001557,53.0039882512507,1.00000000059157,0.468549986469261
9200.00000001594,52.4551447429994,1.00000000066541,0.463406788551499
9300.0000000163,51.9267706015398,1.00000000079663,0.479486181140914
9400.00000001667,51.411737801176,1.00000000091523,0.502362580067516
9500.00000001703,50.9102484683263,1.00000000074994,0.4972455717923
9600.00000001739,50.4272159964717,1.00000000065809,0.484615471960576
9700.00000001776,49.9590447345341,1.00000000081416,0.505893237631749
9800.00000001812,49.4952726038146,1.00000000099585,0.528846540822317
9900.00000001848,49.0297110295472,1.00000000097769,0.535134769365707
10000.0000000188,48.5706591621443,1.00000000078458,0.513772659972098
10100.0000000192,48.1324000341737,1.00000000062103,0.477774488089077
10200.0000000196,47.7225359341927,1.0000000006406,0.464372002502297
10300.0000000199,47.3358238015994,1.00000000075564,0.474525599750227
10400.0000000203,46.9592660373136,1.00000000092889,0.491193317056517
10500.0000000207,46.5862637968202,1.00000000099029,0.506695262759678
10600.000000021,46.2211745774508,1.00000000078612,0.510305681375677
10700.0000000214,45.8726899114268,1.00000000067015,0.49388209138533
10800.0000000218,45.540896618196,1.00000000071597,0.49893597317546
10900.0000000221,45.2153861745444,1.00000000084501,0.519220682987627
11000.0000000225,44.8883217473674,1.00000000098419,0.532007482369337
11100.0000000229,44.55558691018,1.00000000103195,0.538552227494671
11200.0000000232,44.2227336590507,1.00000000092666,0.529551818904163
11300.0000000236,43.9019121610945,1.00000000074503,0.506269662697686
11400.0000000239,43.6048670831348,1.00000000066985,0.483795476989327
11500.0000000243,43.3332277996287,1.00000000072739,0.483969111278659
11600.0000000247,43.0797512510912,1.00000000069822,0.489104313784488
11700.000000025,42.8384158376312,1.00000000080971,0.496934633989867
11800.0000000254,42.6030162943145,1.0000000008538,0.503418439177082
11900.0000000258,42.3727143179269,1.00000000084201,0.500060361832523
12000.0000000261,42.1469938196131,1.00000000086117,0.51572938992232
12100.0000000265,41.9235035677413,1.00000000087877,0.530477694835766
12200.0000000269,41.7045005996718,1.0000000007865,0.530448906953151
12300.0000000272,41.4886235090787,1.0000000007937,0.534085861999528
12400.0000000276,41.2774774980673,1.00000000075865,0.528702376475041
12500.0000000279,41.0702841132985,1.0000000008859,0.525436910458021
12600.0000000283,40.8636259753774,1.00000000091094,0.52990629051211
12700.0000000287,40.6522450991226,1.00000000099183,0.539087014386416
12800.000000029,40.4366760532514,1.00000000088408,0.539063374756851
12900.0000000294,40.2302701933786,1.00000000074527,0.523137918341956
13000.0000000298,40.045066416672,1.00000000064028,0.50448429256393
13100.0000000301,39.8848936890774,1.00000000069513,0.488456736805832
13200.0000000305,39.7416183266324,1.00000000079105,0.496645934636499
13300.0000000309,39.6037037961583,1.00000000090627,0.509559102066084
13400.0000000312,39.4683571827889,1.00000000082552,0.504090213991045
13500.0000000316,39.3411420730978,1.0000000007764,0.498785622473161
13600.0000000319,39.2256917424648,1.00000000078874,0.508814404184147
13700.0000000323,39.1215541470567,1.00000000075567,0.514040046174923
13800.0000000327,39.0233973511308,1.00000000080472,0.518369918716207
13900.000000033,38.9206234844127,1.00000000091072,0.53254520623671
14000.0000000334,38.8046168302511,1.00000000095177,0.546633430544645
14100.0000000338,38.6764433750721,1.0000000009012,0.554163980631403
14200.0000000341,38.5409373113744,1.00000000082136,0.55766481816242
14300.0000000345,38.4045345667316,1.00000000074151,0.555330108180241
14400.0000000349,38.2726752084159,1.00000000075775,0.549766346446129
14500.0000000352,38.1466822477609,1.00000000078289,0.546368211097995
14600.0000000356,38.0234314832681,1.00000000085851,0.539835225900882
14700.0000000359,37.8995440539027,1.00000000093959,0.538362870145869
14800.0000000363,37.7723123781699,1.00000000095465,0.544411033737367
14900.0000000367,37.6415495359298,1.00000000094509,0.547776807324113
15000.000000037,37.5141589743542,1.00000000084095,0.543619234636203
15100.0000000374,37.4003667243297,1.0000000007313,0.534084953833533
15200.0000000378,37.3062772527665,1.00000000069937,0.519608345326839
15300.0000000381,37.2302057983355,1.00000000072589,0.515045468616269
15400.0000000385,37.1677288060239,1.0000000007165,0.515180511987287
15500.0000000389,37.1152606153936,1.00000000077038,0.512529843117688
15600.0000000392,37.0652078502843,1.00000000089482,0.515664295314085
15700.0000000396,37.0158402758027,1.00000000082633,0.513253041757297
15800.0000000399,36.9733525120658,1.00000000075524,0.514025016282755
15900.0000000403,36.9392384938697,1.00000000077497,0.52397061333689
16000.0000000407,36.9085388314577,1.00000000086101,0.537449185169192
16100.000000041,36.8765878916106,1.00000000087734,0.553219459562434
16200.0000000414,36.8431051106449,1.00000000083497,0.557715411057456
16300.0000000418,36.8091307979081,1.00000000078197,0.559280528935635
16400.0000000418,36.7770194428199,1.00000000080979,0.559354761864003
16500.0000000404,36.7458028047464,1.00000000082511,0.553504777427738
16600.0000000389,36.7089032261247,1.00000000087225,0.558030030105226
16700.0000000375,36.6605541232349,1.00000000091197,0.565350022860729
16800.000000036,36.5995046909713,1.00000000092871,0.561310036233218
16900.0000000346,36.5248709019884,1.00000000091481,0.561166813359027
17000.0000000331,36.4384420743241,1.00000000093373,0.57667135460572
17100.0000000317,36.3456445847825,1.00000000087897,0.585181896756738
17200.0000000302,36.252888897069,1.00000000076349,0.575377474853738
17300.0000000287,36.1651164409536,1.00000000071973,0.566847013144435
17400.0000000273,36.0844114655918,1.00000000072798,0.559450336464789
17500.0000000258,36.0087978108812,1.00000000078494,0.555098572370025
17600.0000000244,35.9348657255172,1.00000000089201,0.553056225250735
17700.0000000229,35.8604588494167,1.00000000095223,0.559453275812382
17800.0000000215,35.7845188807525,1.00000000089267,0.559992043925615
17900.00000002,35.7061176893942,1.00000000085913,0.56122313779223
18000.0000000186,35.6306612919416,1.0000000008512,0.560474529254598
18100.0000000171,35.5660198221483,1.00000000075475,0.553131458686885
18200.0000000156,35.517537422036,1.00000000072856,0.547415036781731
18300.0000000142,35.4860421393096,1.00000000075617,0.53888416405795
18400.0000000127,35.4680086447531,1.00000000078216,0.529312610760988
18500.0000000113,35.4589499904214,1.00000000086871,0.531128331498108
18600.0000000098,35.4535600051656,1.00000000085466,0.530508655326353
18700.0000000084,35.4507100196306,1.00000000080088,0.532022162330534
18800.0000000069,35.4542644663357,1.00000000077677,0.5303617363864
18900.0000000055,35.4641693177947,1.00000000072763,0.526128261472745
19000.000000004,35.4768532820209,1.00000000083403,0.526922271310363
19100.0000000026,35.4916931135482,1.00000000085244,0.527229821797842
19200.0000000011,35.50911041039,1.0000000007964,0.524021658146708
19299.9999999996,35.5284290100605,1.00000000081197,0.530566260238444
19399.9999999982,35.5464753687618,1.00000000086582,0.546645193778075
19499.9999999967,35.5582798153586,1.00000000091549,0.564712906805037
19599.9999999953,35.5654536405788,1.0000000008883,0.566785842189663
19699.9999999938,35.5700830919171,1.00000000082529,0.565165617065198
19799.9999999924,35.5734268366102,1.00000000086069,0.565083833027729
19899.9999999909,35.5762120279059,1.00000000079765,0.566375941532276
19999.9999999895,35.5747170171898,1.00000000089444,0.570727590658686
20099.999999988,35.5675293309554,1.0000000009091,0.57815534891945
20199.9999999865,35.5551960182764,1.00000000082976,0.587633648425165
20299.9999999851,35.5408028643371,1.00000000082939,0.592438017271477
20399.9999999836,35.523486398778,1.00000000082044,0.589975331660774
20499.9999999822,35.4994120200305,1.00000000085431,0.587074861001637
20599.9999999807,35.4691927016961,1.00000000086204,0.586926634903358
20699.9999999793,35.4350555278005,1.00000000086682,0.583597213246802
20799.9999999778,35.3953559916131,1.00000000086693,0.575375187835027
20899.9999999764,35.3473601406744,1.00000000086575,0.566722959925978
20999.9999999749,35.2903825430593,1.0000000009046,0.572178204212432
21099.9999999734,35.2241415289797,1.00000000088896,0.581974426318788
21199.999999972,35.1515230104567,1.00000000091291,0.584699543046349
21299.9999999705,35.0749478169397,1.00000000090174,0.584782718768814
21399.9999999691,34.9982337865873,1.00000000082736,0.585728025304585
21499.9999999676,34.92375972194,1.00000000077613,0.583009176342539
21599.9999999662,34.8537194938255,1.0000000007543,0.579544920542313
21699.9999999647,34.7885001972974,1.00000000075621,0.577079064635783
21799.9999999633,34.7262904438324,1.00000000080468,0.572869882529188
21899.9999999618,34.6671183420987,1.00000000083997,0.571446349786506
21999.9999999603,34.6098616382589,1.00000000086216,0.57355526254079
22099.9999999589,34.5543421492534,1.00000000097341,0.572885402374187
22199.9999999574,34.4987084135188,1.00000000096055,0.567700799739514
22299.999999956,34.4432802093605,1.00000000087231,0.557275208909804
22399.9999999545,34.3882586480352,1.00000000088067,0.55428621400286
22499.9999999531,34.336533084332,1.00000000083787,0.554463161916521
22599.9999999516,34.2927338859708,1.00000000078805,0.558631965547704
22699.9999999502,34.2612386963575,1.00000000073215,0.557887380466487
22799.9999999487,34.2440057962414,1.00000000077211,0.554674735869889
22899.9999999473,34.2382411946877,1.0000000007581,0.549632106105184
22999.9999999458,34.2424761867235,1.00000000078173,0.549039538385438
23099.9999999443,34.2552405119722,1.00000000077098,0.54681762077553
23199.9999999429,34.2726740247442,1.00000000083586,0.543794905300993
23299.9999999414,34.2930563238488,1.0000000008459,0.538073820661775
23399.99999994,34.3170687594896,1.00000000087039,0.53819627188959
23499.9999999385,34.3464062269147,1.00000000076561,0.539412830252295
23599.9999999371,34.3816705411172,1.00000000084099,0.541129444487777
23699.9999999356,34.4197264583599,1.00000000081674,0.542115676369331
23799.9999999342,34.4601190731236,1.00000000081809,0.541602116155104
23899.9999999327,34.5027036266996,1.00000000084256,0.543736477944529
23999.9999999312,34.547088868037,1.00000000082697,0.544024025741231
24099.9999999298,34.5916225420429,1.00000000083651,0.548519967033844
24199.9999999283,34.6321998120139,1.00000000090637,0.561622337486839
24299.9999999269,34.6673832010912,1.00000000092319,0.57480374827493
24399.9999999254,34.6977817535556,1.00000000085389,0.580245754197258
24499.999999924,34.7240138624509,1.00000000083086,0.582359832345625
24599.9999999225,34.7473007928335,1.00000000086954,0.589855658897423
24699.9999999211,34.7682262769225,1.00000000086062,0.597636144138205
24799.9999999196,34.7875118834496,1.00000000083427,0.596047489790806
24899.9999999181,34.8037891615856,1.00000000083715,0.59806410162495
24999.9999999167,34.8189728254029,1.00000000087639,0.605260658353606
25099.9999999152,34.8324027813525,1.00000000088949,0.608048082828345
25199.9999999138,34.8422410837837,1.00000000091213,0.60272178265398
25299.9999999123,34.8500498162229,1.0000000008666,0.599371238076468
25399.9999999109,34.8569479262093,1.00000000087032,0.598904280657828
25499.9999999094,34.860663895417,1.00000000091783,0.598448225353685
25599.999999908,34.8601453860157,1.00000000089645,0.605035676820117
25699.9999999065,34.8557938099545,1.00000000092295,0.616972630213139
25799.9999999051,34.8478744200299,1.00000000085433,0.612877163725832
25899.9999999036,34.8382725021195,1.00000000080444,0.612498359171783
25999.9999999021,34.8260619044884,1.00000000086866,0.614991043464358
26099.9999999007,34.8103091482908,1.00000000086713,0.615815441557884
26199.9999998992,34.7934670506475,1.00000000086503,0.613934757666898
26299.9999998978,34.7762720071819,1.0000000008616,0.601363611451305
26399.9999998963,34.7570228106473,1.00000000083363,0.596834564719908
26499.9999998949,34.7353558624529,1.00000000088031,0.595707623014825
26599.9999998934,34.711225470826,1.00000000093324,0.603722410057273
26699.999999892,34.6819163238605,1.00000000092877,0.611221089058131
26799.9999998905,34.6471299868515,1.00000000089875,0.609715405669646
26899.999999889,34.6096733770812,1.00000000088323,0.612668288597617
26999.9999998876,34.5715198568222,1.00000000086921,0.61577498877792
27099.9999998861,34.5338790373897,1.00000000081381,0.614420967287297
27199.9999998847,34.4970818782299,1.00000000081652,0.619240853425756
27299.9999998832,34.4585831629473,1.00000000090484,0.620900449956031
27399.9999998818,34.4180727772834,1.00000000089451,0.617201344848021
27499.9999998803,34.3757309542465,1.00000000084324,0.608329600159208
27599.9999998789,34.3304106605766,1.00000000090169,0.61291126680016
27699.9999998774,34.2819032057399,1.00000000089056,0.612775352253173
27799.9999998759,34.2303796663352,1.00000000091044,0.612944015701106
27899.9999998745,34.1760777979537,1.00000000093259,0.615493308167695
27999.999999873,34.1183161757535,1.00000000094424,0.612931269958838
28099.9999998716,34.0564010213612,1.0000000009446,0.613081492794721
28199.9999998701,33.9907256766169,1.00000000093719,0.618638368789514
28299.9999998687,33.9216701564885,1.00000000091992,0.625111587439246
28399.9999998672,33.8504584331047,1.00000000088472,0.629928049592146
28499.9999998658,33.7778472920432,1.00000000083,0.630425276325314
28599.9999998643,33.7045872621144,1.00000000083805,0.629193291834869
28699.9999998629,33.6323460758104,1.00000000084982,0.623888037223895
28799.9999998614,33.5622360968366,1.00000000080412,0.618922840762477
28899.9999998599,33.4950576506422,1.00000000079401,0.611657192645907
28999.9999998585,33.4309927101405,1.00000000083094,0.610525009397792
