Time,AGPnorm,Energy,Entropy
0,0,1,-1.39949695385413e-17
99.9999999999986,7.52824953530735e-06,1.0000000000024,0.000377823732265226
199.999999999993,0.000615016930339331,1.0000000000024,0.00057402069345048
300,0.00160863999327736,1.00000000000002,0.00104102446753789
400.000000000022,0.00223561165332775,1.00000000000367,0.00178741014160812
500.000000000045,0.00268596971017351,1.00000000000042,0.00238077369232859
600.000000000068,0.00387948066986873,1.00000000000175,0.00340642095786063
700.000000000091,0.00484477618787954,1.00000000000296,0.00431661938705122
800.000000000113,0.0063105249779023,0.999999999999814,0.00535935080185345
900.000000000136,0.00775961012268774,1.00000000000343,0.00664910166586179
1000.00000000016,0.0089925269360975,1.00000000000098,0.00777725188765446
1100.0000000001,0.0109724320139441,1.00000000000114,0.00923369563614968
1200,0.0129545050679873,1.00000000000338,0.0106213133850012
1299.99999999991,0.0150408911307181,0.999999999999805,0.0120741207858943
1399.99999999982,0.0171459310141592,1.00000000000299,0.0137750071137065
1499.99999999973,0.0192535332990881,1.00000000000162,0.0153011134435056
1599.99999999964,0.0220193815403717,1.00000000000062,0.0171017541355485
1699.99999999955,0.0247057698478046,1.00000000000359,0.0188871115827784
1799.99999999946,0.0273644862250205,0.999999999999985,0.0206736980386354
1899.99999999937,0.0302379436547667,1.00000000000245,0.0227146840327511
1999.99999999928,0.0332440671697443,1.00000000000228,0.0245847349211884
2099.99999999919,0.0366653984561233,1.00000000000023,0.0266878049708354
2199.99999999909,0.039828283857655,1.00000000000355,0.0288294760570411
2299.999999999,0.0430277297415778,1.00000000000035,0.0309120899435655
2399.99999999891,0.0466913317660308,1.00000000000188,0.0332578711954263
2499.99999999882,0.050508761898139,1.00000000000285,0.0354601105786426
2599.99999999873,0.0544318549633196,0.999999999999984,0.0378424195715877
2699.99999999864,0.0580227199721305,1.00000000000329,0.0403167045823923
2799.99999999855,0.0617835225319734,1.0000000000009,0.0426849527577316
2899.99999999846,0.0661287995832098,1.00000000000136,0.0453293091990524
2999.99999999837,0.0705031292414418,1.00000000000323,0.0478728827439447
3099.99999999828,0.0747949859745025,0.999999999999887,0.0505262401737445
3199.99999999819,0.0788922896080058,1.0000000000029,0.0533274079577715
3299.99999999809,0.0832700150259617,1.00000000000155,0.055997110033548
3399.999999998,0.0881083626860784,1.00000000000091,0.0589531238645106
3499.99999999791,0.0927337468232676,1.00000000000339,0.0618531362861842
3599.99999999782,0.0973032953643694,0.999999999999981,0.0647950106422484
3699.99999999773,0.101960959256904,1.00000000000245,0.0679391031704388
3799.99999999764,0.106954678166274,1.0000000000022,0.0709577013165171
3899.99999999755,0.112079379948421,1.00000000000053,0.0742477981553221
3999.99999999746,0.116797134667658,1.00000000000332,0.077533423881081
4099.99999999738,0.121604116749346,1.00000000000032,0.0808076593917602
4199.99999999775,0.126778039863543,1.000000000002,0.0843434056450908
4299.99999999811,0.132205577125418,1.0000000000027,0.0877842142594161
4399.99999999848,0.137445068757147,1.00000000000022,0.0914492712294918
4499.99999999884,0.142273984497046,1.00000000000308,0.0951827578039462
4599.9999999992,0.147344620238654,1.0000000000009,0.0988690325160196
4699.99999999957,0.152892506576565,1.0000000000016,0.102883951161344
4799.99999999993,0.158417272577496,1.00000000000302,0.106848039170245
4900.00000000029,0.163666080905132,1.00000000000003,0.110978239272064
5000.00000000066,0.168685104967902,1.00000000000277,0.115278278358504
5100.00000000102,0.174072589937386,1.00000000000158,0.119533406185992
5200.00000000139,0.179798841055337,1.00000000000124,0.124171012804621
5300.00000000175,0.18514581798899,1.00000000000319,0.128821534246266
5400.00000000211,0.190359057472991,1.00000000000009,0.133609446078932
5500.00000000248,0.195645918278295,1.00000000000252,0.138701254187114
5600.00000000284,0.20126062906681,1.0000000000023,0.143808641139767
5700.00000000321,0.207013531618315,1.0000000000011,0.149330128512616
5800.00000000357,0.212100449229039,1.00000000000347,0.15498481678014
5900.00000000393,0.217299655609078,1.00000000000101,0.160771197213244
6000.0000000043,0.223011256165227,1.00000000000304,0.167043735646819
6100.00000000466,0.228509634736406,1.00000000000395,0.173400713551064
6200.00000000502,0.234462478957363,1.00000000000268,0.18017682602084
6300.00000000539,0.239557085680815,1.00000000000587,0.18718590990956
6400.00000000575,0.245000448674942,1.00000000000547,0.194281228202438
6500.00000000612,0.25220519253708,1.00000000000781,0.20192187811687
6600.00000000648,0.257795408980555,1.00000000001109,0.209580117475338
6700.00000000684,0.265846297307601,1.00000000001081,0.217491472775231
6800.00000000721,0.273953460178239,1.00000000001566,0.225567805302098
6900.00000000757,0.282782925538977,1.00000000001817,0.233550114277369
7000.00000000793,0.29806184076927,1.00000000002172,0.241861975771839
7100.0000000083,0.311276445285544,1.00000000002796,0.250038553435147
7200.00000000866,0.332884081055642,1.00000000002961,0.258138431956927
7300.00000000903,0.360902688646959,1.00000000003656,0.26635530308511
7400.00000000939,0.392824292596298,1.00000000004163,0.274289445379775
7500.00000000975,0.444062393604465,1.00000000004557,0.282334412403829
7600.00000001012,0.500062609491742,1.00000000005184,0.290173739838408
7700.00000001048,0.577861695002123,1.0000000000566,0.297702598736286
7800.00000001084,0.680154380215736,1.00000000006463,0.305403166121935
7900.00000001121,0.79789416650659,1.00000000007106,0.312749593800128
8000.00000001157,0.959979069352558,1.00000000007595,0.320073738069114
8100.00000001194,1.14746580528864,1.00000000008389,0.327211541238057
8200.0000000123,1.37984539202748,1.00000000008867,0.334022934755739
8300.00000001266,1.669709897448,1.00000000009424,0.341007055236378
8400.00000001303,1.99877083869303,1.00000000009854,0.347670884154495
8500.00000001339,2.40898811731828,1.00000000010641,0.354147967571412
8600.00000001376,2.88007867804988,1.00000000011941,0.360562125452109
8700.00000001412,3.42760126797494,1.00000000011875,0.366691899806508
8800.00000001448,4.07790780723359,1.00000000012632,0.372885589655441
8900.00000001485,4.80247002350953,1.0000000001301,0.378836725315079
9000.00000001521,5.65113974335397,1.00000000013595,0.384480677610826
9100.00000001557,6.60661364511986,1.0000000001465,0.390223688374675
9200.00000001594,7.6744898634019,1.00000000014259,0.395687450249352
9300.0000000163,8.8957145736329,1.00000000015431,0.401048702902638
9400.00000001667,10.2323542423135,1.0000000001663,0.406262235089631
9500.00000001703,11.7343250974107,1.00000000016067,0.411223817122256
9600.00000001739,13.392562484781,1.00000000016971,0.416262464182574
9700.00000001776,15.1985076568231,1.000000000172,0.421051301495523
9800.00000001812,17.205324727588,1.00000000017383,0.425656757766808
9900.00000001848,19.3679336957034,1.00000000018281,0.430247569887547
10000.0000000188,21.7290224626749,1.00000000018195,0.434541447311234
10100.0000000192,24.292196771683,1.00000000018792,0.438888822930978
10200.0000000196,27.0326404147263,1.00000000018674,0.443105771709102
10300.0000000199,30.0110408603548,1.00000000019567,0.446896530565741
10400.0000000203,33.1795445866961,1.00000000019763,0.450966611427674
10500.0000000207,36.5680322721099,1.00000000021052,0.45459819618133
10600.000000021,40.1948435855043,1.0000000002028,0.458342262624633
10700.0000000214,44.0191321137491,1.00000000020032,0.461998381578131
10800.0000000218,48.1033350456334,1.00000000021388,0.465166526878822
10900.0000000221,52.4026413775247,1.00000000021577,0.468627389803072
11000.0000000225,56.9307807719598,1.00000000022147,0.471854191266028
11100.0000000229,61.7200281193643,1.00000000021965,0.474854832881226
11200.0000000232,66.7160852767397,1.00000000022316,0.477987060888295
11300.0000000236,71.9769609054375,1.00000000022142,0.480810577081682
11400.0000000239,77.4676921153885,1.00000000022821,0.483601946311976
11500.0000000243,83.1830354908514,1.0000000002376,0.486407348997762
11600.0000000247,89.1675815686463,1.00000000022973,0.488856674339789
11700.000000025,95.3576960868322,1.00000000023113,0.491518603293665
11800.0000000254,101.801471860191,1.00000000023005,0.494034461426227
11900.0000000258,108.479491865247,1.00000000023372,0.496205654839929
12000.0000000261,115.366876668162,1.00000000023411,0.498628645420209
12100.0000000265,122.515212485621,1.00000000023108,0.500705983500367
12200.0000000269,129.859761578507,1.00000000023698,0.502738062340855
12300.0000000272,137.433513918703,1.00000000023667,0.504879660596421
12400.0000000276,145.235426229229,1.00000000023348,0.506804071958878
12500.0000000279,153.222657914953,1.00000000023181,0.508614119937009
12600.0000000283,161.449430529032,1.00000000023086,0.51042001592747
12700.0000000287,169.856503785988,1.00000000023278,0.512089621837437
12800.000000029,178.460115970127,1.00000000023805,0.513723564012124
12900.0000000294,187.27454952661,1.00000000023215,0.515325602387971
13000.0000000298,196.245406977833,1.000000000236,0.516766310698433
13100.0000000301,205.423472125816,1.00000000023452,0.518195408833219
13200.0000000305,214.76045591099,1.00000000023234,0.519660215467597
13300.0000000309,224.256009194559,1.00000000023055,0.520905495092984
13400.0000000312,233.937262942844,1.00000000023953,0.522012014090822
13500.0000000316,243.742616104742,1.00000000023128,0.523308703299048
13600.0000000319,253.716249915503,1.00000000024061,0.524340692947584
13700.0000000323,263.823898602383,1.00000000023612,0.525510323135379
13800.0000000327,274.049417539279,1.00000000023768,0.526403752373926
13900.000000033,284.428358056063,1.00000000023733,0.527362038729274
14000.0000000334,294.898521621068,1.00000000023104,0.528404200899579
14100.0000000338,305.492482871124,1.00000000023339,0.529144200164441
14200.0000000341,316.194235262494,1.00000000023388,0.530009774228705
14300.0000000345,326.972712619657,1.00000000023464,0.530777577000458
14400.0000000349,337.868172020626,1.00000000023807,0.531355218163212
14500.0000000352,348.822331969524,1.00000000023545,0.532206285904452
14600.0000000356,359.856556561588,1.00000000023768,0.532647210196375
14700.0000000359,370.969390436822,1.00000000022898,0.533242968949189
14800.0000000363,382.11923475797,1.00000000023548,0.534042040773853
14900.0000000367,393.348303187019,1.00000000022442,0.534438523022624
15000.000000037,404.605774343252,1.0000000002281,0.534864704553472
15100.0000000374,415.899778771751,1.00000000022808,0.535349633627664
15200.0000000378,427.243328897808,1.00000000022889,0.535544284788435
15300.0000000381,438.58789884892,1.00000000021875,0.536103297266284
15400.0000000385,449.97127423701,1.00000000022631,0.536497582180695
15500.0000000389,461.358202790907,1.00000000023156,0.536797777704932
15600.0000000392,472.741362725009,1.00000000021937,0.536768768605835
15700.0000000396,484.143310052068,1.00000000022711,0.536985730934391
15800.0000000399,495.515791698724,1.00000000021874,0.537520622813607
15900.0000000403,506.888491064817,1.0000000002203,0.537744940327938
16000.0000000407,518.239895634516,1.00000000021403,0.537980151175044
16100.000000041,529.551713329558,1.00000000021464,0.538028605229153
16200.0000000414,540.854201950403,1.00000000021394,0.537968162346066
16300.0000000418,552.099418040845,1.00000000020874,0.537980941098228
16400.0000000418,563.309501738803,1.0000000002052,0.538355025379702
16500.0000000404,574.47760772636,1.00000000021132,0.538492379985147
16600.0000000389,585.575352197707,1.00000000021105,0.538617909031921
16700.0000000375,596.636611154223,1.00000000020736,0.538526616209149
16800.000000036,607.618724735808,1.00000000021075,0.538226508232369
16900.0000000346,618.535919430379,1.00000000020829,0.538391201614909
17000.0000000331,629.389705187455,1.00000000020697,0.538005397425527
17100.0000000317,640.150327720221,1.00000000021067,0.538617739993618
17200.0000000302,650.847128704773,1.00000000020649,0.538147650833795
17300.0000000287,661.44836482415,1.00000000020763,0.538464798735976
17400.0000000273,671.957431819399,1.0000000002057,0.537840975437615
17500.0000000258,682.38561342918,1.0000000002051,0.537884419139665
17600.0000000244,692.700847163003,1.00000000020596,0.537476415022475
17700.0000000229,702.927823062929,1.0000000001985,0.537661416498659
17800.0000000215,713.046305644872,1.00000000019768,0.537400791956088
17900.00000002,723.049073135363,1.00000000019638,0.537523917135123
18000.0000000186,732.956183319387,1.0000000001948,0.53711678766745
18100.0000000171,742.733147631652,1.00000000019449,0.537099450053771
18200.0000000156,752.402738879299,1.00000000018834,0.536711500131438
18300.0000000142,761.950585648057,1.00000000019131,0.536302358726095
18400.0000000127,771.366646288718,1.00000000018356,0.536179034291035
18500.0000000113,780.671026410467,1.00000000019302,0.535843277307698
18600.0000000098,789.835412666284,1.00000000018879,0.53590306045835
18700.0000000084,798.873978480977,1.00000000019125,0.535614949490216
18800.0000000069,807.783381603772,1.00000000018694,0.53553847857916
18900.0000000055,816.548007811312,1.00000000018525,0.535165210561054
19000.000000004,825.188602637939,1.000000000177,0.53487438199657
19100.0000000026,833.682020961936,1.00000000018354,0.534368900371024
19200.0000000011,842.035469398081,1.0000000001807,0.534112252146342
19299.9999999996,850.254704925847,1.00000000017946,0.533810196455807
19399.9999999982,858.319659841592,1.00000000017934,0.533726902449118
19499.9999999967,866.252012334431,1.00000000017464,0.533673311072424
19599.9999999953,874.031799750502,1.00000000017182,0.533406879670162
19699.9999999938,881.662923052628,1.00000000017371,0.533163089179466
19799.9999999924,889.154606884789,1.00000000017235,0.532560787356098
19899.9999999909,896.487485456448,1.00000000017367,0.532292479831317
19999.9999999895,903.680466542548,1.0000000001746,0.53187530565112
20099.999999988,910.719353076525,1.0000000001713,0.531495836526437
20199.9999999865,917.604056027403,1.00000000016857,0.531500765146978
20299.9999999851,924.346534698085,1.00000000016411,0.531137027892062
20399.9999999836,930.928306878856,1.00000000015841,0.531246597919525
20499.9999999822,937.364911275713,1.00000000016535,0.530629798030263
20599.9999999807,943.647854379065,1.00000000016515,0.530344413047324
20699.9999999793,949.774372876048,1.00000000016651,0.529908492162517
20799.9999999778,955.757518011858,1.00000000016197,0.529415793614902
20899.9999999764,961.581263564821,1.00000000016013,0.529352305633709
20999.9999999749,967.256587193123,1.00000000015726,0.529078331321231
21099.9999999734,972.781878996762,1.00000000015384,0.529077969298636
21199.999999972,978.150923184315,1.00000000015239,0.528957945914057
21299.9999999705,983.377291307295,1.00000000015798,0.528473596645999
21399.9999999691,988.446856351224,1.00000000015289,0.528207542482368
21499.9999999676,993.367305933082,1.00000000015716,0.527321757277877
21599.9999999662,998.141615604113,1.00000000015178,0.526956676845018
21699.9999999647,1002.76098232012,1.00000000014904,0.526630011370697
21799.9999999633,1007.23887281656,1.00000000015353,0.526582932526839
21899.9999999618,1011.56540908118,1.00000000015226,0.527076835317627
21999.9999999603,1015.74595455836,1.00000000015399,0.527310434011066
22099.9999999589,1019.78681898884,1.00000000015042,0.527461385197324
22199.9999999574,1023.67903226916,1.00000000014325,0.527122017571003
22299.999999956,1027.43371803179,1.00000000014468,0.526162418482199
22399.9999999545,1031.04397599407,1.00000000014704,0.525020759308401
22499.9999999531,1034.5098751421,1.0000000001471,0.523544431120273
22599.9999999516,1037.83924202268,1.00000000014744,0.522783866069352
22699.9999999502,1041.02211497584,1.00000000014176,0.522790777528012
22799.9999999487,1044.06930501303,1.00000000014329,0.523759757318255
22899.9999999473,1046.97882725331,1.00000000014375,0.525360525497315
22999.9999999458,1049.7528890801,1.00000000014594,0.526972761612439
23099.9999999443,1052.40198080604,1.00000000014306,0.527923609081592
23199.9999999429,1054.91923973543,1.00000000014142,0.527571339606636
23299.9999999414,1057.31200043284,1.00000000014111,0.525917250698908
23399.99999994,1059.57795894897,1.00000000013948,0.523209008487874
23499.9999999385,1061.7115944442,1.00000000013984,0.519897274052696
23599.9999999371,1063.71786963028,1.00000000013171,0.517446303492862
23699.9999999356,1065.58757121215,1.00000000012909,0.516855612269391
23799.9999999342,1067.32626251213,1.00000000013056,0.518106354631693
23899.9999999327,1068.93905265654,1.00000000012871,0.521447983435335
23999.9999999312,1070.42784025313,1.00000000013105,0.525667561956127
24099.9999999298,1071.80749136664,1.00000000013901,0.529326973241094
24199.9999999283,1073.07886953111,1.00000000013657,0.531449853320638
24299.9999999269,1074.24894514896,1.00000000013804,0.531038382125322
24399.9999999254,1075.32127743381,1.00000000013668,0.527878464481775
24499.999999924,1076.28631666795,1.00000000013467,0.522350057819776
24599.9999999225,1077.14401870211,1.00000000012149,0.515935126387981
24699.9999999211,1077.88165780814,1.00000000012008,0.510320991995937
24799.9999999196,1078.49512301253,1.00000000011779,0.507579201292582
24899.9999999181,1078.98777385774,1.00000000011408,0.508978122031265
24999.9999999167,1079.35882997291,1.00000000011937,0.514263613462288
25099.9999999152,1079.62522969999,1.00000000012188,0.521853761818214
25199.9999999138,1079.79717678502,1.00000000013085,0.529174817390412
25299.9999999123,1079.88880529848,1.00000000013936,0.534995989130251
25399.9999999109,1079.91522898315,1.00000000014186,0.53745007316066
25499.9999999094,1079.87518778683,1.00000000014274,0.535899363141674
25599.999999908,1079.77125201782,1.00000000013634,0.530198687557973
25699.9999999065,1079.59264229468,1.00000000013294,0.520750971339718
25799.9999999051,1079.32505090424,1.00000000011684,0.509609203363907
25899.9999999036,1078.95907053874,1.000000000105,0.499609207903802
25999.9999999021,1078.47993949519,1.00000000009604,0.493990491816421
26099.9999999007,1077.88832954195,1.00000000009898,0.494806462769069
26199.9999998992,1077.19026064435,1.00000000010117,0.502389331632783
26299.9999998978,1076.39850917272,1.00000000011128,0.513844907954381
26399.9999998963,1075.53680015786,1.00000000012763,0.52598182729404
26499.9999998949,1074.62054257092,1.00000000014162,0.535946428413997
26599.9999998934,1073.6687879579,1.00000000015136,0.542297834568024
26699.999999892,1072.69159730726,1.00000000015412,0.543509632947761
26799.9999998905,1071.68749292193,1.00000000015708,0.539814180154932
26899.999999889,1070.65478022404,1.00000000014487,0.530618652661785
26999.9999998876,1069.57463338027,1.00000000013136,0.516725065583383
27099.9999998861,1068.43117770863,1.00000000011186,0.500595536506147
27199.9999998847,1067.20633858017,1.00000000009751,0.485113520722439
27299.9999998832,1065.88407193909,1.00000000008453,0.475651570495665
27399.9999998818,1064.46361105304,1.00000000008221,0.475275414808085
27499.9999998803,1062.94905003072,1.00000000008925,0.484790053849887
27599.9999998789,1061.35751552025,1.00000000010323,0.50040874726989
27699.9999998774,1059.71185808498,1.00000000012421,0.518080928564325
27799.9999998759,1058.03247117519,1.00000000014085,0.532524183823625
27899.9999998745,1056.34162313601,1.00000000016162,0.543567063249273
27999.999999873,1054.65260308098,1.0000000001675,0.548366373326712
28099.9999998716,1052.97062989378,1.00000000017557,0.54872563932244
28199.9999998701,1051.29751947715,1.00000000016643,0.542821129896496
28299.9999998687,1049.61839269703,1.00000000015612,0.53077037980103
28399.9999998672,1047.92004414686,1.00000000013753,0.514285641523917
28499.9999998658,1046.18011251956,1.00000000011075,0.492819786409442
28599.9999998643,1044.37758568357,1.00000000009209,0.472536751915545
28699.9999998629,1042.4985250323,1.00000000007424,0.457035291666912
28799.9999998614,1040.53342988962,1.00000000007051,0.452846342073732
