Time,AGPnorm,Energy,Entropy
0,0,1,-1.3013920171748e-17
99.9999999999986,3.28407244289864e-05,1.0000000000038,0.0013007046409733
199.999999999993,0.00275254901811356,0.999999999999584,0.00205473336856781
300,0.00687802199522466,1.00000000000232,0.00373110832970468
400.000000000022,0.00952267525462893,1.00000000000238,0.00621328343202911
500.000000000045,0.0118902403003809,0.999999999999482,0.00847494100636552
600.000000000068,0.0169365018837608,1.00000000000384,0.0117447655134299
700.000000000091,0.0209704439343697,1.00000000000001,0.0149425137302802
800.000000000113,0.0267109041639053,1.00000000000163,0.0186081607197862
900.000000000136,0.0333125628490004,1.00000000000305,0.0226552842887737
1000.00000000016,0.0391212107698343,0.999999999999157,0.0267457631964864
1100.0000000001,0.0464170914550951,1.00000000000362,0.0314006556523015
1200,0.0543184372451601,1.00000000000065,0.036074489619869
1299.99999999991,0.0626556468751585,1.00000000000089,0.0412167124939471
1399.99999999982,0.0715560426450564,1.00000000000355,0.0465628649977485
1499.99999999973,0.0802157531223755,0.999999999999107,0.0520747029166813
1599.99999999964,0.0893937559135467,1.00000000000318,0.0581014242142122
1699.99999999955,0.0996195377017223,1.00000000000142,0.0641590547107285
1799.99999999946,0.109972305371408,1.00000000000021,0.0707717681855377
1899.99999999937,0.120379500030254,1.0000000000038,0.0775904255375288
1999.99999999928,0.130982987593564,0.999999999999329,0.0846463687051242
2099.99999999919,0.141448433066607,1.00000000000256,0.092363531367416
2199.99999999909,0.15282558024128,1.00000000000221,0.100191611975053
2299.999999999,0.164231497108638,0.999999999999734,0.108731652910194
2399.99999999891,0.175243375125781,1.00000000000379,0.117733220774319
2499.99999999882,0.186674198586854,0.999999999999813,0.12715529143866
2599.99999999873,0.197831550308131,1.00000000000201,0.137663466611144
2699.99999999864,0.209466882985559,1.00000000000338,0.148754781655183
2799.99999999855,0.220922815455677,1.00000000000122,0.161094128823043
2899.99999999846,0.232056526674537,1.00000000000803,0.174773022903825
2999.99999999837,0.24267364243389,1.00000000001224,0.189556834078455
3099.99999999828,0.25451427156054,1.0000000000262,0.206028272691986
3199.99999999819,0.266751646748131,1.00000000004931,0.223179813641275
3299.99999999809,0.277239378052884,1.00000000007717,0.240802513544541
3399.999999998,0.296097362182766,1.00000000011909,0.258765719868174
3499.99999999791,0.313386662382624,1.00000000016469,0.276120935683696
3599.99999999782,0.34590755499714,1.0000000002128,0.293638920583441
3699.99999999773,0.397153908442502,1.00000000026938,0.310540213254846
3799.99999999764,0.464876011598147,1.0000000003212,0.326888529089843
3899.99999999755,0.581107753520553,1.00000000038364,0.343024702579155
3999.99999999746,0.736732672089219,1.00000000044741,0.3580564919012
4099.99999999738,0.96231831451056,1.00000000048942,0.373155411596619
4199.99999999775,1.27009693091329,1.00000000052839,0.38741673352135
4299.99999999811,1.66870165801087,1.00000000057945,0.400782262362536
4399.99999999848,2.19127386579885,1.00000000063096,0.414086448680801
4499.99999999884,2.83736990640939,1.00000000066558,0.42622431199009
4599.9999999992,3.64277721253131,1.0000000007207,0.438084035178988
4699.99999999957,4.60586479987036,1.00000000075532,0.449335782313877
4799.99999999993,5.75172755651941,1.000000000819,0.459354769160928
4900.00000000029,7.09578955681768,1.0000000008505,0.469696138223076
5000.00000000066,8.62854195204094,1.00000000086234,0.478948325958754
5100.00000000102,10.3967049432238,1.00000000088876,0.487659816638344
5200.00000000139,12.3642719811049,1.00000000092086,0.496278528198262
5300.00000000175,14.563503253654,1.000000000897,0.503550212866972
5400.00000000211,17.001163664626,1.00000000096202,0.510992797668131
5500.00000000248,19.636569946819,1.00000000096439,0.517775423716396
5600.00000000284,22.5332802136864,1.00000000093714,0.523771655197919
5700.00000000321,25.6267104235042,1.00000000096195,0.530131116731166
5800.00000000357,28.9358403143178,1.00000000099786,0.53514436877659
5900.00000000393,32.4809577337191,1.00000000097956,0.540334952255989
6000.0000000043,36.1837267807017,1.00000000100466,0.54525512658318
6100.00000000466,40.1176415958359,1.00000000098912,0.548964598384869
6200.00000000502,44.2138566576145,1.00000000096098,0.553623668367286
6300.00000000539,48.4607544088135,1.00000000097253,0.557127488272461
6400.00000000575,52.9048312197454,1.00000000098892,0.560239006527832
6500.00000000612,57.4422411504741,1.00000000100745,0.563841358189478
6600.00000000648,62.1404866334971,1.00000000099853,0.566181180272578
6700.00000000684,66.9502636123723,1.0000000009993,0.569229302736393
6800.00000000721,71.8268260916465,1.00000000098834,0.571778987392859
6900.00000000757,76.8371834826018,1.000000000981,0.573326995144399
7000.00000000793,81.8754948460633,1.00000000097071,0.575958196849911
7100.0000000083,86.9867899413504,1.00000000094619,0.577374689925516
7200.00000000866,92.1541295342477,1.00000000097118,0.5788856156195
7300.00000000903,97.3081012302832,1.00000000095676,0.580755961381825
7400.00000000939,102.523164061963,1.00000000095247,0.581261581796989
7500.00000000975,107.709228103859,1.00000000090441,0.58314009777242
7600.00000001012,112.885731444616,1.00000000095538,0.583719526971906
7700.00000001048,118.064023202919,1.00000000091162,0.584484095271717
7800.00000001084,123.16582629158,1.00000000091686,0.585589785147503
7900.00000001121,128.259349668794,1.00000000088368,0.58552279128529
8000.00000001157,133.27989269429,1.00000000086019,0.586579480444931
8100.00000001194,138.224900429455,1.00000000084102,0.587142580720812
8200.0000000123,143.123890586085,1.00000000087353,0.586752145103898
8300.00000001266,147.903966309221,1.00000000085822,0.587637626239297
8400.00000001303,152.618487754263,1.00000000082764,0.587447921187493
8500.00000001339,157.23050846589,1.00000000082798,0.587495604934433
8600.00000001376,161.71925622838,1.00000000084053,0.587951212857533
8700.00000001412,166.127494135301,1.00000000079056,0.587117169042397
8800.00000001448,170.388238638549,1.00000000081397,0.587585272001559
8900.00000001485,174.545751937598,1.0000000008129,0.587204072021989
9000.00000001521,178.57739093125,1.00000000077291,0.586333090281434
9100.00000001557,182.461668072448,1.00000000076855,0.587650444851416
9200.00000001594,186.237046696578,1.000000000762,0.585263619301735
9300.0000000163,189.854910542054,1.00000000074782,0.587076270610852
9400.00000001667,193.344095796989,1.00000000072647,0.585294112908503
9500.00000001703,196.697221742712,1.00000000071965,0.585519142133387
9600.00000001739,199.891544396691,1.00000000073936,0.585297228347038
9700.00000001776,202.961474630384,1.00000000070675,0.584198577661127
9800.00000001812,205.874576965565,1.00000000071891,0.584686296804817
9900.00000001848,208.6454305221,1.00000000069446,0.583657040250883
10000.0000000188,211.281160090879,1.0000000006935,0.583718224768279
10100.0000000192,213.75542369842,1.00000000068396,0.582915138657872
10200.0000000196,216.102445095186,1.00000000068492,0.583178203901386
10300.0000000199,218.300130234049,1.00000000066416,0.582271326674781
10400.0000000203,220.354249539035,1.0000000006633,0.582119732524851
10500.0000000207,222.280362669491,1.00000000065556,0.581944274604714
10600.000000021,224.054117998625,1.00000000063191,0.580560010227473
10700.0000000214,225.703231874472,1.0000000006234,0.581020079842414
10800.0000000218,227.215679112899,1.00000000060468,0.580814052910745
10900.0000000221,228.592662356975,1.0000000005961,0.578890181036771
11000.0000000225,229.848223531381,1.0000000005972,0.579952981181045
11100.0000000229,230.968094706415,1.00000000059675,0.580731219771481
11200.0000000232,231.972672387402,1.00000000056913,0.577635371275089
11300.0000000236,232.852441297611,1.00000000058221,0.578112144381325
11400.0000000239,233.611444871683,1.00000000058165,0.580004979712546
11500.0000000243,234.265958197714,1.00000000055851,0.578471737596791
11600.0000000247,234.799538897373,1.00000000055048,0.576406772362112
11700.000000025,235.230100891546,1.0000000005544,0.576963218738245
11800.0000000254,235.557348113155,1.00000000055664,0.579431096264682
11900.0000000258,235.785257183334,1.00000000055624,0.578040467592321
12000.0000000261,235.923233463294,1.00000000052352,0.571641229631536
12100.0000000265,235.95673212972,1.00000000052562,0.575121367175887
12200.0000000269,235.912277274501,1.00000000057571,0.580940780293992
12300.0000000272,235.794146311495,1.00000000053984,0.574818918077175
12400.0000000276,235.588544683171,1.00000000050682,0.566922015489501
12500.0000000279,235.304426425881,1.00000000051475,0.571775434427176
12600.0000000283,234.951272742804,1.00000000056884,0.580514200734185
12700.0000000287,234.547288797127,1.00000000055181,0.57440440932762
12800.000000029,234.079852942021,1.00000000049013,0.562728125775686
12900.0000000294,233.537032579635,1.00000000048922,0.56227602213336
13000.0000000298,232.944480177816,1.0000000005675,0.5790485131476
13100.0000000301,232.315494239288,1.00000000059301,0.577287963278212
13200.0000000305,231.647308010303,1.00000000052784,0.563097068884803
13300.0000000309,230.920901602227,1.00000000043867,0.550479297737476
13400.0000000312,230.138156659954,1.00000000054198,0.56756137649348
13500.0000000316,229.33655288691,1.0000000006434,0.582844465515248
13600.0000000319,228.516287489767,1.00000000060522,0.569163262428147
13700.0000000323,227.664158419219,1.00000000049282,0.551245383206982
13800.0000000327,226.762095068263,1.00000000044996,0.542408139552163
13900.000000033,225.823258647116,1.00000000061638,0.571485270904111
14000.0000000334,224.882842605338,1.00000000065368,0.581934720447636
14100.0000000338,223.937755160985,1.00000000061931,0.564814890301393
14200.0000000341,222.969179939795,1.00000000048657,0.542735152848074
14300.0000000345,221.961742929601,1.00000000043622,0.533216477739095
14400.0000000349,220.925489892614,1.0000000005873,0.563682023489821
14500.0000000352,219.893912810309,1.00000000068586,0.583076009260422
14600.0000000356,218.870654771261,1.00000000065356,0.567934785033311
14700.0000000359,217.838158512232,1.00000000049413,0.539132107228923
14800.0000000363,216.779134632238,1.00000000045417,0.526896498468392
14900.0000000367,215.691527889892,1.00000000051378,0.538334188092528
15000.000000037,214.603901523142,1.00000000068223,0.576585827193304
15100.0000000374,213.529825223361,1.00000000073393,0.579675454375979
15200.0000000378,212.465220374144,1.00000000060601,0.548703452421451
15300.0000000381,211.392347178559,1.00000000046871,0.528007984765943
15400.0000000385,210.296856634621,1.00000000045091,0.521182080094368
15500.0000000389,209.188528259968,1.00000000053311,0.538352028786436
15600.0000000392,208.083444090271,1.00000000068945,0.573652055680825
15700.0000000396,206.995767554892,1.00000000073821,0.578137911903884
15800.0000000399,205.920986029972,1.00000000058876,0.542962946998446
15900.0000000403,204.841981336522,1.0000000004931,0.523404801797461
16000.0000000407,203.75321377898,1.00000000045393,0.519852101924104
16100.000000041,202.653598018238,1.00000000052912,0.528667986922266
16200.0000000414,201.555028285963,1.00000000063187,0.55507286063711
16300.0000000418,200.471866485545,1.00000000073067,0.57487079762967
16400.0000000418,199.403251416945,1.00000000067867,0.557157478505706
16500.0000000404,198.342796489084,1.00000000055352,0.526047891162867
16600.0000000389,197.280465844009,1.00000000047731,0.515498479602144
16700.0000000375,196.21304410939,1.00000000050822,0.524982606990365
16800.000000036,195.145423272522,1.00000000055416,0.530038274816815
16900.0000000346,194.081860063059,1.00000000064056,0.546024501640306
17000.0000000331,193.030759841871,1.0000000006963,0.563573963563761
17100.0000000317,191.993786555778,1.00000000067675,0.553283487466724
17200.0000000302,190.964754778503,1.00000000057147,0.525450714300996
17300.0000000287,189.940149444443,1.00000000050294,0.514409295514128
17400.0000000273,188.91634159213,1.00000000054606,0.524316253604704
17500.0000000258,187.895865537752,1.00000000054468,0.530423718678569
17600.0000000244,186.879900737271,1.00000000056893,0.531705998983042
17700.0000000229,185.871288338393,1.00000000064108,0.540828426195472
17800.0000000215,184.873895357025,1.00000000065265,0.549221187812055
17900.00000002,183.886679901901,1.00000000062641,0.540569021239405
18000.0000000186,182.907598026801,1.00000000058119,0.523821722366881
18100.0000000171,181.935343692123,1.00000000054178,0.518105772892223
18200.0000000156,180.96836569835,1.00000000051635,0.525581757476497
18300.0000000142,180.007998933373,1.00000000055053,0.532409578919071
18400.0000000127,179.05312851632,1.00000000056293,0.529713133169423
18500.0000000113,178.10570942308,1.00000000057236,0.527820463906449
18600.0000000098,177.166901767836,1.0000000006194,0.531167421090059
18700.0000000084,176.236609495985,1.00000000060003,0.537887281845823
18800.0000000069,175.315438018482,1.00000000062504,0.536820479560641
18900.0000000055,174.402582186738,1.00000000057821,0.526704755784035
19000.000000004,173.497903326986,1.00000000057772,0.525993436870549
19100.0000000026,172.601431168553,1.00000000051471,0.53096812810899
19200.0000000011,171.712375423025,1.0000000005653,0.534220038918401
19299.9999999996,170.83118996045,1.00000000054741,0.527602138626853
19399.9999999982,169.957273533439,1.00000000054146,0.521247383019809
19499.9999999967,169.091395265137,1.00000000057122,0.521521326297636
19599.9999999953,168.234248917434,1.00000000060513,0.528454534524984
19699.9999999938,167.385282645247,1.00000000061178,0.538693184909717
19799.9999999924,166.544728630278,1.00000000061728,0.539419835956098
19899.9999999909,165.712548318792,1.00000000056199,0.53273085847627
19999.9999999895,164.888859092067,1.00000000057848,0.534141267254554
20099.999999988,164.07404194225,1.0000000005698,0.538609630059561
20199.9999999865,163.267912475136,1.00000000054527,0.533856269805637
20299.9999999851,162.470794291091,1.00000000050028,0.52294135910687
20399.9999999836,161.682241367457,1.00000000051024,0.513732330399501
20499.9999999822,160.902503939904,1.00000000055573,0.517011883461526
20599.9999999807,160.131431160334,1.00000000058764,0.523712819318472
20699.9999999793,159.368493217895,1.00000000059414,0.531505198854826
20799.9999999778,158.61320606844,1.00000000060125,0.542316472232321
20899.9999999764,157.865469154086,1.00000000057271,0.541566897629278
20999.9999999749,157.12534600604,1.00000000059257,0.538136294876119
21099.9999999734,156.39275066883,1.00000000058904,0.54245766551035
21199.999999972,155.668103830838,1.00000000059429,0.542179378573798
21299.9999999705,154.952557433678,1.00000000054035,0.534626005788011
21399.9999999691,154.247395262343,1.00000000047359,0.516885415920513
21499.9999999676,153.553446640121,1.00000000048082,0.505219093811903
21599.9999999662,152.869584750951,1.00000000053161,0.508267589895994
21699.9999999647,152.19411218472,1.00000000060639,0.519655653184369
21799.9999999633,151.525832364692,1.0000000005861,0.52369412180056
21899.9999999618,150.864384754179,1.00000000060805,0.529423328609985
21999.9999999603,150.209526398194,1.00000000057023,0.539219381026344
22099.9999999589,149.560997230913,1.000000000574,0.544385499376986
22199.9999999574,148.918173782478,1.00000000060525,0.542978344702471
22299.999999956,148.280594580425,1.0000000006332,0.548689397159162
22399.9999999545,147.648469435578,1.00000000060557,0.546616072961632
22499.9999999531,147.024851203203,1.00000000055094,0.530818147472917
22599.9999999516,146.412422572281,1.00000000048773,0.518545671272801
22699.9999999502,145.813124813855,1.00000000044281,0.503074183468734
22799.9999999487,145.226546281698,1.00000000050324,0.499418482454949
22899.9999999473,144.649568430516,1.00000000056138,0.505431896526624
22999.9999999458,144.079763819732,1.00000000061599,0.519092765150476
23099.9999999443,143.515114453723,1.00000000061036,0.520175180978698
23199.9999999429,142.956024011068,1.00000000056701,0.519689262765637
23299.9999999414,142.401915632455,1.00000000057796,0.534583870224411
23399.99999994,141.851595143771,1.00000000058644,0.544521381488923
23499.9999999385,141.304750329568,1.00000000060333,0.547750056709927
23599.9999999371,140.760566934538,1.00000000065029,0.547542823534098
23699.9999999356,140.219649305475,1.00000000063319,0.547184864496637
23799.9999999342,139.683854071859,1.00000000062083,0.540263621916561
23899.9999999327,139.15626715385,1.00000000052136,0.523801437869447
23999.9999999312,138.641472328075,1.00000000047936,0.509396533677719
24099.9999999298,138.140408531389,1.00000000047267,0.50592371934213
24199.9999999283,137.652032042752,1.00000000047583,0.499064196273757
24299.9999999269,137.17453705995,1.00000000053073,0.500186286777903
24399.9999999254,136.703902205362,1.0000000006207,0.508378492681951
24499.999999924,136.238338757923,1.00000000061701,0.516611511853262
24599.9999999225,135.776133820902,1.0000000006163,0.518578854763628
24699.9999999211,135.317042008845,1.00000000060433,0.520636737795991
24799.9999999196,134.860656088379,1.00000000060762,0.532076684675016
24899.9999999181,134.405146463311,1.00000000063099,0.542828115238456
24999.9999999167,133.950304787259,1.00000000062128,0.547086754826839
25099.9999999152,133.496544887239,1.00000000058221,0.546096235998706
25199.9999999138,133.044951058038,1.00000000061617,0.542471313899168
25299.9999999123,132.597245929758,1.00000000059833,0.538419600443585
25399.9999999109,132.1554667495,1.00000000055467,0.531216916347041
25499.9999999094,131.722777421333,1.00000000052821,0.520679402327267
25599.999999908,131.301528953793,1.00000000048147,0.510478084057002
25699.9999999065,130.893006216957,1.00000000048104,0.506764993158816
25799.9999999051,130.497219639108,1.00000000051996,0.504551944698074
25899.9999999036,130.111934329328,1.00000000050599,0.500776356071476
25999.9999999021,129.735711361041,1.0000000005519,0.50355990911407
26099.9999999007,129.364777032768,1.0000000006006,0.513046373927778
26199.9999998992,128.996866079287,1.00000000061977,0.517733629073086
26299.9999998978,128.630724147798,1.00000000059711,0.525547169024527
26399.9999998963,128.264681643521,1.00000000059832,0.528000666873261
26499.9999998949,127.898425580606,1.00000000063768,0.532986972072975
26599.9999998934,127.531474154465,1.00000000061565,0.538964224184609
26699.999999892,127.163677208851,1.0000000006334,0.543402980793775
26799.9999998905,126.796715202365,1.00000000059716,0.541574623387488
26899.999999889,126.431948553358,1.00000000058805,0.537534176553401
26999.9999998876,126.070629903981,1.00000000058802,0.535712127820162
27099.9999998861,125.713262498914,1.00000000060238,0.536407759787215
27199.9999998847,125.360808948869,1.00000000057256,0.531708742056202
27299.9999998832,125.015437097819,1.00000000057649,0.526471283269727
27399.9999998818,124.67837751144,1.0000000005261,0.519262024589755
27499.9999998803,124.352650714717,1.00000000049887,0.510780785814315
27599.9999998789,124.039721790933,1.0000000005092,0.50796804160802
27699.9999998774,123.738223721094,1.0000000005019,0.507034713973237
27799.9999998759,123.446995379945,1.00000000053138,0.506548528486594
27899.9999998745,123.162684041867,1.000000000575,0.512409598232656
27999.999999873,122.883806114829,1.00000000056439,0.517702995196917
28099.9999998716,122.606547532174,1.00000000059544,0.526487139006616
28199.9999998701,122.329030701617,1.00000000059468,0.531390615542481
28299.9999998687,122.050738775058,1.00000000062088,0.538877326349388
28399.9999998672,121.770419929584,1.00000000062037,0.536307541178163
28499.9999998658,121.488503412813,1.00000000062167,0.538299946396201
28599.9999998643,121.205496739513,1.00000000064701,0.540674636386812
28699.9999998629,120.921383335875,1.00000000060946,0.543050368699817
28799.9999998614,120.638378689579,1.00000000057363,0.541482333716737
28899.9999998599,120.358144344819,1.00000000057206,0.538747549570891
28999.9999998585,120.081577144814,1.00000000057499,0.537196284164953
