Time,AGPnorm,Energy,Entropy
0,0,1,-1.06780883460522e-19
99.9999999999986,0.00759123945007685,0.999999999998203,0.0216318401638248
199.999999999993,0.0214078719984381,1.00000000000012,0.0624254070893405
300,0.0426090738117907,0.999999999999478,0.124335653392605
400.000000000022,0.0634277832418092,1.00000000003849,0.21320137285416
500.000000000045,0.0855870755217033,1.00000000054166,0.341333738439114
600.000000000068,0.289370696789531,1.00000000169113,0.455939569632214
700.000000000091,0.993815083455483,1.00000000222396,0.527364222071398
800.000000000113,2.51426628546146,1.00000000267259,0.563889554501735
900.000000000136,4.7907371488812,1.00000000293654,0.579584529934245
1000.00000000016,7.52608479894371,1.00000000290406,0.582783301533746
1100.0000000001,10.4001285849238,1.00000000262883,0.579317562899094
1200,13.0837076762878,1.00000000245739,0.570032519646152
1299.99999999991,15.3811597269648,1.00000000231293,0.564024053695979
1399.99999999982,17.1796280542149,1.00000000205298,0.55582616417792
1499.99999999973,18.4335709427189,1.00000000195159,0.553731826596757
1599.99999999964,19.1748463717134,1.00000000168578,0.534217717243875
1699.99999999955,19.5130577969444,1.00000000177703,0.534268627327552
1799.99999999946,19.4692845695232,1.00000000196677,0.559637632898393
1899.99999999937,19.2435228047341,1.00000000124611,0.480552902216996
1999.99999999928,18.7904471090541,1.00000000208437,0.563827092906576
2099.99999999919,18.3403975993207,1.00000000139656,0.475052274779384
2199.99999999909,17.7297987719924,1.00000000173659,0.486600560991677
2299.999999999,17.1782411147154,1.00000000221421,0.571976950294646
2399.99999999891,16.6261057379879,1.00000000099535,0.38888614795523
2499.99999999882,16.0230150611233,1.00000000183897,0.492610639691191
2599.99999999873,15.4698634514475,1.0000000024239,0.569587790282586
2699.99999999864,14.9700477367207,1.00000000152228,0.445248909742894
2799.99999999855,14.4798219718309,1.00000000121719,0.402756908961715
2899.99999999846,13.9966935772722,1.00000000196593,0.516092824123121
2999.99999999837,13.5359530533895,1.00000000211057,0.541183159778448
3099.99999999828,13.1126056473907,1.00000000185562,0.538564870877126
3199.99999999819,12.7420969278719,1.00000000097117,0.385298725633769
3299.99999999809,12.4272622945599,1.00000000167701,0.443857520090112
3399.999999998,12.1081025363285,1.0000000020347,0.530695961778446
3499.99999999791,11.800155372825,1.00000000176077,0.523351427843159
3599.99999999782,11.4922486517065,1.00000000231587,0.542198201968094
3699.99999999773,11.1863534685086,1.00000000195931,0.558782934281506
3799.99999999764,10.9317248680263,1.00000000107172,0.427808579649025
3899.99999999755,10.7748803087198,1.00000000116064,0.40138781291582
3999.99999999746,10.6518275569531,1.00000000199851,0.495590684338628
4099.99999999738,10.5089251535719,1.0000000018474,0.52960069844014
4199.99999999775,10.3517818742674,1.00000000190851,0.548304423628444
4299.99999999811,10.1899858416798,1.0000000017187,0.55346353042306
4399.99999999848,10.0245806848316,1.00000000184634,0.543573914016183
4499.99999999884,9.84467455241617,1.00000000231025,0.548873109590744
4599.9999999992,9.64870804957864,1.00000000239185,0.578611870323137
4699.99999999957,9.47507952285757,1.00000000134521,0.502053362096156
4799.99999999993,9.39223266684964,1.00000000104832,0.413471285656132
4900.00000000029,9.4138017730141,1.00000000155257,0.428378930253463
5000.00000000066,9.45526655433289,1.00000000186704,0.483713824337011
5100.00000000102,9.46333342543252,1.00000000206031,0.539725734917508
5200.00000000139,9.4499499149348,1.0000000017722,0.553319198305619
5300.00000000175,9.42276878930937,1.00000000182268,0.571642746184599
5400.00000000211,9.37793902404586,1.00000000196577,0.567621770875934
5500.00000000248,9.31699400067258,1.0000000019113,0.554867994337223
5600.00000000284,9.23636571555247,1.00000000216323,0.584444125496618
5700.00000000321,9.14906101931002,1.00000000166607,0.573641474199623
5800.00000000357,9.06496374956169,1.00000000166933,0.581762426743756
5900.00000000393,8.97026221220516,1.000000001922,0.581141063022268
6000.0000000043,8.86153234052611,1.00000000234945,0.583577757342086
6100.00000000466,8.73915844553693,1.00000000237692,0.583273334099052
6200.00000000502,8.61316739652931,1.00000000193112,0.563794150345311
6300.00000000539,8.52110480197248,1.00000000129204,0.489788336076271
6400.00000000575,8.5192471354233,1.00000000115065,0.433628933425887
6500.00000000612,8.62767213833669,1.00000000126115,0.43483303223645
6600.00000000648,8.782644271015,1.00000000190632,0.475038361282126
6700.00000000684,8.92789389138749,1.00000000203758,0.510059980888454
6800.00000000721,9.04434712275159,1.00000000184584,0.534072264751374
6900.00000000757,9.14500455632783,1.00000000196331,0.565451980089364
7000.00000000793,9.21707104420579,1.00000000191587,0.577473006456068
7100.0000000083,9.26118496597888,1.00000000211083,0.598379671714269
7200.00000000866,9.28169860636856,1.00000000199654,0.598994464463622
7300.00000000903,9.27560451875132,1.00000000210243,0.604242362443886
7400.00000000939,9.25770878254196,1.00000000196317,0.586798646417879
7500.00000000975,9.23508104334681,1.00000000183478,0.580257976166634
7600.00000001012,9.21403788579179,1.00000000182644,0.565033516866167
7700.00000001048,9.18449095866606,1.00000000207922,0.559928227128247
7800.00000001084,9.14570585493423,1.00000000195816,0.582604332103477
7900.00000001121,9.11111325698166,1.00000000174891,0.583813297197285
8000.00000001157,9.07755704917669,1.00000000196904,0.594450391225017
8100.00000001194,9.04128425104387,1.00000000183632,0.596452439528189
8200.0000000123,9.00046068551821,1.0000000020078,0.587729715846612
8300.00000001266,8.95233183174224,1.00000000207996,0.586797875057099
8400.00000001303,8.89711935334718,1.00000000216207,0.599700297595419
8500.00000001339,8.83146280753578,1.00000000194017,0.621207551528385
8600.00000001376,8.76104603601306,1.00000000183764,0.622081889643398
8700.00000001412,8.69283012789626,1.00000000171715,0.618434339360496
8800.00000001448,8.62239260788513,1.00000000199429,0.615860882420891
8900.00000001485,8.54942208960471,1.00000000229128,0.609635305997114
9000.00000001521,8.47518581888966,1.00000000246983,0.605183492350116
9100.00000001557,8.40185458523031,1.0000000025181,0.585658018829593
9200.00000001594,8.32469252109628,1.0000000026,0.572052821901536
9300.0000000163,8.24010206571649,1.00000000204464,0.560942796642256
9400.00000001667,8.16040387021713,1.00000000160017,0.521630106652981
9500.00000001703,8.1171974060699,1.0000000013821,0.473730223544659
9600.00000001739,8.15147413121972,1.00000000135286,0.440236517790442
9700.00000001776,8.2825648839306,1.00000000124763,0.433995649481642
9800.00000001812,8.48780134256641,1.00000000187595,0.453108342819707
9900.00000001848,8.73072445122744,1.0000000019558,0.469325590757468
10000.0000000188,8.96672745084531,1.00000000229786,0.49846504094725
10100.0000000192,9.19259292944786,1.0000000021905,0.524070167117267
10200.0000000196,9.39691251797089,1.00000000209476,0.542380272223168
10300.0000000199,9.58631907196026,1.00000000213022,0.556443089749712
10400.0000000203,9.7570042057452,1.00000000219205,0.57816791869429
10500.0000000207,9.91154578042416,1.00000000213512,0.603638196640254
10600.000000021,10.039438822348,1.00000000250519,0.612501810436994
10700.0000000214,10.1417491007994,1.00000000209778,0.611998248553527
10800.0000000218,10.2233241106113,1.000000002232,0.634770041559814
10900.0000000221,10.2806384455743,1.00000000207738,0.640710320742121
11000.0000000225,10.3165641268605,1.00000000231739,0.646402638521202
11100.0000000229,10.341498429235,1.00000000212305,0.641150456369101
11200.0000000232,10.3567559691213,1.00000000224075,0.6458374385544
11300.0000000236,10.3648303353565,1.00000000218654,0.635634871084685
11400.0000000239,10.3668211508668,1.00000000233629,0.644523731219145
11500.0000000243,10.35129257084,1.00000000230923,0.63626031429999
11600.0000000247,10.3331945633755,1.00000000218153,0.611476695576501
11700.000000025,10.3144006080338,1.00000000230368,0.635311235531751
11800.0000000254,10.2838270901219,1.00000000241887,0.633168495644729
11900.0000000258,10.248208332172,1.00000000218565,0.644889798851493
12000.0000000261,10.2102297465672,1.00000000225426,0.647476418847743
12100.0000000265,10.1712952501102,1.000000002077,0.657338632427337
12200.0000000269,10.1301935380744,1.00000000228483,0.652539189195974
12300.0000000272,10.0938026526028,1.00000000202071,0.634405870577443
12400.0000000276,10.0651134044975,1.00000000203071,0.622455321225683
12500.0000000279,10.0435963112598,1.00000000213941,0.620598502618463
12600.0000000283,10.0270265330507,1.00000000208767,0.621109332235309
12700.0000000287,10.0161565980698,1.00000000215653,0.624228553571668
12800.000000029,10.0033436535244,1.00000000238358,0.63097222627386
12900.0000000294,9.98622180210805,1.0000000022548,0.633832247052454
13000.0000000298,9.96672990311352,1.00000000209321,0.621616740918029
13100.0000000301,9.94925096003515,1.00000000227816,0.614204781115314
13200.0000000305,9.93199653135919,1.00000000214568,0.622223790414042
13300.0000000309,9.91980574109179,1.00000000208033,0.609372303879364
13400.0000000312,9.90894533885238,1.00000000212564,0.598772514287507
13500.0000000316,9.89647320184421,1.00000000244976,0.596746748275503
13600.0000000319,9.87905759739754,1.00000000230871,0.603640673993153
13700.0000000323,9.86723213978594,1.00000000207442,0.590185925438332
13800.0000000327,9.85932878847813,1.00000000246943,0.622711256656271
13900.000000033,9.85212445823952,1.00000000215541,0.635270113491048
14000.0000000334,9.84419829154071,1.00000000226135,0.628834627665041
14100.0000000338,9.83268382780495,1.00000000243841,0.636186829997347
14200.0000000341,9.81990914258229,1.00000000224668,0.643685102863882
14300.0000000345,9.81004497252973,1.00000000205205,0.632212044946163
14400.0000000349,9.7953870446558,1.0000000026027,0.646197445319597
14500.0000000352,9.77151464553619,1.00000000258618,0.64564928835952
14600.0000000356,9.75365330947822,1.00000000206511,0.634955309292404
14700.0000000359,9.73909634569717,1.00000000235842,0.654025519381602
14800.0000000363,9.71833781603644,1.00000000231629,0.64315624517168
14900.0000000367,9.69523293468936,1.0000000021923,0.621489711590529
15000.000000037,9.66817904066373,1.00000000230315,0.632776064134412
15100.0000000374,9.64506776672049,1.00000000208343,0.654877477592551
15200.0000000378,9.62432618348308,1.00000000236101,0.663614450898718
15300.0000000381,9.5986578795105,1.00000000250876,0.653358535877847
15400.0000000385,9.56853621321964,1.00000000240088,0.65309785493156
15500.0000000389,9.53947614916142,1.00000000218547,0.642728702697038
15600.0000000392,9.51471118070059,1.00000000256137,0.648282471348426
15700.0000000396,9.48591125643686,1.00000000231776,0.646164091530896
15800.0000000399,9.45515387959232,1.00000000234312,0.650899373699097
15900.0000000403,9.42537763762606,1.00000000231734,0.648399023827301
16000.0000000407,9.3937124291538,1.00000000231862,0.648216165877694
16100.000000041,9.36313435150876,1.0000000022934,0.660888933827154
16200.0000000414,9.33147619990182,1.0000000022567,0.657768877809084
16300.0000000418,9.29493457092151,1.00000000249834,0.659673686802673
16400.0000000418,9.25563170783264,1.00000000219957,0.63843933328553
16500.0000000404,9.21429757549554,1.00000000247306,0.657775865564327
16600.0000000389,9.1685686882097,1.00000000232519,0.650446870499202
16700.0000000375,9.12360823351361,1.00000000221571,0.6380957878369
16800.000000036,9.07786629762696,1.00000000276669,0.665968991661505
16900.0000000346,9.02802939041047,1.00000000244531,0.662570767783274
17000.0000000331,8.97764323164555,1.00000000215868,0.665513543131191
17100.0000000317,8.92765360677691,1.0000000021953,0.663082002663224
17200.0000000302,8.87765391697791,1.00000000227918,0.677257470370094
17300.0000000287,8.8276749718985,1.00000000234953,0.664765981418097
17400.0000000273,8.77896558340015,1.00000000212814,0.65026010488693
17500.0000000258,8.7328821897573,1.00000000237697,0.661889921067538
17600.0000000244,8.68977455941667,1.00000000249932,0.662352062537872
17700.0000000229,8.65176036003504,1.00000000248372,0.657803902774614
17800.0000000215,8.62011615752717,1.00000000260961,0.66670898214486
17900.00000002,8.59590326195546,1.00000000267327,0.665663652976287
18000.0000000186,8.58533583729981,1.00000000261303,0.674583158134556
18100.0000000171,8.58061423497313,1.00000000282108,0.682442454474063
18200.0000000156,8.59371824180779,1.00000000291156,0.685994048195108
18300.0000000142,8.60327047039904,1.00000000294139,0.683076815212
18400.0000000127,8.62317548705308,1.00000000287655,0.669523374974517
18500.0000000113,8.62358461121011,1.00000000293616,0.648216785817904
18600.0000000098,8.61592862820517,1.00000000260726,0.630747833018123
18700.0000000084,8.58727677994369,1.0000000022864,0.611378540120483
18800.0000000069,8.54721769029034,1.0000000021089,0.587427156283192
18900.0000000055,8.50745271809605,1.00000000199543,0.55407353443459
19000.000000004,8.48386185991535,1.00000000176928,0.532323323754881
19100.0000000026,8.50124525439166,1.00000000179462,0.509268364801369
19200.0000000011,8.57717280852384,1.00000000181578,0.488703991816662
19299.9999999996,8.73254874630889,1.00000000178532,0.482645136629413
19399.9999999982,8.96145708371314,1.00000000191151,0.479666104887562
19499.9999999967,9.27966638643588,1.00000000215014,0.485993371561517
19599.9999999953,9.63534807305504,1.0000000023766,0.487401830585991
19699.9999999938,10.0586124687926,1.00000000257698,0.499865147283545
19799.9999999924,10.4770047574593,1.00000000250591,0.505883613668266
19899.9999999909,10.9326637236532,1.00000000240027,0.513558584920914
19999.9999999895,11.3658817001636,1.00000000266673,0.528195830526285
20099.999999988,11.8012465047512,1.00000000290355,0.530273619115845
20199.9999999865,12.2221893571041,1.00000000271567,0.548768150207057
20299.9999999851,12.6263259805489,1.00000000254274,0.549682294620604
20399.9999999836,13.0344377304703,1.00000000259397,0.564888275274277
20499.9999999822,13.4173680278605,1.00000000277,0.571271236694122
20599.9999999807,13.7997150587245,1.00000000251745,0.57515263949921
20699.9999999793,14.1625441365254,1.00000000272945,0.582597156394333
20799.9999999778,14.5108528823022,1.00000000263271,0.598940510648333
20899.9999999764,14.8519660897707,1.0000000024535,0.611268621074662
20999.9999999749,15.1773068806809,1.00000000296893,0.625435701477135
21099.9999999734,15.4889168044482,1.00000000274028,0.639065210001489
21199.999999972,15.7703610995147,1.00000000277252,0.637540768910344
21299.9999999705,16.0462759291846,1.00000000290176,0.654902883640947
21399.9999999691,16.2919429335408,1.0000000028246,0.649001540932941
21499.9999999676,16.5236939468745,1.00000000275914,0.642402303994628
21599.9999999662,16.7310836699419,1.00000000288525,0.672523457550424
21699.9999999647,16.9178867228438,1.00000000304486,0.665437117500364
21799.9999999633,17.0975907687122,1.00000000296493,0.677438701907604
21899.9999999618,17.2586524444923,1.0000000028167,0.673551584190707
21999.9999999603,17.4192661413199,1.0000000027478,0.670784475219406
22099.9999999589,17.5598837772853,1.00000000288267,0.677717576274111
22199.9999999574,17.6897149303022,1.00000000280056,0.672041767986732
22299.999999956,17.8032225009158,1.00000000307861,0.673600362019711
22399.9999999545,17.9045748577937,1.00000000289084,0.669470945419329
22499.9999999531,18.0003965038813,1.00000000286269,0.69001011300326
22599.9999999516,18.0932105906142,1.00000000238424,0.687055938456614
22699.9999999502,18.193362877406,1.00000000284356,0.685060289631481
22799.9999999487,18.2914386464451,1.00000000283924,0.67893059241469
22899.9999999473,18.3808781607157,1.00000000294752,0.676716416819842
22999.9999999458,18.448447491693,1.00000000318017,0.666777137061982
23099.9999999443,18.504052417414,1.00000000306631,0.673593289582493
23199.9999999429,18.56755319063,1.0000000026848,0.660690966545672
23299.9999999414,18.6440766696259,1.00000000292539,0.674140438046403
23399.99999994,18.7260701478217,1.00000000285272,0.680008239372306
23499.9999999385,18.7984049013441,1.00000000309334,0.679225787880644
23599.9999999371,18.863053394583,1.00000000300479,0.663757364031619
23699.9999999356,18.9150453446366,1.00000000286489,0.656780089307847
23799.9999999342,18.9657491672559,1.00000000261742,0.657020387688175
23899.9999999327,19.0165503180172,1.00000000299106,0.668431348636979
23999.9999999312,19.0702622857064,1.00000000290691,0.652650988182554
24099.9999999298,19.1267469357609,1.0000000030332,0.669497337446618
24199.9999999283,19.1709282808063,1.00000000322294,0.679734119813527
24299.9999999269,19.2083667624572,1.00000000293363,0.673359105701918
24399.9999999254,19.2486898940691,1.00000000301183,0.664891954060803
24499.999999924,19.299395302218,1.00000000279094,0.649068997205402
24599.9999999225,19.357616169254,1.00000000314092,0.668965778361
24699.9999999211,19.4077837248515,1.00000000325668,0.675874761347016
24799.9999999196,19.4564145547311,1.0000000031485,0.66591753203502
24899.9999999181,19.5043678538544,1.00000000295673,0.655423915713122
24999.9999999167,19.5641799486262,1.00000000276143,0.645655007960192
25099.9999999152,19.6221743062746,1.00000000312268,0.682551411983758
25199.9999999138,19.6700002523132,1.00000000331693,0.685625535665081
25299.9999999123,19.7234934301691,1.00000000277176,0.662145642399544
25399.9999999109,19.7804848649208,1.00000000299235,0.677337730842272
25499.9999999094,19.8354035220341,1.00000000301865,0.693702828583513
25599.999999908,19.8885320642326,1.00000000293907,0.692610743781341
25699.9999999065,19.9337401998371,1.00000000284522,0.696093108153708
25799.9999999051,19.9837309256836,1.00000000279478,0.680734920430599
25899.9999999036,20.0408089827551,1.00000000335753,0.688845684031788
25999.9999999021,20.090983887666,1.00000000302142,0.678448540954027
26099.9999999007,20.1331246912402,1.00000000304179,0.666751981488603
26199.9999998992,20.182550746472,1.00000000280469,0.642355319942673
26299.9999998978,20.2405725528817,1.00000000303537,0.657684447735605
26399.9999998963,20.3000143457094,1.00000000302205,0.661996231255859
26499.9999998949,20.3556596127281,1.00000000313229,0.671580130319401
26599.9999998934,20.4050195088174,1.0000000028269,0.666365279538216
26699.999999892,20.4511250176409,1.00000000324927,0.672248550339208
26799.9999998905,20.4916164544725,1.00000000357944,0.666814737217509
26899.999999889,20.5354447524198,1.00000000315442,0.653194370199878
26999.9999998876,20.5761300490274,1.00000000322278,0.655708477459743
27099.9999998861,20.6136526890155,1.00000000339557,0.65526199275162
27199.9999998847,20.6441127740373,1.00000000343067,0.667042943200145
27299.9999998832,20.6724771919653,1.0000000033987,0.660435517504186
27399.9999998818,20.7086650793399,1.00000000294163,0.648959073377615
27499.9999998803,20.7542008923919,1.00000000314232,0.652458955985086
27599.9999998789,20.8005153267806,1.00000000313045,0.656394566259702
27699.9999998774,20.8483804236524,1.00000000332043,0.661978830074771
27799.9999998759,20.9044279994429,1.00000000324651,0.665865204674653
27899.9999998745,20.96575149179,1.00000000309111,0.647737875391606
27999.999999873,21.03918119837,1.00000000305876,0.644716830878674
28099.9999998716,21.1140583177669,1.00000000340709,0.655669332625139
28199.9999998701,21.1875690366687,1.00000000315159,0.674896967184345
28299.9999998687,21.2635171976209,1.00000000326222,0.6640532691859
28399.9999998672,21.3532855526132,1.0000000031658,0.665547011572985
28499.9999998658,21.4448197874589,1.00000000308952,0.684259132824061
28599.9999998643,21.5350155701616,1.00000000285002,0.682230760235829
28699.9999998629,21.6243085319233,1.00000000341911,0.665489780281717
28799.9999998614,21.7105592559382,1.00000000314696,0.666566066919671
28899.9999998599,21.7996400538557,1.00000000303587,0.67345522032459
28999.9999998585,21.8810334203407,1.00000000334085,0.671637153632559
29099.999999857,21.9538756869115,1.00000000324658,0.672501473037522
