Time,AGPnorm,Energy,Entropy
0,0,1,1.06780883460495e-18
99.9999999999986,0.00877776335679392,0.999999999999592,0.02507999963799
199.999999999993,0.024039611310204,1.00000000000088,0.0737324138156721
300,0.0471527150619083,1.00000000000154,0.148581291083262
400.000000000022,0.0702959693698995,1.00000000018901,0.265158623711075
500.000000000045,0.12952494098974,1.0000000012965,0.409357346614066
600.000000000068,0.56413414648845,1.00000000267172,0.508842044731868
700.000000000091,1.73831445060692,1.00000000340026,0.560388731218438
800.000000000113,3.66162589476932,1.00000000351994,0.584186175953737
900.000000000136,6.14102548651676,1.00000000367868,0.58826950845474
1000.00000000016,8.70356990699519,1.00000000324436,0.586252062338439
1100.0000000001,11.1118143242937,1.00000000280211,0.578603272360082
1200,13.083030740184,1.00000000256047,0.567187477139457
1299.99999999991,14.552695221714,1.00000000253184,0.560986856811667
1399.99999999982,15.4928569686033,1.0000000022117,0.550587872024906
1499.99999999973,15.966615945138,1.0000000018663,0.534149135795219
1599.99999999964,16.0795230518094,1.00000000217304,0.56555169621392
1699.99999999955,15.8666882353518,1.00000000193502,0.538160897847033
1799.99999999946,15.5638384745869,1.00000000171826,0.500087930060085
1899.99999999937,15.0784055122377,1.00000000245846,0.559111536859149
1999.99999999928,14.6259313338022,1.00000000167479,0.475760889821878
2099.99999999919,14.0728755015378,1.00000000201606,0.492032280975482
2199.99999999909,13.5762311465296,1.00000000264275,0.553275813601293
2299.999999999,13.0860225751585,1.00000000122242,0.392417377854764
2399.99999999891,12.5753531381582,1.00000000247989,0.520307664488626
2499.99999999882,12.1141889281164,1.00000000262537,0.555658426811764
2599.99999999873,11.6921542858925,1.0000000012029,0.404574010415966
2699.99999999864,11.2893275844843,1.00000000200024,0.476056247706657
2799.99999999855,10.8957830872406,1.00000000220821,0.527814699877995
2899.99999999846,10.5240526736327,1.00000000268403,0.558296987213435
2999.99999999837,10.1918989415185,1.00000000136986,0.45353897979462
3099.99999999828,9.93280599596098,1.0000000015136,0.414874682399352
3199.99999999819,9.67147699552983,1.00000000237173,0.525129246114747
3299.99999999809,9.41671674804671,1.00000000193037,0.522893891013509
3399.999999998,9.1678774966595,1.00000000245169,0.535960973262207
3499.99999999791,8.91287037634373,1.0000000026141,0.559942540950469
3599.99999999782,8.6968826492055,1.00000000141406,0.464660050201161
3699.99999999773,8.57001759207188,1.00000000158427,0.430359405795755
3799.99999999764,8.47121261254198,1.00000000236034,0.504847900312779
3899.99999999755,8.35223784850216,1.00000000218167,0.530587940478642
3999.99999999746,8.230431232437,1.00000000237215,0.553314730209658
4099.99999999738,8.09459923403615,1.00000000213878,0.574410634265583
4199.99999999775,7.95392753220014,1.00000000196671,0.55568609720749
4299.99999999811,7.80317686204979,1.00000000260385,0.562562101505846
4399.99999999848,7.64373910258459,1.00000000250592,0.568778575672308
4499.99999999884,7.52266378289659,1.00000000150888,0.48633130627681
4599.9999999992,7.50030534774262,1.00000000132363,0.440367243146449
4699.99999999957,7.53066789276541,1.00000000219234,0.483606211107596
4799.99999999993,7.54492866831755,1.00000000221263,0.523795684383028
4900.00000000029,7.53716093299232,1.00000000226133,0.56146014691728
5000.00000000066,7.51056492244473,1.00000000219098,0.575112736263591
5100.00000000102,7.4737836520867,1.00000000208308,0.583641635870745
5200.00000000139,7.4313159705963,1.00000000215654,0.582826667375933
5300.00000000175,7.37342862659971,1.00000000235876,0.570297017220312
5400.00000000211,7.29919551350466,1.00000000230967,0.589154835097754
5500.00000000248,7.2220444517239,1.00000000198193,0.594739684353667
5600.00000000284,7.14010153428598,1.00000000214649,0.591571639117095
5700.00000000321,7.04813871394061,1.00000000261585,0.604843885590902
5800.00000000357,6.9488736713412,1.00000000275722,0.58806583454237
5900.00000000393,6.8474166460863,1.00000000225531,0.567527387964152
6000.0000000043,6.78101091509747,1.00000000156402,0.505910761743755
6100.00000000466,6.80299805342936,1.00000000134353,0.460545953325039
6200.00000000502,6.90648577109454,1.00000000185189,0.481389893918859
6300.00000000539,7.02055938150249,1.00000000252006,0.52346990438327
6400.00000000575,7.11611046541873,1.00000000239778,0.548138544099684
6500.00000000612,7.1933607582826,1.00000000226839,0.56980625026794
6600.00000000648,7.2534653220572,1.00000000216104,0.595147915089691
6700.00000000684,7.28955125264716,1.0000000023051,0.612833433454461
6800.00000000721,7.30796436365864,1.00000000227717,0.626901235683936
6900.00000000757,7.30786117034184,1.00000000240062,0.62951462223295
7000.00000000793,7.29059176089184,1.00000000238666,0.630390772886327
7100.0000000083,7.26652155650326,1.00000000204911,0.617446093509079
7200.00000000866,7.24692108920584,1.0000000020508,0.613764573544711
7300.00000000903,7.23252190490247,1.00000000233403,0.600762936019514
7400.00000000939,7.20159216607055,1.00000000242132,0.611169042509242
7500.00000000975,7.16792417763153,1.00000000225569,0.61579669048231
7600.00000001012,7.14032687744993,1.00000000215305,0.627436205655592
7700.00000001048,7.10588988937043,1.00000000227508,0.634058804740689
7800.00000001084,7.06888289496555,1.00000000233137,0.62951390607238
7900.00000001121,7.02892091560152,1.00000000234275,0.608052221628211
8000.00000001157,6.98560729238681,1.00000000256448,0.621422754684296
8100.00000001194,6.93050820572861,1.00000000226609,0.643422548242649
8200.0000000123,6.86897177422809,1.00000000241768,0.640218892074093
8300.00000001266,6.80579332221081,1.00000000204235,0.639532215258483
8400.00000001303,6.74180774471501,1.00000000239462,0.647808914864847
8500.00000001339,6.6771589716606,1.00000000261649,0.652251158619794
8600.00000001376,6.61384768808228,1.00000000270033,0.668276003011985
8700.00000001412,6.55166705700093,1.00000000260439,0.654118090850133
8800.00000001448,6.48539854570639,1.00000000260608,0.630716354898362
8900.00000001485,6.41810313248073,1.00000000216712,0.589018502801116
9000.00000001521,6.37569554217037,1.00000000154605,0.534716466895155
9100.00000001557,6.39542748033214,1.00000000153056,0.497472294294028
9200.00000001594,6.49861314016241,1.00000000171431,0.488613878930121
9300.0000000163,6.66389335319099,1.00000000197687,0.5010327477855
9400.00000001667,6.84567457013943,1.00000000244719,0.527229090702589
9500.00000001703,7.02104514057801,1.00000000258164,0.540835932122037
9600.00000001739,7.1774048665724,1.00000000240148,0.557562830405957
9700.00000001776,7.32028711206248,1.00000000270352,0.571782302349709
9800.00000001812,7.44372780844178,1.00000000240391,0.580502893426227
9900.00000001848,7.5560832186528,1.0000000025291,0.601164813252988
10000.0000000188,7.64895302190729,1.00000000249266,0.617186736100232
10100.0000000192,7.72590284977913,1.00000000261355,0.622151578240786
10200.0000000196,7.78590094156389,1.00000000245531,0.608828544179849
10300.0000000199,7.83114568653449,1.00000000255232,0.64094058427073
10400.0000000203,7.85985057214705,1.00000000238116,0.65175772704563
10500.0000000207,7.87903355918284,1.00000000257177,0.65385261302918
10600.000000021,7.89520456348402,1.00000000251334,0.643201165070479
10700.0000000214,7.9130503068941,1.0000000026178,0.646764386382802
10800.0000000218,7.92089414383829,1.00000000262164,0.653529486842141
10900.0000000221,7.92896924827099,1.00000000271566,0.660189245664508
11000.0000000225,7.92790050272957,1.00000000281949,0.660277640272821
11100.0000000229,7.92101964636623,1.00000000235051,0.656884839324753
11200.0000000232,7.91234123362123,1.00000000288558,0.65941488758357
11300.0000000236,7.89763718478721,1.0000000027455,0.660041838523728
11400.0000000239,7.87858974111072,1.00000000270413,0.672651429155513
11500.0000000243,7.85546933397662,1.00000000258642,0.662450663455083
11600.0000000247,7.83115160599302,1.00000000271248,0.660911331223481
11700.000000025,7.80797249237063,1.00000000283829,0.651446757250919
11800.0000000254,7.78872851800731,1.0000000031807,0.634792546861244
11900.0000000258,7.77905807733166,1.00000000269773,0.618738202309908
12000.0000000261,7.78328710701596,1.00000000256261,0.620281380277015
12100.0000000265,7.7980239001294,1.00000000258832,0.641592643385936
12200.0000000269,7.81258116336255,1.0000000026714,0.634132676722105
12300.0000000272,7.82367305966321,1.00000000315476,0.64060550000675
12400.0000000276,7.82770325087253,1.00000000260169,0.629114016292739
12500.0000000279,7.8385517024249,1.00000000269001,0.634034696792732
12600.0000000283,7.84616807625912,1.0000000028279,0.624631119382664
12700.0000000287,7.85169377995294,1.00000000273009,0.649530350111737
12800.000000029,7.86226044724621,1.00000000273452,0.653699092036309
12900.0000000294,7.87318666832451,1.00000000280061,0.662740200264887
13000.0000000298,7.8754888591463,1.00000000286147,0.654226449370047
13100.0000000301,7.87565644065097,1.00000000276722,0.653661077043717
13200.0000000305,7.88223678622424,1.00000000286194,0.653125429584223
13300.0000000309,7.89260425341791,1.00000000262602,0.649432054197507
13400.0000000312,7.91183773940533,1.00000000282612,0.653317534221406
13500.0000000316,7.92674109980164,1.00000000292549,0.651508235050474
13600.0000000319,7.93549251191246,1.00000000265517,0.650945944291174
13700.0000000323,7.94380785026472,1.00000000262067,0.664854776909891
13800.0000000327,7.95450881117507,1.00000000281901,0.669833846653968
13900.000000033,7.96155409283136,1.00000000278877,0.665171384195672
14000.0000000334,7.9718499629039,1.00000000291002,0.673396614050512
14100.0000000338,7.97654392222649,1.00000000333915,0.682366053227661
14200.0000000341,7.98042731897825,1.00000000277538,0.667524592856407
14300.0000000345,7.98694791485701,1.00000000304667,0.663066811408453
14400.0000000349,7.99032008026223,1.00000000283614,0.664500847096387
14500.0000000352,7.9922216489416,1.00000000269101,0.67656736624167
14600.0000000356,7.99556328423881,1.00000000289591,0.667047535807326
14700.0000000359,7.99640376249288,1.0000000032009,0.684865679130693
14800.0000000363,7.99125941767455,1.00000000295774,0.669222983189603
14900.0000000367,7.98733409317376,1.00000000275373,0.64846967069254
15000.000000037,7.98237494919906,1.00000000335184,0.667842968454481
15100.0000000374,7.97912121644293,1.00000000286592,0.663990937429547
15200.0000000378,7.97797492209466,1.00000000300319,0.668838638882186
15300.0000000381,7.97041722956552,1.00000000361707,0.685588304559203
15400.0000000385,7.95834465140049,1.00000000283078,0.66978401589531
15500.0000000389,7.9486063785922,1.00000000299298,0.661464879713775
15600.0000000392,7.93756125104852,1.00000000291646,0.667519407491696
15700.0000000396,7.9245085225079,1.00000000305537,0.673097759287259
15800.0000000399,7.90593841952437,1.00000000304665,0.680475517331251
15900.0000000403,7.88236223321741,1.00000000302087,0.66995218394998
16000.0000000407,7.85886752625908,1.00000000337641,0.675867538532643
16100.000000041,7.83071874434424,1.00000000320997,0.672015330821839
16200.0000000414,7.79904666091955,1.00000000323415,0.674605778394781
16300.0000000418,7.76427792502092,1.00000000325198,0.666533625896339
16400.0000000418,7.72688709537978,1.0000000030513,0.685797593962962
16500.0000000404,7.68929248902724,1.00000000313619,0.672827328135066
16600.0000000389,7.65064624975037,1.00000000286285,0.684978122672286
16700.0000000375,7.61177631466924,1.00000000300077,0.675322223705794
16800.000000036,7.57206945994594,1.00000000306022,0.669629422348286
16900.0000000346,7.53314884899605,1.00000000323385,0.666995231113518
17000.0000000331,7.49484318498283,1.00000000346784,0.662114755268869
17100.0000000317,7.45881856527899,1.00000000336402,0.675880361496415
17200.0000000302,7.42515789353238,1.0000000033889,0.679420701572981
17300.0000000287,7.39346967865111,1.00000000352786,0.685634158393832
17400.0000000273,7.36476976198453,1.00000000364608,0.687442202653673
17500.0000000258,7.333343999506,1.0000000035945,0.691179963076121
17600.0000000244,7.30172268327564,1.00000000316777,0.673497173585814
17700.0000000229,7.26420083464781,1.00000000313531,0.647279908285534
17800.0000000215,7.22525295930172,1.00000000304895,0.621297466285749
17900.00000002,7.1964346625406,1.00000000314564,0.599474101523436
18000.0000000186,7.18961948858862,1.00000000275302,0.58661110244904
18100.0000000171,7.22732510872895,1.00000000260902,0.562539734232241
18200.0000000156,7.32465136696358,1.00000000264126,0.542492627395503
18300.0000000142,7.50259424455258,1.00000000255453,0.534487755881466
18400.0000000127,7.7553412717123,1.00000000260769,0.533129051616849
18500.0000000113,8.09210398599998,1.00000000294384,0.538051612544729
18600.0000000098,8.46558174234335,1.000000003108,0.539435527223928
18700.0000000084,8.88929663142053,1.00000000300754,0.552416893779173
18800.0000000069,9.29776746231959,1.00000000346521,0.554328826505505
18900.0000000055,9.72872841064538,1.00000000355143,0.563453142250084
19000.000000004,10.1282918431226,1.00000000324468,0.57204070153955
19100.0000000026,10.5308053343972,1.00000000331534,0.579280605633095
19200.0000000011,10.9133741866744,1.00000000322111,0.591354437841854
19299.9999999996,11.281554771382,1.00000000345923,0.585617897336131
19399.9999999982,11.6455469382207,1.00000000322484,0.590257137020648
19499.9999999967,11.9920997351481,1.00000000337226,0.600750950876164
19599.9999999953,12.345427185055,1.00000000340676,0.601944980232813
19699.9999999938,12.673345872083,1.00000000326075,0.61642014041049
19799.9999999924,13.0003602046718,1.00000000290809,0.633227034936964
19899.9999999909,13.3150401052129,1.00000000345632,0.634540425458435
19999.9999999895,13.6081255420673,1.00000000342958,0.647552145398705
20099.999999988,13.8975312270557,1.00000000346706,0.65738785167209
20199.9999999865,14.159185221604,1.00000000368778,0.657543102897136
20299.9999999851,14.4160067210982,1.00000000375363,0.664337008688333
20399.9999999836,14.6460256424975,1.00000000368676,0.666190331318099
20499.9999999822,14.8612420562021,1.00000000376362,0.65714291873956
20599.9999999807,15.0562312945258,1.00000000340768,0.662142763595067
20699.9999999793,15.2441074848125,1.0000000031459,0.684053812607196
20799.9999999778,15.4283338729318,1.00000000361769,0.693080862448008
20899.9999999764,15.5924397072082,1.00000000349361,0.677553003228089
20999.9999999749,15.7542016582211,1.00000000363959,0.681648261628591
21099.9999999734,15.8948644829117,1.00000000388314,0.688518940719074
21199.999999972,16.0325041231351,1.00000000326664,0.688954972865756
21299.9999999705,16.170450071189,1.00000000342368,0.689649551777429
21399.9999999691,16.3051597394695,1.00000000340402,0.694622393580758
21499.9999999676,16.4305481153459,1.0000000036281,0.702208230832094
21599.9999999662,16.5438894861458,1.00000000369005,0.70088127800533
21699.9999999647,16.6592008105892,1.00000000341353,0.704146523616435
21799.9999999633,16.7738427490455,1.00000000326058,0.69510150577025
21899.9999999618,16.8954276900816,1.00000000343589,0.677304241681142
21999.9999999603,17.0112636690221,1.00000000362018,0.675789326796495
22099.9999999589,17.1187463762898,1.00000000349103,0.695040228519976
22199.9999999574,17.2229376142311,1.00000000360674,0.693121137933745
22299.999999956,17.320926314658,1.00000000344232,0.684691296755878
22399.9999999545,17.4293731555241,1.00000000326721,0.685016267964824
22499.9999999531,17.5411996728001,1.00000000373077,0.693155770502409
22599.9999999516,17.6431938828124,1.00000000424084,0.684305819512809
22699.9999999502,17.728703014593,1.00000000355205,0.679881424017927
22799.9999999487,17.8131119514336,1.00000000402046,0.696755444054364
22899.9999999473,17.9020939011439,1.0000000034385,0.691423665539373
22999.9999999458,17.9915492999362,1.0000000035795,0.695437473429876
23099.9999999443,18.0768241614866,1.00000000395882,0.684318809430112
23199.9999999429,18.1538894021522,1.0000000037209,0.68446667243297
23299.9999999414,18.2279764094421,1.00000000350045,0.683346554795333
23399.99999994,18.3091908556913,1.00000000377622,0.666536621326959
23499.9999999385,18.4016951682255,1.00000000362744,0.67385063791147
23599.9999999371,18.4883216455157,1.00000000444884,0.696175308743508
23699.9999999356,18.562494520099,1.00000000380648,0.683814844642946
23799.9999999342,18.6450547217075,1.00000000355481,0.669003744533914
23899.9999999327,18.7317817292253,1.00000000402388,0.685244194558021
23999.9999999312,18.8181742959763,1.00000000348696,0.689030022328676
24099.9999999298,18.900704190103,1.00000000350569,0.681966567156872
24199.9999999283,18.9870207172235,1.00000000350497,0.6730060910379
24299.9999999269,19.08372226727,1.00000000345007,0.677994574808937
24399.9999999254,19.1730893916757,1.00000000381677,0.681069101252544
24499.999999924,19.2563619004862,1.00000000383679,0.680846734984122
24599.9999999225,19.3363442783573,1.00000000384326,0.679763344410362
24699.9999999211,19.4193508912657,1.00000000329954,0.660071805361008
24799.9999999196,19.5081320432777,1.00000000387033,0.679640911376482
24899.9999999181,19.5944408654812,1.00000000373328,0.698600869464679
24999.9999999167,19.6721231391788,1.00000000368103,0.692464043772508
25099.9999999152,19.7578221673914,1.00000000325189,0.67014717473841
25199.9999999138,19.8519660660606,1.00000000380291,0.687808257519298
25299.9999999123,19.9392588977643,1.00000000411828,0.701165748380509
25399.9999999109,20.0261829302019,1.00000000384902,0.675945748995912
25499.9999999094,20.1168842226263,1.00000000358577,0.673130849808135
25599.999999908,20.2034365690491,1.00000000358588,0.670890222898482
25699.9999999065,20.2882987936033,1.00000000376309,0.672496395097807
25799.9999999051,20.3672099583189,1.00000000370374,0.671576098624114
25899.9999999036,20.4385212333425,1.00000000396542,0.684102689361855
25999.9999999021,20.5006086490719,1.00000000379317,0.675491444819464
26099.9999999007,20.560595894498,1.00000000355904,0.669327628648833
26199.9999998992,20.6206272913136,1.00000000393637,0.677323667346098
26299.9999998978,20.6803282277485,1.00000000395686,0.684865744427321
26399.9999998963,20.7465175951179,1.00000000367228,0.683648317264474
26499.9999998949,20.8245907994046,1.00000000310481,0.680917394620525
26599.9999998934,20.9150073104596,1.00000000360077,0.680981978031115
26699.999999892,21.0204311877843,1.00000000344921,0.676101823388325
26799.9999998905,21.144000348906,1.00000000372759,0.687913919029675
26899.999999889,21.2759506274746,1.00000000373429,0.680264905453457
26999.9999998876,21.4080566953107,1.00000000373625,0.683108234487248
27099.9999998861,21.5312960998733,1.00000000396562,0.689596923602871
27199.9999998847,21.649375818701,1.00000000367279,0.691926134616416
27299.9999998832,21.7579278139097,1.00000000399033,0.700235154562312
27399.9999998818,21.8606368763395,1.00000000381558,0.683612487477292
27499.9999998803,21.9708493315663,1.00000000394585,0.680207300990046
27599.9999998789,22.080327015259,1.00000000417116,0.690832873816005
27699.9999998774,22.1947089254433,1.00000000334489,0.670041517804613
27799.9999998759,22.3143665556409,1.00000000440458,0.684619429964271
27899.9999998745,22.4409634511376,1.00000000393256,0.681137140354982
27999.999999873,22.5654799457266,1.00000000364333,0.678804438852678
28099.9999998716,22.6898957909302,1.00000000378851,0.680686338564389
28199.9999998701,22.8100008654176,1.00000000438027,0.701126694126867
28299.9999998687,22.9238881348676,1.00000000422039,0.695660643026512
28399.9999998672,23.0354983662493,1.00000000411056,0.696808531120662
28499.9999998658,23.1433935115156,1.00000000404995,0.675557304681439
28599.9999998643,23.2497269794788,1.00000000386709,0.677088201139317
28699.9999998629,23.3545886187404,1.00000000404381,0.674924393091974
28799.9999998614,23.452169787692,1.00000000442367,0.701973417181613
28899.9999998599,23.5491902144881,1.00000000391212,0.686672614931786
28999.9999998585,23.6584018382155,1.00000000368293,0.68651783785029
29099.999999857,23.7695978163599,1.00000000443494,0.684398014280782
