Time,AGPnorm,Energy,Entropy
0,0,1,-1.14322283354894e-17
99.9999999999986,4.49439503228975e-05,0.999999999996557,0.00173585629441275
199.999999999993,0.0041056426809149,0.999999999999307,0.00285389977316704
300,0.00985910022850642,0.99999999999865,0.00485379623423656
400.000000000022,0.0137319320919774,0.999999999996967,0.00834695074387829
500.000000000045,0.0166934364667637,1.00000000000005,0.0111514731302514
600.000000000068,0.0236744742272906,0.999999999996985,0.0153346750271191
700.000000000091,0.0290944172255994,0.99999999999856,0.0197915744154121
800.000000000113,0.0370314800679735,0.99999999999939,0.0241235714239457
900.000000000136,0.0465578141935429,0.999999999996691,0.0296832170502517
1000.00000000016,0.0535306339539528,0.999999999999693,0.0349305196870289
1100.0000000001,0.063187001406452,0.999999999997665,0.040739162091598
1200,0.0740221457231433,0.999999999997917,0.0472817447376201
1299.99999999991,0.0850382116049506,0.999999999999829,0.0535838018191802
1399.99999999982,0.0969200484194043,0.999999999996701,0.0608442050232996
1499.99999999973,0.107303874175947,0.999999999999081,0.0682392333059754
1599.99999999964,0.119187651305971,0.999999999998482,0.0758618699546841
1699.99999999955,0.133055341640091,0.999999999997479,0.0845766146574363
1799.99999999946,0.145684649457341,0.999999999999857,0.0932296837952131
1899.99999999937,0.158390406726814,0.999999999996953,0.102714406372694
1999.99999999928,0.171007118724429,0.999999999998476,0.112916948505307
2099.99999999919,0.184365671040111,0.99999999999923,0.123508341302182
2199.99999999909,0.198896459992036,0.999999999997399,0.135733160702505
2299.999999999,0.211688425628067,1.00000000000012,0.148625446457032
2399.99999999891,0.224263677086286,0.999999999999792,0.162995393511087
2499.99999999882,0.237134394804373,1.000000000006,0.179640134528893
2599.99999999873,0.251493288260093,1.0000000000223,0.197598739756888
2699.99999999864,0.265282531908251,1.00000000004646,0.217759183458136
2799.99999999855,0.275714720065096,1.0000000000931,0.238378852446856
2899.99999999846,0.297108657074809,1.00000000015264,0.258948643148285
2999.99999999837,0.313614821467424,1.00000000021419,0.2801246228323
3099.99999999828,0.348519110015669,1.00000000030597,0.300124780879715
3199.99999999819,0.409171174823141,1.0000000003896,0.320120133457512
3299.99999999809,0.479542866509436,1.00000000047251,0.339384839851824
3399.999999998,0.621878787539614,1.00000000055871,0.357354763151669
3499.99999999791,0.810974367752941,1.00000000065443,0.375442039940391
3599.99999999782,1.07444204256324,1.00000000072453,0.392320857411391
3699.99999999773,1.46684489186365,1.00000000081834,0.407956522809326
3799.99999999764,1.94449894840057,1.00000000085148,0.423713569957703
3899.99999999755,2.58351533255469,1.00000000095349,0.437590809917851
3999.99999999746,3.38812126380711,1.00000000099949,0.45134998921489
4099.99999999738,4.33895438781251,1.00000000108879,0.464082734175217
4199.99999999775,5.51843171437259,1.00000000111618,0.475376202946164
4299.99999999811,6.8774873975641,1.00000000118587,0.486752250155632
4399.99999999848,8.44329322559949,1.0000000012258,0.496923062698628
4499.99999999884,10.2595939721696,1.00000000127547,0.506209079867446
4599.9999999992,12.2619140321414,1.0000000012597,0.515481279377127
4699.99999999957,14.5097031471898,1.0000000012827,0.523251541778688
4799.99999999993,16.983105642834,1.00000000135688,0.530654762129005
4900.00000000029,19.6446338828887,1.00000000127646,0.53821196597708
5000.00000000066,22.5527911248709,1.00000000133328,0.543907889175086
5100.00000000102,25.6397414478474,1.00000000134039,0.550207193873223
5200.00000000139,28.9128494306739,1.00000000137957,0.555420061854752
5300.00000000175,32.3886512378777,1.00000000134632,0.560246422159788
5400.00000000211,35.995240110274,1.0000000013384,0.565185486774796
5500.00000000248,39.7741556389736,1.00000000131685,0.568854015132179
5600.00000000284,43.6857407984036,1.00000000132082,0.572626706612096
5700.00000000321,47.6929271376358,1.00000000132199,0.5763472975283
5800.00000000357,51.8306769901922,1.00000000133779,0.578837336809017
5900.00000000393,56.0297053417782,1.00000000127156,0.582194018541784
6000.0000000043,60.3019720079803,1.00000000132117,0.584363244346313
6100.00000000466,64.6395705199257,1.00000000126954,0.586329990087593
6200.00000000502,68.9855272270551,1.00000000130385,0.588595867298514
6300.00000000539,73.3735132855695,1.00000000128133,0.590052774884312
6400.00000000575,77.7565031878416,1.00000000124724,0.591433021759649
6500.00000000612,82.1221609238156,1.00000000125645,0.592792119766089
6600.00000000648,86.4831107616452,1.00000000120679,0.593741577170858
6700.00000000684,90.7840005990923,1.00000000117853,0.595176788944524
6800.00000000721,95.0475360533879,1.00000000120158,0.595622269253389
6900.00000000757,99.2516819553568,1.00000000119598,0.59573516160906
7000.00000000793,103.371127901975,1.00000000113466,0.597008841861435
7100.0000000083,107.425544929149,1.00000000117387,0.596872115757568
7200.00000000866,111.373982434529,1.00000000113462,0.597139242698025
7300.00000000903,115.227867217704,1.00000000113742,0.597231948259822
7400.00000000939,118.982109358312,1.00000000110523,0.59705102624985
7500.00000000975,122.609164897942,1.000000001111,0.597663752571014
7600.00000001012,126.130210201738,1.00000000105504,0.597126850094784
7700.00000001048,129.519584997144,1.00000000105255,0.596851476118939
7800.00000001084,132.777722770237,1.00000000101548,0.597427782055853
7900.00000001121,135.914046386337,1.00000000099223,0.596090947582234
8000.00000001157,138.901518519357,1.00000000097255,0.597019381095153
8100.00000001194,141.762295240469,1.00000000099555,0.595664036393103
8200.0000000123,144.479079574502,1.00000000097582,0.595920254678748
8300.00000001266,147.053014250433,1.00000000093204,0.595033154497155
8400.00000001303,149.493262777923,1.00000000095451,0.59505217646338
8500.00000001339,151.783561568768,1.00000000093439,0.593804632121382
8600.00000001376,153.936390660677,1.00000000095355,0.594540065205235
8700.00000001412,155.949900277189,1.00000000090254,0.592557774298642
8800.00000001448,157.815730930008,1.00000000089293,0.59355109818586
8900.00000001485,159.553229050346,1.00000000085654,0.592001018172495
9000.00000001521,161.144359150277,1.00000000086873,0.592030466443667
9100.00000001557,162.605338159598,1.00000000085436,0.591686662293772
9200.00000001594,163.933417416604,1.00000000084691,0.590832846133659
9300.0000000163,165.126985024496,1.00000000083082,0.591257501614216
9400.00000001667,166.198096672202,1.00000000078559,0.58993059900605
9500.00000001703,167.140627845875,1.00000000079156,0.590797420980834
9600.00000001739,167.962480631771,1.00000000078695,0.589229013017584
9700.00000001776,168.667788066896,1.00000000077348,0.589640770637264
9800.00000001812,169.255775750262,1.0000000007531,0.589591143460625
9900.00000001848,169.737706588377,1.00000000075453,0.587479260995855
10000.0000000188,170.110031934552,1.00000000073842,0.588092077717439
10100.0000000192,170.382406810087,1.00000000071598,0.588994596441313
10200.0000000196,170.560848433441,1.0000000007284,0.58536479394692
10300.0000000199,170.642375763657,1.00000000074546,0.58634585682921
10400.0000000203,170.642412305252,1.00000000073752,0.588391920493493
10500.0000000207,170.560937415981,1.00000000072598,0.583717182412827
10600.000000021,170.398011153394,1.00000000069241,0.582669036328167
10700.0000000214,170.166838351142,1.00000000073977,0.587738266438725
10800.0000000218,169.871402388934,1.0000000007387,0.583208837688742
10900.0000000221,169.509415313333,1.00000000069007,0.575357671417568
11000.0000000225,169.084432594478,1.00000000076633,0.585892701369769
11100.0000000229,168.61491909362,1.00000000077051,0.585442453818488
11200.0000000232,168.093254227237,1.00000000067507,0.568238678749746
11300.0000000236,167.513120699724,1.00000000071838,0.579763985330823
11400.0000000239,166.90324404403,1.00000000083094,0.585922505901505
11500.0000000243,166.260785853256,1.00000000069203,0.572514860976366
11600.0000000247,165.570402689124,1.00000000065397,0.562225768598691
11700.000000025,164.848682558353,1.00000000081809,0.584369835400806
11800.0000000254,164.109297674699,1.00000000079788,0.579005592330684
11900.0000000258,163.345851018923,1.00000000069142,0.564028344846712
12000.0000000261,162.543220780663,1.00000000070376,0.560419828341362
12100.0000000265,161.722146649362,1.00000000086447,0.583957440800396
12200.0000000269,160.896638551198,1.00000000078752,0.573178552827089
12300.0000000272,160.051987957403,1.00000000069427,0.560235910944724
12400.0000000276,159.182797658732,1.00000000068424,0.554214845938806
12500.0000000279,158.300218958083,1.00000000083917,0.580101098745428
12600.0000000283,157.418378395934,1.00000000082421,0.571342580082232
12700.0000000287,156.531101665006,1.00000000070924,0.559086236216941
12800.000000029,155.624840007872,1.00000000070459,0.54895042588395
12900.0000000294,154.707799325244,1.00000000078364,0.564699960882834
13000.0000000298,153.794043239958,1.00000000091418,0.577336770479659
13100.0000000301,152.882768262557,1.00000000075255,0.554087028149023
13200.0000000305,151.966795947105,1.00000000072496,0.553695319817589
13300.0000000309,151.039579053743,1.00000000071089,0.545963840565501
13400.0000000312,150.111045853741,1.00000000083261,0.569511915819142
13500.0000000316,149.191686134397,1.00000000085716,0.566587793226027
13600.0000000319,148.274626462761,1.0000000007505,0.545061901301113
13700.0000000323,147.357902818449,1.00000000077912,0.553198183638658
13800.0000000327,146.436541268018,1.000000000723,0.545380647969833
13900.000000033,145.517510645548,1.00000000085067,0.561654695026006
14000.0000000334,144.607789061188,1.00000000085583,0.563269525720575
14100.0000000338,143.702930406416,1.00000000074621,0.539034189382938
14200.0000000341,142.801893991449,1.00000000077235,0.548243188802021
14300.0000000345,141.901897882897,1.0000000007779,0.551664314659291
14400.0000000349,141.005667153889,1.00000000078643,0.549113561072651
14500.0000000352,140.116447135736,1.00000000083936,0.555538882549016
14600.0000000356,139.234556456161,1.00000000082894,0.547020826507725
14700.0000000359,138.358733759446,1.00000000073273,0.532132483674203
14800.0000000363,137.487886646187,1.00000000080916,0.551309212937791
14900.0000000367,136.623188779305,1.00000000077566,0.554389418983416
15000.000000037,135.764710329533,1.00000000079008,0.544113120244422
15100.0000000374,134.912067270141,1.00000000079373,0.544357433471436
15200.0000000378,134.067384346113,1.00000000080579,0.541219770835048
15300.0000000381,133.229496946786,1.00000000075498,0.533212090561482
15400.0000000385,132.398764294829,1.00000000077844,0.54373451328734
15500.0000000389,131.576055663299,1.00000000081524,0.556461677482201
15600.0000000392,130.759894921999,1.00000000080501,0.548320281773957
15700.0000000396,129.951204064788,1.00000000073796,0.535589413579478
15800.0000000399,129.149363599854,1.00000000075091,0.534473001365427
15900.0000000403,128.354499399388,1.00000000083108,0.541988676828738
16000.0000000407,127.568256142774,1.00000000080148,0.536476986781762
16100.000000041,126.789903216426,1.00000000076616,0.544876941386143
16200.0000000414,126.020134468943,1.00000000080537,0.557237327498443
16300.0000000418,125.258065382537,1.00000000074391,0.546296739063731
16400.0000000418,124.5033061415,1.00000000071522,0.533233579620435
16500.0000000404,123.756456269314,1.00000000075446,0.53201243099035
16600.0000000389,123.017284621046,1.0000000007951,0.541568213395079
16700.0000000375,122.286317135632,1.00000000079132,0.542501729798808
16800.000000036,121.56392737827,1.00000000079121,0.541860438516878
16900.0000000346,120.84993319661,1.00000000080646,0.552697960797973
17000.0000000331,120.144690437838,1.00000000075572,0.551989489694142
17100.0000000317,119.447380847629,1.00000000073089,0.53795634418212
17200.0000000302,118.7583453014,1.00000000073135,0.534690731885884
17300.0000000287,118.077859013117,1.00000000072466,0.532641555125757
17400.0000000273,117.405732874747,1.00000000076679,0.540936678838148
17500.0000000258,116.741804620776,1.00000000078337,0.550709080371014
17600.0000000244,116.085696081245,1.00000000077936,0.546983074831369
17700.0000000229,115.437828261227,1.00000000080565,0.54956375437493
17800.0000000215,114.798459772568,1.00000000077354,0.55058283569373
17900.00000002,114.168221710754,1.00000000069523,0.540141698970294
18000.0000000186,113.547229201562,1.00000000072098,0.532109246223563
18100.0000000171,112.934744577214,1.00000000077694,0.533318210757945
18200.0000000156,112.330944255759,1.00000000075348,0.534259765487141
18300.0000000142,111.735493068419,1.00000000079914,0.544102065002343
18400.0000000127,111.146641195759,1.00000000079703,0.556010163425233
18500.0000000113,110.564678242531,1.00000000080624,0.549841691493477
18600.0000000098,109.989990344717,1.00000000080973,0.549594993838443
18700.0000000084,109.423284627826,1.00000000074253,0.547835201827817
18800.0000000069,108.866405376785,1.00000000070471,0.541100267412236
18900.0000000055,108.319875507082,1.00000000067789,0.527650278660374
19000.000000004,107.782907229418,1.00000000076545,0.528322181541222
19100.0000000026,107.254120181643,1.00000000078667,0.535164910229362
19200.0000000011,106.732160340286,1.00000000078022,0.53805244503868
19299.9999999996,106.217133358424,1.00000000078233,0.542218941759447
19399.9999999982,105.707034207726,1.0000000008131,0.555294889069336
19499.9999999967,105.201696295728,1.00000000081463,0.557183978021796
19599.9999999953,104.702245868544,1.00000000080755,0.547541891893541
19699.9999999938,104.209976570127,1.00000000075119,0.544631499887658
19799.9999999924,103.727874430655,1.00000000069605,0.535855132364073
19899.9999999909,103.256974092118,1.00000000068793,0.529588083452289
19999.9999999895,102.796433035271,1.00000000073954,0.525539601466895
20099.999999988,102.34408202061,1.00000000078523,0.529959251359295
20199.9999999865,101.897314553454,1.00000000082908,0.53462293472049
20299.9999999851,101.456495716603,1.00000000079908,0.531568952073345
20399.9999999836,101.020538119711,1.00000000083415,0.541858675653863
20499.9999999822,100.586619709922,1.00000000085385,0.554151277940774
20599.9999999807,100.154914615875,1.00000000084556,0.560164002152265
20699.9999999793,99.7274250372915,1.0000000008173,0.547455521796299
20799.9999999778,99.3067307081577,1.00000000077107,0.53737701395095
20899.9999999764,98.89517262566,1.00000000072629,0.5360935003735
20999.9999999749,98.4950068357891,1.00000000071683,0.531907247304121
21099.9999999734,98.1050153538091,1.00000000074043,0.532550467340148
21199.999999972,97.723394901279,1.00000000075736,0.528280519230802
21299.9999999705,97.3483423937872,1.0000000008184,0.527167718122302
21399.9999999691,96.9783798826792,1.00000000079795,0.53075851021498
21499.9999999676,96.6124814049958,1.00000000077612,0.53134540297927
21599.9999999662,96.2502850988211,1.00000000082562,0.537628354033571
21699.9999999647,95.8883060921546,1.00000000087769,0.545532766152541
21799.9999999633,95.5253579001323,1.00000000088165,0.553997474800752
21899.9999999618,95.1646929099763,1.0000000007712,0.553495127882384
21999.9999999603,94.8094442522216,1.0000000007712,0.540906122014926
22099.9999999589,94.4619097757342,1.00000000073781,0.534827907097985
22199.9999999574,94.1235693533126,1.00000000076672,0.541256273692871
22299.999999956,93.7944319687502,1.00000000071761,0.541108268620313
22399.9999999545,93.474619087566,1.00000000075188,0.53712393635032
22499.9999999531,93.1625263273078,1.00000000074218,0.538111489142984
22599.9999999516,92.8572513667972,1.0000000007789,0.530897686652509
22699.9999999502,92.5578356343231,1.00000000077697,0.533203270756027
22799.9999999487,92.2614378961182,1.00000000080655,0.53677896122401
22899.9999999473,91.9679625949518,1.00000000079235,0.538455718566338
22999.9999999458,91.6761438130132,1.00000000082987,0.543399880020498
23099.9999999443,91.3837785820218,1.00000000085261,0.541671250672437
23199.9999999429,91.0906544439842,1.00000000084606,0.546184623985146
23299.9999999414,90.7980703307227,1.00000000080681,0.55577966397723
23399.99999994,90.5096088874401,1.00000000075744,0.553174048994477
23499.9999999385,90.2278537191768,1.00000000073427,0.544608969735399
23599.9999999371,89.9534025313312,1.00000000073614,0.544795549704509
23699.9999999356,89.6867124317661,1.00000000075206,0.547001051210621
23799.9999999342,89.4283865655429,1.00000000072807,0.547715076891121
23899.9999999327,89.1790488365132,1.00000000073484,0.540959808519867
23999.9999999312,88.9373971838834,1.00000000076022,0.542894617695478
24099.9999999298,88.7007740826835,1.00000000078503,0.54665512924458
24199.9999999283,88.4682519374792,1.00000000076652,0.542952258133159
24299.9999999269,88.2397845517969,1.00000000075593,0.541817115829038
24399.9999999254,88.0140338552479,1.00000000079656,0.543691891845663
24499.999999924,87.7903475572706,1.0000000007938,0.543241671890494
24599.9999999225,87.5689940444903,1.00000000077183,0.541923673451957
24699.9999999211,87.347574999724,1.00000000085853,0.5453141802281
24799.9999999196,87.1240645222556,1.00000000086405,0.544213651735594
24899.9999999181,86.9002505531126,1.00000000080365,0.552500169950034
24999.9999999167,86.6773844680585,1.00000000082518,0.562664810381477
25099.9999999152,86.4569592208764,1.00000000077613,0.561421403809358
25199.9999999138,86.2413683596423,1.00000000076092,0.554401900073715
25299.9999999123,86.0324074282851,1.00000000073246,0.55274471701703
25399.9999999109,85.8304836761283,1.00000000074458,0.552374962929303
25499.9999999094,85.6370117224717,1.0000000007121,0.546206689359872
25599.999999908,85.452856050576,1.00000000072828,0.544414633134938
25699.9999999065,85.2762851847473,1.00000000075598,0.547174482359154
25799.9999999051,85.1032292423302,1.00000000081007,0.554777023901304
25899.9999999036,84.9311759648261,1.00000000085186,0.555556107406927
25999.9999999021,84.7600965779551,1.00000000082173,0.552113700546789
26099.9999999007,84.5917509380161,1.00000000073191,0.547877484456397
26199.9999998992,84.4268699671062,1.00000000077293,0.547205126936074
26299.9999998978,84.2640576138417,1.00000000077043,0.549757266697835
26399.9999998963,84.1039735019904,1.00000000077075,0.548260558767576
26499.9999998949,83.9454196932014,1.00000000083533,0.547392127600989
26599.9999998934,83.7849938907997,1.00000000088285,0.550839985132225
26699.999999892,83.6228183062282,1.00000000081861,0.550977362835662
26799.9999998905,83.4587601220746,1.0000000008447,0.564809861945441
26899.999999889,83.292482759904,1.00000000081551,0.573418543280678
26999.9999998876,83.1261424607686,1.00000000082953,0.575018000162745
27099.9999998861,82.9613872401296,1.0000000007764,0.567212870536036
27199.9999998847,82.8020925107488,1.00000000073728,0.554535738230276
27299.9999998832,82.650605525029,1.00000000074377,0.550593033598769
27399.9999998818,82.5070553021783,1.00000000073142,0.551041520413197
27499.9999998803,82.3722272311197,1.0000000007317,0.547813038720874
27599.9999998789,82.2437795907047,1.00000000078135,0.553131107350653
27699.9999998774,82.1196826707391,1.00000000080157,0.556276593726898
27799.9999998759,81.9980186420292,1.00000000082348,0.560660926536443
27899.9999998745,81.8761270959859,1.00000000083906,0.561578049352809
27999.999999873,81.753817736061,1.00000000080231,0.558900860925934
28099.9999998716,81.632636091471,1.0000000007819,0.555859553531329
28199.9999998701,81.514628414133,1.00000000077891,0.555008568844857
28299.9999998687,81.3982948461368,1.00000000079243,0.55570589484879
28399.9999998672,81.28287671107,1.00000000079553,0.558481191859723
28499.9999998658,81.1689958798304,1.00000000077231,0.559373508793758
28599.9999998643,81.05763844347,1.0000000007747,0.555451145495772
28699.9999998629,80.9469504149172,1.00000000084347,0.560750542187857
28799.9999998614,80.833713718214,1.00000000082046,0.568224030300935
28899.9999998599,80.7168424871833,1.00000000089189,0.574804270421816
