Time,AGPnorm,Energy,Entropy
0,0,1,-1.25334061961758e-17
99.9999999999986,3.56887362466183e-05,0.999999999996866,0.00144010505807061
199.999999999993,0.00343559554978341,0.999999999996667,0.00244025424364101
300,0.00827283761478776,1.00000000000019,0.00414578377505859
400.000000000022,0.0116305323673532,0.999999999995037,0.00709545913693585
500.000000000045,0.0140222877294808,0.99999999999928,0.00969091497850613
600.000000000068,0.0197335377353925,0.999999999997912,0.0131850486737121
700.000000000091,0.0246380973469115,0.99999999999579,0.0171332167107993
800.000000000113,0.0313064760329966,1.00000000000054,0.0209617750068038
900.000000000136,0.0392301576796685,0.999999999995438,0.0256455848454957
1000.00000000016,0.0452069743216025,0.999999999998239,0.0304300895703179
1100.0000000001,0.0536448600850084,0.999999999998988,0.0353350859682728
1200,0.0634474555586487,0.999999999995287,0.0410304995524386
1299.99999999991,0.0725555525523724,1.00000000000036,0.0466232841571246
1399.99999999982,0.0824440320820101,0.999999999996155,0.0526721313615291
1499.99999999973,0.0918313313484868,0.999999999997178,0.0592358603273691
1599.99999999964,0.102707619717877,0.9999999999999,0.0656937935557548
1699.99999999955,0.115130725282653,0.999999999995164,0.0730491994624622
1799.99999999946,0.125748911941639,0.999999999999659,0.0805443661413796
1899.99999999937,0.13678344598474,0.999999999997109,0.088230970363661
1999.99999999928,0.148759346534617,0.999999999996381,0.0968611839288128
2099.99999999919,0.161075354361702,1.00000000000042,0.105530760441909
2199.99999999909,0.173988582575118,0.999999999995391,0.115166209221923
2299.999999999,0.185230453721848,0.99999999999872,0.125435086538238
2399.99999999891,0.196908224613447,0.999999999998309,0.136058152791488
2499.99999999882,0.21004362034009,0.999999999996459,0.148395584488587
2599.99999999873,0.222662482963912,1.00000000000216,0.161552024023824
2699.99999999864,0.234707304200001,1.00000000000153,0.176335501539703
2799.99999999855,0.245394906366331,1.00000000001375,0.192923636414045
2899.99999999846,0.25897608697234,1.00000000003294,0.210340101386012
2999.99999999837,0.270485584730608,1.00000000006085,0.229496119669866
3099.99999999828,0.285017108467536,1.00000000010976,0.248672130097847
3199.99999999819,0.305567811999879,1.00000000015261,0.267616389902895
3299.99999999809,0.324464375388518,1.00000000020972,0.286804997770802
3399.999999998,0.370607044325987,1.00000000029545,0.304856772630132
3499.99999999791,0.431929096538867,1.0000000003562,0.323150987378065
3599.99999999782,0.520824517680474,1.0000000004298,0.340738979069378
3699.99999999773,0.674531218351624,1.00000000049342,0.356975991944742
3799.99999999764,0.871487363564744,1.00000000054746,0.373748047275554
3899.99999999755,1.15652241281651,1.00000000064523,0.388839268191612
3999.99999999746,1.55141820853039,1.00000000068751,0.403575302736067
4099.99999999738,2.03786679395282,1.00000000073599,0.41804535844362
4199.99999999775,2.68438002116199,1.00000000077353,0.430704054708968
4299.99999999811,3.47795397964417,1.00000000084146,0.443748086952422
4399.99999999848,4.42222527278009,1.00000000088692,0.455767256388289
4499.99999999884,5.58828981496259,1.00000000095673,0.466249951423683
4599.9999999992,6.92077737237427,1.00000000098173,0.477417888598281
4699.99999999957,8.46668989622091,1.00000000097683,0.486981295998797
4799.99999999993,10.2551973781438,1.00000000101678,0.496101674568285
4900.00000000029,12.2206703286276,1.00000000105891,0.50501068511824
5000.00000000066,14.4523474130774,1.00000000109457,0.512232872754511
5100.00000000102,16.8980983444579,1.0000000011158,0.520189559113376
5200.00000000139,19.5402040598148,1.00000000112131,0.527121849906031
5300.00000000175,22.4549814027745,1.00000000113837,0.532982197701228
5400.00000000211,25.5344394538612,1.00000000112212,0.539512566561064
5500.00000000248,28.8406939751221,1.00000000113814,0.544439350136561
5600.00000000284,32.3632520330978,1.00000000115079,0.549555751776236
5700.00000000321,36.0190240536287,1.00000000114151,0.554652504932883
5800.00000000357,39.9055129300917,1.00000000113135,0.558198970720418
5900.00000000393,43.9203254046188,1.000000001153,0.562631501726361
6000.0000000043,48.0725590035381,1.00000000115222,0.565989688940562
6100.00000000466,52.3996551098854,1.00000000111817,0.569038415610959
6200.00000000502,56.7859251671076,1.00000000113288,0.572623896621395
6300.00000000539,61.3151714451837,1.00000000108059,0.57480078049135
6400.00000000575,65.9241095715104,1.00000000112914,0.577351909713711
6500.00000000612,70.5716467051221,1.00000000114211,0.579817257504538
6600.00000000648,75.3246979433101,1.00000000113692,0.581164022628082
6700.00000000684,80.0708646699398,1.00000000110652,0.583575407290301
6800.00000000721,84.862339424681,1.00000000111542,0.584671016378254
6900.00000000757,89.6787249655645,1.00000000107344,0.586150456765722
7000.00000000793,94.4509976981013,1.0000000010814,0.58790468847879
7100.0000000083,99.2512293267966,1.00000000106445,0.588120701864201
7200.00000000866,103.993592710543,1.00000000104564,0.589276399089747
7300.00000000903,108.696022233975,1.00000000102019,0.590161624912196
7400.00000000939,113.370902830054,1.00000000104867,0.590619211724786
7500.00000000975,117.942648666393,1.00000000101838,0.591502931277698
7600.00000001012,122.47510236016,1.00000000099738,0.591153487011284
7700.00000001048,126.911527003655,1.00000000094023,0.591974127823205
7800.00000001084,131.246484361015,1.00000000099107,0.592412661394651
7900.00000001121,135.509683460463,1.00000000095518,0.591771031199612
8000.00000001157,139.63555428823,1.00000000094786,0.592368393142743
8100.00000001194,143.669324631675,1.00000000093037,0.59243070345362
8200.0000000123,147.584662268246,1.00000000093917,0.591790558923653
8300.00000001266,151.359694376249,1.00000000090236,0.592485395366485
8400.00000001303,155.034881863077,1.0000000008981,0.591274265296036
8500.00000001339,158.552643464601,1.00000000090049,0.591768513353187
8600.00000001376,161.951064188253,1.00000000086012,0.591217489962909
8700.00000001412,165.21418733097,1.00000000085016,0.59046467489815
8800.00000001448,168.323471289154,1.00000000085345,0.591121699420603
8900.00000001485,171.310057529856,1.00000000083434,0.589361404787707
9000.00000001521,174.140099065589,1.00000000082552,0.59027268764766
9100.00000001557,176.830874355508,1.00000000079387,0.588838809162669
9200.00000001594,179.386785632744,1.00000000080161,0.589151691905807
9300.0000000163,181.783061427255,1.00000000077502,0.587857913950571
9400.00000001667,184.052240634855,1.00000000079381,0.588351266137961
9500.00000001703,186.170345763095,1.00000000075581,0.586696533714632
9600.00000001739,188.146541900974,1.00000000074946,0.587445658511238
9700.00000001776,189.993110926746,1.00000000073442,0.586418652428522
9800.00000001812,191.68659786896,1.00000000072215,0.586081676419449
9900.00000001848,193.256705541355,1.00000000071651,0.586422354595068
10000.0000000188,194.687348236857,1.00000000071154,0.585127537293557
10100.0000000192,195.984617616377,1.00000000071563,0.586091102864543
10200.0000000196,197.161974763019,1.00000000069401,0.585182594161612
10300.0000000199,198.202906236343,1.00000000067657,0.58435703753887
10400.0000000203,199.128603711049,1.00000000069699,0.584458328740433
10500.0000000207,199.932921236017,1.0000000006896,0.584909001966793
10600.000000021,200.617964050315,1.00000000065174,0.582247631962229
10700.0000000214,201.193849303739,1.00000000064267,0.583764153051172
10800.0000000218,201.655576453198,1.00000000064842,0.586184153218889
10900.0000000221,202.019167657628,1.00000000064178,0.57945553253517
11000.0000000225,202.273549613496,1.00000000060779,0.581816699375706
11100.0000000229,202.432831666589,1.00000000065373,0.587575598023925
11200.0000000232,202.510895080234,1.00000000060286,0.578386378928784
11300.0000000236,202.485975666963,1.00000000060183,0.576157973878599
11400.0000000239,202.383359809176,1.0000000006489,0.585254687314914
11500.0000000243,202.211411516551,1.00000000063072,0.580811703076571
11600.0000000247,201.959638335405,1.00000000059012,0.572257413870684
11700.000000025,201.63469131168,1.00000000059469,0.576052711293791
11800.0000000254,201.24417628064,1.00000000068816,0.583291250878244
11900.0000000258,200.804435929036,1.00000000063613,0.578179593870795
12000.0000000261,200.303534830124,1.00000000054547,0.565402559352128
12100.0000000265,199.736035847541,1.00000000058084,0.572086578508455
12200.0000000269,199.131696498508,1.00000000067842,0.584094126173541
12300.0000000272,198.49251613522,1.00000000065499,0.574348682272945
12400.0000000276,197.806664976547,1.00000000054058,0.557168564714981
12500.0000000279,197.066127641644,1.00000000059673,0.566070421933031
12600.0000000283,196.297149628429,1.00000000072797,0.585696012540669
12700.0000000287,195.51595494072,1.00000000066125,0.573250702943159
12800.000000029,194.698580708881,1.00000000054216,0.55348140902868
12900.0000000294,193.837614363585,1.00000000054734,0.55281686250132
13000.0000000298,192.954479839932,1.00000000073016,0.582129500361681
13100.0000000301,192.066142575431,1.00000000074397,0.577042421374227
13200.0000000305,191.167355399857,1.00000000061842,0.556989110231144
13300.0000000309,190.233894609349,1.00000000052376,0.541834974105699
13400.0000000312,189.273699277423,1.00000000064018,0.560049610919806
13500.0000000316,188.310688497412,1.00000000079838,0.583385803597342
13600.0000000319,187.352472215156,1.00000000071998,0.566072330356065
13700.0000000323,186.385854803004,1.00000000058941,0.548203555501378
13800.0000000327,185.394140678939,1.00000000054463,0.535945165079297
13900.000000033,184.385789631716,1.0000000006462,0.555843836460945
14000.0000000334,183.381999316998,1.00000000081164,0.582710248755492
14100.0000000338,182.388680756101,1.00000000073723,0.560717009931112
14200.0000000341,181.393571490162,1.00000000060098,0.543247697773404
14300.0000000345,180.383427397098,1.00000000055509,0.533743614282261
14400.0000000349,179.360167422217,1.00000000061217,0.541963532561464
14500.0000000352,178.340534021241,1.00000000078078,0.57411330789473
14600.0000000356,177.334025649279,1.00000000080888,0.568791440954194
14700.0000000359,176.334646332449,1.00000000064041,0.537291300481362
14800.0000000363,175.330393586372,1.00000000062917,0.536167970653901
14900.0000000367,174.318314944924,1.00000000058643,0.533353599831863
15000.000000037,173.304913212407,1.00000000069605,0.547108072498862
15100.0000000374,172.298395333091,1.00000000078456,0.57136968063798
15200.0000000378,171.306185362899,1.00000000076553,0.554863619826896
15300.0000000381,170.319908278972,1.00000000062108,0.531154959541411
15400.0000000385,169.332772039268,1.00000000060234,0.533528007056674
15500.0000000389,168.345712479292,1.00000000063849,0.536598703512657
15600.0000000392,167.358905806779,1.00000000067346,0.540096528901882
15700.0000000396,166.380247212722,1.00000000076643,0.55723101116456
15800.0000000399,165.413120344702,1.0000000007509,0.553517007093652
15900.0000000403,164.453557511953,1.00000000071351,0.533903286425968
16000.0000000407,163.500320813052,1.00000000062704,0.52819371030115
16100.000000041,162.54890413494,1.00000000065815,0.538577522003502
16200.0000000414,161.602240996999,1.00000000064859,0.540508045302233
16300.0000000418,160.661560849506,1.00000000066666,0.536749784617781
16400.0000000418,159.728119020748,1.00000000073741,0.544914989467528
16500.0000000404,158.804667224142,1.00000000074418,0.545533647862595
16600.0000000389,157.889330225698,1.00000000069389,0.529993853147647
16700.0000000375,156.980963548233,1.00000000061418,0.528502716068466
16800.000000036,156.079409547692,1.00000000065492,0.541643978842328
16900.0000000346,155.18374419694,1.00000000063652,0.542131233076546
17000.0000000331,154.295479937209,1.00000000068817,0.533232970506056
17100.0000000317,153.414224264233,1.00000000065698,0.530538856514116
17200.0000000302,152.540860073916,1.00000000071788,0.537871033653112
17300.0000000287,151.676487007778,1.00000000071387,0.538195032144109
17400.0000000273,150.819906844793,1.00000000067095,0.532932131179983
17500.0000000258,149.972059201125,1.00000000067383,0.534766029664163
17600.0000000244,149.132101417912,1.00000000063513,0.543618598909933
17700.0000000229,148.29990198451,1.00000000064362,0.541503599315245
17800.0000000215,147.475500278778,1.00000000063213,0.531280589515346
17900.00000002,146.658555578033,1.00000000065139,0.525396420813246
18000.0000000186,145.850006989273,1.00000000066205,0.529202174148998
18100.0000000171,145.050062985383,1.00000000068432,0.538008190378386
18200.0000000156,144.258161156075,1.00000000069295,0.542532783991144
18300.0000000142,143.474969741653,1.00000000066682,0.536077562190975
18400.0000000127,142.700182495988,1.00000000066118,0.541959989084379
18500.0000000113,141.934334996019,1.00000000067203,0.547054155058853
18600.0000000098,141.176908584928,1.00000000062394,0.537315187152664
18700.0000000084,140.428071843496,1.00000000061989,0.526708067555457
18800.0000000069,139.688193483714,1.00000000061159,0.522075935272132
18900.0000000055,138.956945303325,1.00000000067046,0.529856551067755
19000.000000004,138.234005576144,1.00000000068204,0.537149401764115
19100.0000000026,137.519270151549,1.00000000068369,0.546018992212822
19200.0000000011,136.812218407536,1.00000000064861,0.542888939955877
19299.9999999996,136.113293707908,1.00000000069188,0.542327273279538
19399.9999999982,135.422489763346,1.00000000067984,0.547044681119745
19499.9999999967,134.740588153765,1.00000000066514,0.544463262790667
19599.9999999953,134.068673886574,1.00000000055795,0.527910064025317
19699.9999999938,133.407063997615,1.00000000059525,0.519885233299986
19799.9999999924,132.754663844907,1.00000000068215,0.52352752469531
19899.9999999909,132.110515449698,1.00000000069548,0.529165045610214
19999.9999999895,131.473679256605,1.00000000066056,0.53319242794875
20099.999999988,130.844443464903,1.000000000688,0.540782742204855
20199.9999999865,130.221833767631,1.00000000066604,0.54801628310677
20299.9999999851,129.605940561249,1.00000000070252,0.545692067995877
20399.9999999836,128.996538968095,1.00000000072002,0.547485084303214
20499.9999999822,128.394614839631,1.00000000067768,0.544422706051233
20599.9999999807,127.8026825632,1.00000000059133,0.532840919748443
20699.9999999793,127.22251029304,1.00000000055335,0.521407563602285
20799.9999999778,126.653348122681,1.0000000005727,0.514715913273828
20899.9999999764,126.093309952244,1.00000000067268,0.520606156034214
20999.9999999749,125.53939689861,1.00000000070965,0.527806149490733
21099.9999999734,124.99220818609,1.00000000064871,0.522813667333028
21199.999999972,124.451735816494,1.00000000068652,0.532198008674266
21299.9999999705,123.91564025358,1.00000000070122,0.545564205152396
21399.9999999691,123.384237579955,1.00000000071224,0.551945657513181
21499.9999999676,122.857139265377,1.00000000072134,0.547317740205472
21599.9999999662,122.335459360761,1.00000000069924,0.54611545121324
21699.9999999647,121.82109234582,1.00000000069313,0.538689635994661
21799.9999999633,121.317447858904,1.00000000058078,0.526326171641141
21899.9999999618,120.826186555793,1.00000000057522,0.522851644381744
21999.9999999603,120.346062546903,1.00000000059305,0.515684158975969
22099.9999999589,119.874826522902,1.00000000066084,0.515866900084426
22199.9999999574,119.409802363748,1.00000000071348,0.519945109135764
22299.999999956,118.949706401579,1.00000000069703,0.519224389986638
22399.9999999545,118.494948929742,1.00000000069742,0.519669890388518
22499.9999999531,118.044175349036,1.0000000006686,0.529145230170748
22599.9999999516,117.595347065134,1.00000000072594,0.543564006580272
22699.9999999502,117.148405574975,1.00000000070675,0.552140490631494
22799.9999999487,116.704201715022,1.00000000069271,0.54867502876324
22899.9999999473,116.264833437497,1.00000000067768,0.537566182744269
22999.9999999458,115.83301436485,1.00000000060894,0.533903349368898
23099.9999999443,115.410314109299,1.00000000062639,0.531943714576115
23199.9999999429,114.998242636674,1.00000000060342,0.523813331012467
23299.9999999414,114.596908497882,1.00000000060949,0.525626047721999
23399.99999994,114.205246380069,1.00000000064342,0.51944680562602
23499.9999999385,113.822084209814,1.00000000065829,0.513996459621901
23599.9999999371,113.44494724925,1.00000000071354,0.515931087589334
23699.9999999356,113.072520665718,1.00000000069513,0.517801872893776
23799.9999999342,112.703162027143,1.00000000068286,0.520773781713237
23899.9999999327,112.335971248928,1.00000000070304,0.525979383212748
23999.9999999312,111.968899963627,1.00000000072263,0.533935923670304
24099.9999999298,111.60066842742,1.00000000073934,0.541653052925456
24199.9999999283,111.233675665382,1.0000000007209,0.545626517174644
24299.9999999269,110.870195296881,1.00000000065461,0.543229752267329
24399.9999999254,110.512221529405,1.00000000065629,0.53822488100926
24499.999999924,110.160705775687,1.00000000065804,0.536892149071909
24599.9999999225,109.815992086155,1.000000000654,0.536549383696805
24699.9999999211,109.480264719158,1.00000000062773,0.532747819689619
24799.9999999196,109.154195647442,1.00000000061879,0.524461025824712
24899.9999999181,108.837434495844,1.00000000061852,0.525187155324911
24999.9999999167,108.529106378166,1.00000000064699,0.524413784723506
25099.9999999152,108.227691034479,1.00000000063077,0.519551784429027
25199.9999999138,107.93321445112,1.00000000065007,0.520402195339052
25299.9999999123,107.642650269536,1.00000000067693,0.524422347123946
25399.9999999109,107.353713487337,1.00000000069883,0.529348586969244
25499.9999999094,107.065795284541,1.00000000069044,0.53316360432552
25599.999999908,106.777219151169,1.00000000071819,0.531136660338363
25699.9999999065,106.488324817877,1.00000000070778,0.531526902016383
25799.9999999051,106.199007018806,1.00000000070628,0.538479974989353
25899.9999999036,105.910143540793,1.00000000069406,0.546993770047908
25999.9999999021,105.623905943339,1.00000000067961,0.548411638240574
26099.9999999007,105.341957778426,1.00000000064792,0.545187722557725
26199.9999998992,105.065714670983,1.00000000064614,0.544392927511391
26299.9999998978,104.795751363442,1.0000000006306,0.5432957028952
26399.9999998963,104.532248572259,1.00000000063464,0.541132115133258
26499.9999998949,104.27612030835,1.00000000065197,0.535837519564739
26599.9999998934,104.028307993617,1.00000000062304,0.526374116772942
26699.999999892,103.790979205281,1.00000000057853,0.524580656808687
26799.9999998905,103.561948774147,1.00000000064573,0.528890689576606
26899.999999889,103.338508370097,1.00000000066849,0.529105208512817
26999.9999998876,103.11923267417,1.0000000006913,0.531587403113707
27099.9999998861,102.902540098946,1.00000000068359,0.531213267497024
27199.9999998847,102.688779160416,1.00000000065904,0.531795796572315
27299.9999998832,102.476282241533,1.00000000066983,0.537899980330676
27399.9999998818,102.264032230012,1.00000000070052,0.539009511745541
27499.9999998803,102.051554950272,1.00000000068897,0.535449520060411
27599.9999998789,101.837284301387,1.00000000071078,0.539188466142697
27699.9999998774,101.621125430681,1.00000000069466,0.540022104323255
27799.9999998759,101.40454419676,1.00000000069353,0.54293547631567
27899.9999998745,101.189545309298,1.00000000066226,0.55021221819314
27999.999999873,100.977819119734,1.00000000065042,0.552204138795544
28099.9999998716,100.76876312157,1.00000000069225,0.553956694746328
28199.9999998701,100.562318043545,1.00000000067586,0.551817882270551
28299.9999998687,100.359555103449,1.00000000066884,0.544991234772139
28399.9999998672,100.161309148275,1.0000000006682,0.541750909289961
28499.9999998658,99.9694216018292,1.00000000065107,0.534772605273719
28599.9999998643,99.7859589524013,1.00000000059162,0.528273717383691
28699.9999998629,99.611832443784,1.00000000061427,0.525462563048469
28799.9999998614,99.4458370917393,1.00000000063984,0.528794643392778
28899.9999998599,99.2846618419487,1.00000000069824,0.535575559151793
