Time,AGPnorm,Energy,Entropy
0,0,1,-1.57968969469372e-17
99.9999999999986,2.53015616284973e-05,1.00000000000405,0.00107210519764864
199.999999999993,0.00211053597462323,1.00000000000154,0.0016541117833005
300,0.00532401504828535,1.00000000000141,0.00301702908764315
400.000000000022,0.00743229447355,1.00000000000415,0.00504459418921081
500.000000000045,0.00924702894365177,1.00000000000001,0.00677953854660627
600.000000000068,0.0130663817718994,1.00000000000358,0.00952478620238474
700.000000000091,0.0160566440902544,1.00000000000221,0.0120518879794238
800.000000000113,0.0208167633322695,1.00000000000087,0.014989679210297
900.000000000136,0.0260310731387677,1.00000000000436,0.018343031716396
1000.00000000016,0.0303646283348716,1.00000000000021,0.0215145776249406
1100.0000000001,0.0360692021494498,1.000000000003,0.0253810457457532
1200,0.0422113055220922,1.0000000000029,0.029114274725673
1299.99999999991,0.0491153797059013,1.00000000000047,0.03318137882131
1399.99999999982,0.0561319700326943,1.0000000000043,0.0375946662746109
1499.99999999973,0.0627114000828993,1.0000000000006,0.0418574257117022
1599.99999999964,0.0702949030504858,1.00000000000239,0.0467342901888673
1699.99999999955,0.0786319596755475,1.00000000000351,0.05155294775615
1799.99999999946,0.0871409944231664,1.00000000000024,0.0566654581947098
1899.99999999937,0.0954117492862697,1.00000000000402,0.0621409839759545
1999.99999999928,0.103793705840064,1.00000000000116,0.0674935359262415
2099.99999999919,0.112884635952062,1.00000000000184,0.0734784800565752
2199.99999999909,0.122525401737527,1.00000000000395,0.0795211728545031
2299.999999999,0.13192029656668,1.00000000000018,0.0858176400049516
2399.99999999891,0.140970355820801,1.00000000000356,0.0926022223580394
2499.99999999882,0.150593845880224,1.00000000000182,0.0993422091402315
2599.99999999873,0.160685818262709,1.00000000000135,0.106815978285988
2699.99999999864,0.170798756112123,1.00000000000415,0.114555296139056
2799.99999999855,0.180521329468447,1.00000000000032,0.122582020372188
2899.99999999846,0.189961997684951,1.00000000000312,0.131408099748509
2999.99999999837,0.200150666613811,1.00000000000267,0.140485401605518
3099.99999999828,0.210572197475448,1.00000000000146,0.150595785398813
3199.99999999819,0.220489186765163,1.0000000000054,0.161528424721032
3299.99999999809,0.229857126149796,1.0000000000042,0.173131140660615
3399.999999998,0.239945247126588,1.0000000000102,0.186168912888587
3499.99999999791,0.249398000655225,1.00000000001765,0.199926049568317
3599.99999999782,0.260207015210327,1.00000000002872,0.214654376726822
3699.99999999773,0.271800382742395,1.00000000004815,0.23007507161127
3799.99999999764,0.280912105600423,1.00000000006841,0.24526973192814
3899.99999999755,0.300912214205241,1.00000000009666,0.260992108177874
3999.99999999746,0.319953991270873,1.000000000127,0.276283669251654
4099.99999999738,0.352380398103853,1.00000000016079,0.291278517524479
4199.99999999775,0.405089112149452,1.0000000001991,0.306197059028602
4299.99999999811,0.468456838955603,1.00000000024018,0.320238740195424
4399.99999999848,0.580767027457799,1.00000000026895,0.334470712887273
4499.99999999884,0.723959339859702,1.00000000031284,0.348000784302384
4599.9999999992,0.925521952691019,1.00000000035863,0.360938519361234
4699.99999999957,1.20527761759683,1.00000000038363,0.373829680357619
4799.99999999993,1.54965441447225,1.00000000042658,0.385740380915184
4900.00000000029,2.01414339468743,1.00000000044922,0.397668672666613
5000.00000000066,2.57892747126665,1.00000000050498,0.408854895126358
5100.00000000102,3.27587285064018,1.00000000051693,0.419480655223349
5200.00000000139,4.12875521283702,1.00000000058426,0.429873660185015
5300.00000000175,5.11971564124304,1.00000000057333,0.439633447567079
5400.00000000211,6.3078679391127,1.00000000058994,0.449072377380849
5500.00000000248,7.66579246466582,1.00000000060947,0.458090999066856
5600.00000000284,9.22334651875003,1.00000000064426,0.466214015865712
5700.00000000321,10.9988786236033,1.00000000066354,0.474555551031927
5800.00000000357,12.9648486693545,1.00000000066831,0.482103006608444
5900.00000000393,15.17927486303,1.00000000069609,0.489078852519958
6000.0000000043,17.6006733604453,1.00000000070359,0.496105379371913
6100.00000000466,20.2529226761764,1.00000000074816,0.502038168339277
6200.00000000502,23.1499927223886,1.00000000071484,0.508470883099658
6300.00000000539,26.2476796464033,1.00000000073655,0.514131304601331
6400.00000000575,29.6044253360262,1.00000000074533,0.519117158976892
6500.00000000612,33.1657413718461,1.00000000076909,0.524442285658188
6600.00000000648,36.9444993045395,1.00000000075716,0.528852327804379
6700.00000000684,40.9582711407229,1.00000000077029,0.533377385050493
6800.00000000721,45.1431239904784,1.00000000077592,0.537519477911027
6900.00000000757,49.5585722482708,1.00000000078374,0.540921598589341
7000.00000000793,54.1468504687181,1.00000000077405,0.544934209811519
7100.0000000083,58.9030249024769,1.00000000077165,0.548084579963712
7200.00000000866,63.8564892554326,1.00000000078223,0.550997303756091
7300.00000000903,68.9284012721761,1.00000000074273,0.554225056159091
7400.00000000939,74.1733993408029,1.00000000079144,0.556306134363377
7500.00000000975,79.5432398920521,1.00000000075826,0.559221888683038
7600.00000001012,85.0126084769428,1.00000000074291,0.561387646060455
7700.00000001048,90.6246315868447,1.0000000007859,0.563023042630748
7800.00000001084,96.2943519980901,1.00000000075911,0.565493976611756
7900.00000001121,102.065333478649,1.00000000077369,0.56672055623379
8000.00000001157,107.908201448405,1.0000000007435,0.568478356946218
8100.00000001194,113.778400377218,1.00000000074362,0.570181449413706
8200.0000000123,119.729131376076,1.00000000075586,0.570954865980602
8300.00000001266,125.680651762199,1.00000000073072,0.572780065913676
8400.00000001303,131.66034956559,1.00000000073034,0.573459119624579
8500.00000001339,137.660678638642,1.00000000070518,0.57457500454741
8600.00000001376,143.624400558866,1.00000000071412,0.575527957189545
8700.00000001412,149.606846771797,1.00000000069263,0.575751078727432
8800.00000001448,155.54265181985,1.00000000068677,0.576931093336863
8900.00000001485,161.441365640105,1.00000000069572,0.577114352558105
9000.00000001521,167.313483308973,1.00000000070383,0.577353274300698
9100.00000001557,173.100338037982,1.00000000067217,0.578284834173793
9200.00000001594,178.849528824342,1.00000000066893,0.577997469816586
9300.0000000163,184.515828758806,1.00000000068027,0.578625917700681
9400.00000001667,190.092756364714,1.00000000066558,0.578564895606456
9500.00000001703,195.605972628013,1.0000000006513,0.578697865949563
9600.00000001739,200.996474703537,1.00000000064694,0.578733939351537
9700.00000001776,206.306360612826,1.00000000066232,0.578884874103397
9800.00000001812,211.505788709096,1.00000000062032,0.578344466178221
9900.00000001848,216.578701682364,1.00000000061738,0.579246676674815
10000.0000000188,221.559289570923,1.00000000062635,0.578088687866602
10100.0000000192,226.393520114415,1.0000000006135,0.578212979485414
10200.0000000196,231.115955042078,1.00000000061986,0.57887283193357
10300.0000000199,235.711764312648,1.00000000061591,0.577199020266834
10400.0000000203,240.157248724647,1.0000000006016,0.578597550435484
10500.0000000207,244.490259530935,1.00000000060417,0.577661765730124
10600.000000021,248.667025157698,1.00000000056152,0.576952646761587
10700.0000000214,252.711300176296,1.00000000059892,0.577794107219513
10800.0000000218,256.62064083354,1.00000000058288,0.576226552310803
10900.0000000221,260.370019890152,1.00000000054687,0.576385858608219
11000.0000000225,263.993377488826,1.0000000005854,0.576215644848547
11100.0000000229,267.460168495673,1.00000000056308,0.575214058634107
11200.0000000232,270.782059149103,1.00000000054022,0.575035380845434
11300.0000000236,273.967196408571,1.00000000054408,0.574976034029917
11400.0000000239,276.991839726074,1.0000000005257,0.574052029729156
11500.0000000243,279.883797447527,1.00000000052355,0.57361101660077
11600.0000000247,282.623662910117,1.00000000053667,0.573494313311794
11700.000000025,285.218473949119,1.00000000050175,0.573176086709384
11800.0000000254,287.677596420242,1.0000000005159,0.572356898584029
11900.0000000258,289.982237789434,1.00000000048253,0.572681787317911
12000.0000000261,292.156765168092,1.00000000051412,0.571490952547801
12100.0000000265,294.187024172153,1.00000000048785,0.571790508638758
12200.0000000269,296.077482054973,1.00000000047103,0.571190513152266
12300.0000000272,297.840381613506,1.00000000047733,0.569734751141676
12400.0000000276,299.458257676616,1.00000000048562,0.570423549029672
12500.0000000279,300.953102585195,1.0000000004539,0.571167842230288
12600.0000000283,302.31771249868,1.0000000004548,0.569683359739666
12700.0000000287,303.550730150904,1.00000000043719,0.568534895250839
12800.000000029,304.665361593852,1.00000000045902,0.568334755107093
12900.0000000294,305.650421780722,1.00000000045309,0.570718313494571
13000.0000000298,306.525171532537,1.00000000044827,0.570055457559613
13100.0000000301,307.285203054488,1.00000000042844,0.566087630639864
13200.0000000305,307.922692107165,1.00000000041475,0.565313567791943
13300.0000000309,308.454943613847,1.00000000042484,0.569866225199457
13400.0000000312,308.880153932364,1.00000000043123,0.571966482752687
13500.0000000316,309.212258737181,1.00000000042659,0.567189341672151
13600.0000000319,309.44236344269,1.0000000003986,0.561160601411304
13700.0000000323,309.564046328015,1.00000000040501,0.563132652900819
13800.0000000327,309.599250705019,1.00000000043684,0.57159772003575
13900.000000033,309.554567674101,1.00000000045327,0.572662591992032
14000.0000000334,309.435552058693,1.0000000004082,0.563469409961627
14100.0000000338,309.230292416352,1.00000000037885,0.55487066134877
14200.0000000341,308.930401434108,1.00000000037419,0.559139304100176
14300.0000000345,308.564191894868,1.00000000043935,0.573269365599553
14400.0000000349,308.14408122579,1.0000000004571,0.572909357507841
14500.0000000352,307.671347230978,1.0000000004152,0.561881340913769
14600.0000000356,307.129607966474,1.00000000034977,0.548316225132154
14700.0000000359,306.505953827333,1.00000000036302,0.550277940520629
14800.0000000363,305.826303178684,1.00000000044056,0.569483289248258
14900.0000000367,305.112147765186,1.00000000047791,0.576309857328904
15000.000000037,304.371667543128,1.00000000045398,0.566425598530766
15100.0000000374,303.586102228395,1.00000000036681,0.545399890012765
15200.0000000378,302.732919367199,1.00000000034099,0.537593473500517
15300.0000000381,301.822356674265,1.00000000039524,0.550687092627764
15400.0000000385,300.8817351244,1.00000000048462,0.576620931259178
15500.0000000389,299.934674225121,1.0000000004927,0.576513047312449
15600.0000000392,298.977171505402,1.00000000044233,0.556508240692971
15700.0000000396,297.977602193127,1.00000000033671,0.532138708929396
15800.0000000399,296.9237483481,1.0000000003265,0.525668784581772
15900.0000000403,295.823723547677,1.00000000039582,0.54732732691733
16000.0000000407,294.712362401197,1.00000000053665,0.578698131856145
16100.000000041,293.613206103697,1.0000000005341,0.577559947761781
16200.0000000414,292.511965708618,1.00000000047703,0.552996742630587
16300.0000000418,291.38872854709,1.00000000035263,0.525757032725172
16400.0000000418,290.21981021727,1.00000000029787,0.512940267165123
16500.0000000404,289.011487974681,1.00000000036414,0.52924379937566
16600.0000000389,287.792343559917,1.00000000052139,0.567238115260542
16700.0000000375,286.586334487207,1.00000000057443,0.583057431855355
16800.000000036,285.399411855059,1.00000000052747,0.565853264831304
16900.0000000346,284.210593423345,1.00000000040947,0.532645866056428
17000.0000000331,282.996388685878,1.00000000031334,0.508916238170353
17100.0000000317,281.748088450302,1.00000000031344,0.504991722624254
17200.0000000302,280.473789315183,1.00000000039718,0.530890079099463
17300.0000000287,279.202374221096,1.00000000054193,0.569449286866439
17400.0000000273,277.95197317836,1.00000000061098,0.581576915401911
17500.0000000258,276.721524757889,1.00000000055802,0.562976845280918
17600.0000000244,275.498006571879,1.00000000042932,0.527470957522708
17700.0000000229,274.257715497917,1.00000000033594,0.502331547042444
17800.0000000215,272.994834370087,1.00000000031956,0.498875816744414
17900.00000002,271.712560871715,1.00000000036082,0.515171142722746
18000.0000000186,270.427714810339,1.00000000050811,0.550115540378367
18100.0000000171,269.160055818018,1.00000000060317,0.576001615512601
18200.0000000156,267.91491687096,1.00000000060693,0.573113800802273
18300.0000000142,266.686374392878,1.00000000050066,0.54391628085389
18400.0000000127,265.460062424734,1.00000000038913,0.510920961606937
18500.0000000113,264.222405345594,1.00000000033674,0.495454679164827
18600.0000000098,262.972202110269,1.00000000033192,0.498619971968516
18700.0000000084,261.711893931994,1.00000000038905,0.514604664783733
18800.0000000069,260.454447957072,1.00000000047929,0.541039372766859
18900.0000000055,259.211598916693,1.00000000057062,0.564843177679876
19000.000000004,257.987398476551,1.00000000057393,0.566870236442179
19100.0000000026,256.780801676679,1.00000000052047,0.546667996600308
19200.0000000011,255.582007215261,1.000000000429,0.517716810119729
19299.9999999996,254.382645363226,1.00000000037133,0.497127157558275
19399.9999999982,253.17863975751,1.00000000034894,0.496055797653968
19499.9999999967,251.969878468186,1.00000000038441,0.505887247672828
19599.9999999953,250.762540192613,1.00000000043676,0.519583539680846
19699.9999999938,249.56137011706,1.000000000481,0.534552552872945
19799.9999999924,248.372330828541,1.00000000054687,0.551035243654821
19899.9999999909,247.199091638308,1.00000000053709,0.554491156570752
19999.9999999895,246.039096136935,1.00000000049681,0.541811499902823
20099.999999988,244.888869368113,1.00000000044865,0.519435305672381
20199.9999999865,243.743106927877,1.00000000041135,0.502369284208444
20299.9999999851,242.599320666237,1.00000000035608,0.499401288868545
20399.9999999836,241.458073524203,1.00000000037935,0.506590214110362
20499.9999999822,240.319594569406,1.00000000041052,0.513162102891158
20599.9999999807,239.187099174884,1.0000000004228,0.518923041691159
20699.9999999793,238.062381102336,1.00000000046164,0.526964160877588
20799.9999999778,236.94774342644,1.00000000051291,0.537292259664771
20899.9999999764,235.845280962383,1.00000000053868,0.541242911506354
20999.9999999749,234.753236876074,1.00000000049954,0.535078586067044
21099.9999999734,233.670412333037,1.00000000046982,0.523928634447041
21199.999999972,232.595249871914,1.00000000042758,0.512451522977745
21299.9999999705,231.526446171422,1.00000000038806,0.508341101199778
21399.9999999691,230.46455556631,1.00000000038417,0.510893766139545
21499.9999999676,229.408551820327,1.00000000040723,0.512603099433112
21599.9999999662,228.359601768165,1.00000000041096,0.51493843348155
21699.9999999647,227.317591199075,1.00000000041491,0.5154753321558
21799.9999999633,226.283581577153,1.00000000044707,0.518555684230749
21899.9999999618,225.258839249931,1.00000000047013,0.521626532724441
21999.9999999603,224.243195044195,1.00000000050017,0.529737450923948
22099.9999999589,223.236446788544,1.00000000049612,0.533632187504249
22199.9999999574,222.238598800795,1.00000000047707,0.530356775154197
22299.999999956,221.248803000541,1.00000000043307,0.523031250102096
22399.9999999545,220.267488857113,1.00000000042608,0.519403810777631
22499.9999999531,219.294377152065,1.00000000040754,0.520015064177818
22599.9999999516,218.330207902672,1.00000000041473,0.520766707589914
22699.9999999502,217.37439434917,1.00000000039349,0.518713551005175
22799.9999999487,216.426976938975,1.00000000038702,0.511453990303214
22899.9999999473,215.488182372558,1.00000000038758,0.507004107624196
22999.9999999458,214.557896821449,1.00000000041927,0.507922928892116
23099.9999999443,213.636303993881,1.00000000043368,0.514679373351786
23199.9999999429,212.72325433973,1.00000000047211,0.520826107315605
23299.9999999414,211.817815533203,1.00000000049502,0.530270057628282
23399.99999994,210.920171933238,1.0000000004608,0.532973670392615
23499.9999999385,210.03045985937,1.00000000044158,0.530734556049218
23599.9999999371,209.14894052579,1.00000000043656,0.524706013126598
23699.9999999356,208.275556043072,1.00000000045287,0.528677132905606
23799.9999999342,207.410298437844,1.00000000045222,0.532700172925135
23899.9999999327,206.553747252791,1.00000000044526,0.529829712180574
23999.9999999312,205.706232263797,1.00000000039872,0.521206033267299
24099.9999999298,204.869310231855,1.00000000034281,0.507380167993324
24199.9999999283,204.043228904987,1.00000000035062,0.496714101786099
24299.9999999269,203.228045495004,1.00000000037031,0.494879255170556
24399.9999999254,202.422524245038,1.00000000044805,0.5033039196951
24499.999999924,201.62509034038,1.00000000048778,0.512984160427293
24599.9999999225,200.8341568306,1.00000000049042,0.520186618524926
24699.9999999211,200.049077728322,1.00000000049853,0.522168415962135
24799.9999999196,199.270346021286,1.00000000043937,0.526610913795623
24899.9999999181,198.498842588314,1.00000000041618,0.530998612379388
24999.9999999167,197.734594199556,1.00000000043137,0.528139111378264
25099.9999999152,196.977099937156,1.0000000004507,0.531996004965754
25199.9999999138,196.225261824337,1.00000000049004,0.541717074569971
25299.9999999123,195.479202161146,1.00000000046459,0.539241495461059
25399.9999999109,194.740669114723,1.0000000004542,0.527493428969408
25499.9999999094,194.011648894373,1.00000000039065,0.514511911822229
25599.999999908,193.295382014501,1.0000000003416,0.497666046633427
25699.9999999065,192.593001435152,1.00000000033409,0.487862394542632
25799.9999999051,191.903941588503,1.00000000035801,0.485231300778496
25899.9999999036,191.225729715853,1.00000000041896,0.493963612978389
25999.9999999021,190.554942303666,1.00000000046582,0.50569935097723
26099.9999999007,189.88890354799,1.00000000049624,0.514998635353174
26199.9999998992,189.226646889506,1.00000000047236,0.513324818243035
26299.9999998978,188.568438571345,1.00000000046778,0.513151755482122
26399.9999998963,187.91532642587,1.00000000043091,0.521196729691901
26499.9999998949,187.267954056067,1.0000000004367,0.529070153130834
26599.9999998934,186.625704778722,1.00000000045979,0.531899226008925
26699.999999892,185.98742144561,1.00000000049004,0.532936312873503
26799.9999998905,185.352196723302,1.00000000049847,0.539697000045959
26899.999999889,184.719913094607,1.00000000048643,0.542454161111299
26999.9999998876,184.091856162774,1.00000000046943,0.531390600098131
27099.9999998861,183.471615578326,1.00000000040971,0.51504768877784
27199.9999998847,182.862392464791,1.00000000037722,0.502826904640417
27299.9999998832,182.267083703262,1.00000000033072,0.492484404070835
27399.9999998818,181.687352235799,1.00000000033895,0.485553036490446
27499.9999998803,181.121162860192,1.0000000003775,0.485428705858731
27599.9999998789,180.566410442258,1.00000000042317,0.48855412270851
27699.9999998774,180.019060311446,1.00000000044315,0.4976215243704
27799.9999998759,179.476252525679,1.00000000048998,0.505441993085138
27899.9999998745,178.936147148823,1.00000000047432,0.510155362250477
27999.999999873,178.398082584776,1.00000000049358,0.509922163473152
28099.9999998716,177.862080009029,1.00000000046926,0.510090721243059
28199.9999998701,177.328873755365,1.00000000045697,0.517640243806755
28299.9999998687,176.798396697789,1.00000000045773,0.528151934527434
28399.9999998672,176.270217372254,1.00000000044834,0.534167414660085
28499.9999998658,175.743520180895,1.00000000048313,0.534519853287642
28599.9999998643,175.218503692762,1.0000000004723,0.53184386288602
28699.9999998629,174.695482218774,1.00000000047104,0.534363927539367
28799.9999998614,174.175096500415,1.00000000046668,0.531330185634889
28899.9999998599,173.659623756756,1.00000000044776,0.523249050091925
