Time,AGPnorm,Energy,Entropy
0,0,1,-7.42050867990852e-17
99.9999999999986,0.000815799552505422,0.999999999997944,0.00284178735692513
199.999999999993,0.00560550938854016,0.999999999997118,0.00827382635590898
300,0.0112079814332536,0.999999999999056,0.0153873623575152
400.000000000022,0.0171430195952533,1.00000000000047,0.0243719814977585
500.000000000045,0.024015220112061,0.999999999998636,0.0353003801242032
600.000000000068,0.0342030548899931,0.999999999997115,0.0476270821290529
700.000000000091,0.0437514204980657,0.999999999998017,0.0612054822692142
800.000000000113,0.0544594421852609,1.00000000000052,0.0763710234351127
900.000000000136,0.0651900474331946,0.999999999999454,0.0935508606305385
1000.00000000016,0.0778741096224156,0.9999999999976,0.112495668683124
1100.0000000001,0.0902067628801945,0.99999999999764,0.133933493809891
1200,0.102293668298848,1.00000000000105,0.158333155315779
1299.99999999991,0.114721557379418,1.00000000000785,0.187648701835315
1399.99999999982,0.125472549015228,1.0000000000302,0.221894480848684
1499.99999999973,0.139349222041608,1.00000000008316,0.260722440969919
1599.99999999964,0.167647103801978,1.00000000019043,0.300635490671097
1699.99999999955,0.224938528339122,1.00000000031332,0.339297113378205
1799.99999999946,0.334914025367063,1.0000000004539,0.374502110553144
1899.99999999937,0.570942334646987,1.00000000062799,0.405459205666423
1999.99999999928,1.01455370142598,1.00000000072738,0.43244331535936
2099.99999999919,1.71404158750907,1.00000000083626,0.456271754578314
2199.99999999909,2.72908760659746,1.0000000009561,0.47712450355605
2299.999999999,4.14304774032346,1.00000000097635,0.494805349979977
2399.99999999891,5.99892597647302,1.00000000105743,0.50920008880357
2499.99999999882,8.28085754311645,1.00000000109718,0.521953296145094
2599.99999999873,10.984498974792,1.00000000117497,0.532705431787232
2699.99999999864,14.1329352265957,1.00000000114783,0.541616663149993
2799.99999999855,17.6907232490551,1.0000000011978,0.548107659106868
2899.99999999846,21.5738304868515,1.00000000116455,0.553957397331355
2999.99999999837,25.7213926605568,1.00000000122351,0.558653796636273
3099.99999999828,30.1168023804947,1.00000000114852,0.562017537342352
3199.99999999819,34.7084082770324,1.00000000114505,0.56407311552025
3299.99999999809,39.399428892333,1.00000000107889,0.565948617316625
3399.999999998,44.1125277833794,1.00000000111254,0.567150749955154
3499.99999999791,48.8202581575725,1.00000000109736,0.567446198357308
3599.99999999782,53.493935057036,1.00000000106732,0.566986127855676
3699.99999999773,58.0669854026186,1.00000000104191,0.565316951661595
3799.99999999764,62.4772206185692,1.0000000010328,0.565376828114017
3899.99999999755,66.6925748889956,1.00000000100633,0.565498603108673
3999.99999999746,70.7062988506209,1.00000000094157,0.562893589200218
4099.99999999738,74.500271009994,1.00000000090487,0.560250354086606
4199.99999999775,78.0298318422905,1.00000000093435,0.560611443653629
4299.99999999811,81.2751487221978,1.00000000090437,0.558226591679779
4399.99999999848,84.2465041711161,1.00000000085537,0.55548484618398
4499.99999999884,86.9442124386267,1.00000000084425,0.554963920855653
4599.9999999992,89.3609298322283,1.0000000008042,0.551943677535643
4699.99999999957,91.485431338582,1.00000000076673,0.55034148763559
4799.99999999993,93.3256565689263,1.00000000076421,0.551433367423817
4900.00000000029,94.9006508407046,1.00000000074514,0.547127163612823
5000.00000000066,96.2128473782147,1.00000000071168,0.541482830556254
5100.00000000102,97.2756468796463,1.00000000071701,0.55161233392123
5200.00000000139,98.106714027178,1.00000000068504,0.54391182322037
5300.00000000175,98.6961217249343,1.00000000060416,0.53291602938041
5400.00000000211,99.073823373504,1.00000000070906,0.552276839312013
5500.00000000248,99.2969694548657,1.00000000068284,0.551002341525636
5600.00000000284,99.3289460984652,1.00000000055349,0.520434812569901
5700.00000000321,99.1548127267278,1.00000000060727,0.537125672965426
5800.00000000357,98.8761968326724,1.00000000077153,0.565865213837286
5900.00000000393,98.5203100518493,1.00000000063167,0.535661684248222
6000.0000000043,98.0047683906689,1.00000000043669,0.496480019677677
6100.00000000466,97.3470643638967,1.00000000066547,0.540532875677938
6200.00000000502,96.6667108518426,1.00000000088266,0.572900018951477
6300.00000000539,95.9748526751272,1.00000000067979,0.532668056388335
6400.00000000575,95.1761495290504,1.00000000039464,0.47126207664161
6500.00000000612,94.2615445563475,1.00000000057629,0.509667455955389
6600.00000000648,93.3399732715241,1.00000000087917,0.571375335239253
6700.00000000684,92.4661833479289,1.00000000086945,0.561689333260019
6800.00000000721,91.5787609890908,1.00000000053594,0.48554543318438
6900.00000000757,90.6035307912863,1.00000000037133,0.440101151197755
7000.00000000793,89.570508400436,1.00000000067587,0.507895705479585
7100.0000000083,88.5642387033798,1.00000000095638,0.570312171398529
7200.00000000866,87.6202383250159,1.00000000094898,0.560762623999052
7300.00000000903,86.6960888707595,1.00000000062148,0.494064908339231
7400.00000000939,85.7295342875422,1.00000000037179,0.42078373820632
7500.00000000975,84.7148016389753,1.00000000046838,0.444118311289345
7600.00000001012,83.6994246192516,1.00000000080356,0.526520560166705
7700.00000001048,82.7272210622676,1.00000000096601,0.560127780039744
7800.00000001084,81.8059678248048,1.00000000087217,0.546217034391136
7900.00000001121,80.9056518786295,1.00000000067253,0.491524548949679
8000.00000001157,79.9918158020057,1.00000000045438,0.42292292026588
8100.00000001194,79.0592567031182,1.0000000004362,0.420087328855387
8200.0000000123,78.1262987282714,1.00000000063379,0.472143331358991
8300.00000001266,77.2129230659105,1.00000000084618,0.527723043320115
8400.00000001303,76.3310424069949,1.00000000095117,0.546973996637456
8500.00000001339,75.4809130840962,1.0000000008438,0.535929694491323
8600.00000001376,74.6495398605106,1.0000000006628,0.491044575410288
8700.00000001412,73.8248216687755,1.00000000052237,0.447930180276332
8800.00000001448,73.0076074727815,1.00000000048931,0.427824840434518
8900.00000001485,72.2021070360043,1.00000000055036,0.448753265203223
9000.00000001521,71.4104208738223,1.00000000063178,0.480665245172583
9100.00000001557,70.6344334826316,1.0000000007535,0.513174815408388
9200.00000001594,69.8748177021873,1.00000000084904,0.527388276618924
9300.0000000163,69.1319298975323,1.00000000087088,0.535423163991307
9400.00000001667,68.4055096806803,1.0000000007093,0.521066339030438
9500.00000001703,67.6948607223205,1.00000000055391,0.475976642562771
9600.00000001739,67.0026718967992,1.00000000048711,0.448585442690979
9700.00000001776,66.3321699480963,1.0000000005487,0.448193464081515
9800.00000001812,65.681811775779,1.00000000063244,0.470710478005643
9900.00000001848,65.0482428201782,1.0000000006148,0.484616992813583
10000.0000000188,64.4303589549197,1.00000000060415,0.488337213774529
10100.0000000192,63.8280825104556,1.00000000065416,0.500234786642779
10200.0000000196,63.2361148541228,1.00000000075066,0.513372881271749
10300.0000000199,62.6474636042796,1.00000000086872,0.532990340305533
10400.0000000203,62.0627492381575,1.00000000082853,0.536734001549999
10500.0000000207,61.4901589555421,1.00000000068123,0.508015550004357
10600.000000021,60.9409759772477,1.00000000048104,0.463178042773918
10700.0000000214,60.420727102147,1.00000000049103,0.447721311368308
10800.0000000218,59.925349700821,1.00000000065406,0.458833053372403
10900.0000000221,59.4440548810581,1.00000000072233,0.47403095074348
11000.0000000225,58.9708338335006,1.00000000070282,0.495751552399575
11100.0000000229,58.5080818540655,1.00000000066822,0.498193339190019
11200.0000000232,58.0616455119742,1.00000000057773,0.486421598502944
11300.0000000236,57.6324981218021,1.00000000057244,0.493538024537933
11400.0000000239,57.2132189756074,1.0000000006772,0.50851656971948
11500.0000000243,56.7928144506137,1.00000000079921,0.524858319175295
11600.0000000247,56.363966119631,1.00000000089099,0.537877688185604
11700.000000025,55.9318842433264,1.00000000077734,0.53648626147649
11800.0000000254,55.507809463552,1.00000000069017,0.514370762130715
11900.0000000258,55.1044820986941,1.00000000052602,0.48029017627081
12000.0000000261,54.7309712917439,1.00000000051612,0.461380923264048
12100.0000000265,54.386669896796,1.00000000054626,0.459525853928567
12200.0000000269,54.0631888749445,1.00000000063429,0.470527986526578
12300.0000000272,53.7484013486143,1.00000000071591,0.485642686165839
12400.0000000276,53.4365754458244,1.00000000072054,0.491768739168721
12500.0000000279,53.1291839882824,1.00000000069329,0.500669646952694
12600.0000000283,52.8288918102363,1.0000000006592,0.509819801009898
12700.0000000287,52.537696592241,1.00000000064851,0.513561044064305
12800.000000029,52.254495548103,1.000000000634,0.520268121332056
12900.0000000294,51.9767519254602,1.00000000063871,0.525526561264892
13000.0000000298,51.7016695318493,1.00000000067675,0.525931015076483
13100.0000000301,51.4265479370893,1.00000000075131,0.522496372947335
13200.0000000305,51.1469628246276,1.00000000078413,0.530267156045039
13300.0000000309,50.8592818169435,1.00000000083649,0.541895703479257
13400.0000000312,50.5676576162768,1.00000000075874,0.54282134241893
13500.0000000316,50.2850377316222,1.00000000063559,0.523704987296994
13600.0000000319,50.0246098309788,1.00000000054287,0.498662570437528
13700.0000000323,49.792321327447,1.00000000053749,0.476589254513733
13800.0000000327,49.5851594604375,1.0000000005716,0.481917073518679
13900.000000033,49.3944161864388,1.00000000066384,0.488217433822645
14000.0000000334,49.2140415602265,1.00000000067882,0.484694317516572
14100.0000000338,49.040668573652,1.00000000068618,0.490893268129052
14200.0000000341,48.8728297348962,1.00000000066007,0.501246055607318
14300.0000000345,48.7152792544743,1.00000000062112,0.498348156079559
14400.0000000349,48.5708674930357,1.00000000059227,0.499798699644246
14500.0000000352,48.4317198222786,1.00000000066825,0.514047060301557
14600.0000000356,48.2858070790258,1.00000000077999,0.530958311600363
14700.0000000359,48.1255044248769,1.00000000082236,0.543104124324165
14800.0000000363,47.9526596814312,1.00000000078011,0.547080399695098
14900.0000000367,47.7737011959633,1.0000000007134,0.551093350264046
15000.000000037,47.5965256403548,1.00000000060535,0.541135336912281
15100.0000000374,47.4274262501805,1.00000000057901,0.528897132883045
15200.0000000378,47.2655052710684,1.00000000066119,0.523481191335219
15300.0000000381,47.1046252851575,1.00000000074846,0.522804220045298
15400.0000000385,46.9376449855298,1.00000000081112,0.533088799668697
15500.0000000389,46.7613354554932,1.00000000084104,0.547129989528863
15600.0000000392,46.5774888470978,1.00000000076817,0.551825103662072
15700.0000000396,46.3953781300496,1.00000000064,0.541876248851176
15800.0000000399,46.2266078819509,1.00000000057236,0.527059998230635
15900.0000000403,46.0803004244767,1.00000000054169,0.509864383214997
16000.0000000407,45.9591756231738,1.00000000056698,0.495532703821135
16100.000000041,45.8603093779738,1.00000000059515,0.492190072981449
16200.0000000414,45.7779177387967,1.00000000063261,0.49357261213352
16300.0000000418,45.7014665700092,1.00000000069877,0.49596317181537
16400.0000000418,45.6269588085217,1.00000000068689,0.498237515503486
16500.0000000404,45.557550252817,1.00000000066742,0.495093897297335
16600.0000000389,45.4957780517611,1.00000000064517,0.500415429277459
16700.0000000375,45.4386326206611,1.00000000068708,0.513238865348683
16800.000000036,45.3830501036482,1.00000000068307,0.529131101469222
16900.0000000346,45.3307421942829,1.00000000064848,0.536199537748615
17000.0000000331,45.2846864478561,1.00000000063273,0.538391651752996
17100.0000000317,45.2447783157387,1.00000000065077,0.543223147765881
17200.0000000302,45.2063842672477,1.00000000067393,0.542176094195785
17300.0000000287,45.1613132448148,1.00000000072272,0.546665810493965
17400.0000000273,45.1027821311558,1.00000000075544,0.552408037584581
17500.0000000258,45.0263376088462,1.00000000077584,0.550460922512723
17600.0000000244,44.9320760505975,1.00000000077928,0.547950559958661
17700.0000000229,44.8247912014335,1.00000000076552,0.561645810814621
17800.0000000215,44.7101778577378,1.0000000007255,0.573296188533881
17900.00000002,44.5929847949375,1.0000000006204,0.567932912170845
18000.0000000186,44.4784945485763,1.0000000006009,0.560501705499461
18100.0000000171,44.3706796578448,1.00000000060247,0.557170546638924
18200.0000000156,44.2694003040916,1.00000000062333,0.552464338174061
18300.0000000142,44.1728255407037,1.00000000069807,0.547985624252581
18400.0000000127,44.0762558864007,1.00000000072806,0.549340144861234
18500.0000000113,43.9759691760809,1.00000000077851,0.558347806348717
18600.0000000098,43.8699147887056,1.00000000082716,0.565549829835392
18700.0000000084,43.7565356532016,1.00000000078704,0.568508245404681
18800.0000000069,43.641555852237,1.000000000715,0.567643599669162
18900.0000000055,43.5341076179819,1.00000000064999,0.555734780233173
19000.000000004,43.442249279859,1.00000000058974,0.54190066065687
19100.0000000026,43.370403147554,1.00000000059006,0.532231975800819
19200.0000000011,43.3201615162398,1.00000000056339,0.518286295112257
19299.9999999996,43.2885884466447,1.00000000063059,0.510663570551876
19399.9999999982,43.2678903975148,1.0000000006917,0.510429781129687
19499.9999999967,43.252796837518,1.0000000006599,0.517284142672078
19599.9999999953,43.2440531157208,1.00000000061207,0.512778311244938
19699.9999999938,43.2420585469289,1.00000000069461,0.508554033368087
19799.9999999924,43.2432023668562,1.0000000007179,0.507032611895295
19899.9999999909,43.2469710502194,1.00000000067782,0.511256825592392
19999.9999999895,43.2563430623248,1.0000000006102,0.50705745179614
20099.999999988,43.2740575434698,1.00000000061245,0.505015136211229
20199.9999999865,43.2982751722577,1.00000000065795,0.518224305356147
20299.9999999851,43.3217571616502,1.00000000070837,0.53918553307276
20399.9999999836,43.3382804091865,1.00000000074957,0.551077097387507
20499.9999999822,43.3450026975055,1.00000000075506,0.556124821352922
20599.9999999807,43.3444854426701,1.00000000073376,0.565816663871842
20699.9999999793,43.3427744606815,1.00000000065777,0.569036555436814
20799.9999999778,43.3425301845441,1.00000000068521,0.566404258871823
20899.9999999764,43.3409783456564,1.00000000071601,0.566420179296368
20999.9999999749,43.3354445887787,1.00000000069148,0.578528908654605
21099.9999999734,43.3261652219152,1.0000000006892,0.589205787211742
21199.999999972,43.3140938581127,1.00000000066475,0.588611067762985
21299.9999999705,43.2966537962631,1.000000000706,0.587204818769152
21399.9999999691,43.2704760743891,1.00000000072326,0.584154103746987
21499.9999999676,43.235674015585,1.00000000070242,0.580180707370918
21599.9999999662,43.1925032468578,1.00000000070464,0.573518105253812
21699.9999999647,43.1403600742534,1.00000000070905,0.560486100642643
21799.9999999633,43.0797917918353,1.00000000070492,0.553830745821083
21899.9999999618,43.0099874080097,1.00000000075042,0.565996305005297
21999.9999999603,42.9311531989211,1.00000000074331,0.58125986014441
22099.9999999589,42.8441206086175,1.00000000069123,0.583466716931522
22199.9999999574,42.7523466532092,1.00000000068237,0.583416742147588
22299.999999956,42.6605884111489,1.000000000642,0.580662144636909
22399.9999999545,42.5717608641053,1.00000000065535,0.581580192131679
22499.9999999531,42.4870287812481,1.000000000613,0.583045659678469
22599.9999999516,42.4070993875929,1.00000000062156,0.585539867658531
22699.9999999502,42.3310196949191,1.0000000006435,0.583061171852431
22799.9999999487,42.2588923062015,1.00000000065829,0.579940746696001
22899.9999999473,42.1884868996946,1.00000000069866,0.582762670199615
22999.9999999458,42.1185141515595,1.00000000072548,0.581422416297793
23099.9999999443,42.0472714990589,1.00000000075872,0.575369595171198
23199.9999999429,41.9731301379029,1.00000000078524,0.570359427870631
23299.9999999414,41.8955218096138,1.00000000079825,0.567488901790711
23399.99999994,41.8140411489188,1.00000000076194,0.566723212705346
23499.9999999385,41.7322237756286,1.0000000007258,0.563222471525099
23599.9999999371,41.6559500586276,1.00000000064859,0.562302225858875
23699.9999999356,41.5906366826525,1.0000000006213,0.559895967603572
23799.9999999342,41.5402090078141,1.00000000057777,0.551950303885093
23899.9999999327,41.5065859817727,1.00000000058924,0.543473609456998
23999.9999999312,41.4892144388417,1.00000000056421,0.539567709834352
24099.9999999298,41.4865983054516,1.0000000006454,0.531715178923955
24199.9999999283,41.4940198118342,1.00000000065596,0.526359934487105
24299.9999999269,41.5091077467424,1.00000000067343,0.528252054521557
24399.9999999254,41.5306219519885,1.00000000067137,0.525803200978984
24499.999999924,41.5582574571306,1.00000000070621,0.522473426876181
24599.9999999225,41.5893750229616,1.00000000070449,0.522958785367735
24699.9999999211,41.6231838078311,1.00000000068254,0.523713564726192
24799.9999999196,41.6624934338554,1.0000000006491,0.520993812293996
24899.9999999181,41.7090568452011,1.00000000063082,0.516193034764692
24999.9999999167,41.7623080517171,1.00000000064055,0.513847061279115
25099.9999999152,41.8186671088782,1.00000000069096,0.518789101927056
25199.9999999138,41.873344560802,1.00000000072142,0.526181860843544
25299.9999999123,41.9234867220381,1.00000000067376,0.536174529595568
25399.9999999109,41.9681282443541,1.00000000070586,0.546329548862338
25499.9999999094,42.0101018059293,1.00000000070837,0.55838514888155
25599.999999908,42.049008302583,1.00000000071914,0.563995204228941
25699.9999999065,42.0852638138603,1.0000000007102,0.567108401525608
25799.9999999051,42.1177405063934,1.00000000071647,0.574446085051128
25899.9999999036,42.1469037422749,1.00000000070064,0.5766753494241
25999.9999999021,42.1724444316275,1.00000000067908,0.579841783344208
26099.9999999007,42.1953563676751,1.00000000070804,0.581570036508075
26199.9999998992,42.2152941387545,1.0000000007154,0.583817073562735
26299.9999998978,42.2306100887021,1.00000000075082,0.585367430127468
26399.9999998963,42.24084868529,1.00000000074661,0.585876190301169
26499.9999998949,42.2453702076128,1.00000000071711,0.586060187356234
26599.9999998934,42.2446492433599,1.00000000071981,0.58324707503922
26699.999999892,42.2409892882048,1.00000000072508,0.584667113479586
26799.9999998905,42.2368069308304,1.00000000069901,0.588396826226594
26899.999999889,42.232348991357,1.00000000066625,0.58151572061611
26999.9999998876,42.2271638135214,1.00000000070246,0.581218891134764
27099.9999998861,42.2190432045406,1.0000000007192,0.581911319174745
27199.9999998847,42.2063424516834,1.00000000071908,0.5849054096579
27299.9999998832,42.1890669719345,1.00000000069731,0.582317856323028
27399.9999998818,42.1691558688768,1.00000000069925,0.576855246514658
27499.9999998803,42.1469371734872,1.00000000071368,0.571850952913111
27599.9999998789,42.1218935702297,1.00000000073554,0.57094310936413
27699.9999998774,42.0932509488959,1.00000000070952,0.567827756777443
27799.9999998759,42.0598725988298,1.00000000073059,0.576894906999276
27899.9999998745,42.0213484387169,1.00000000072151,0.581906767529423
27999.999999873,41.9788715729639,1.00000000073237,0.586292325229731
28099.9999998716,41.9329901730429,1.00000000072569,0.594227600635681
28199.9999998701,41.8851788783883,1.00000000068175,0.591670959689168
28299.9999998687,41.8381847789784,1.00000000066308,0.587742376057094
28399.9999998672,41.7915382390015,1.00000000069203,0.589320401386099
28499.9999998658,41.7446022680409,1.00000000069901,0.58990235086455
28599.9999998643,41.6976783583981,1.00000000067279,0.582439478156765
28699.9999998629,41.6507822833016,1.00000000067423,0.575536783829215
28799.9999998614,41.6021255405603,1.00000000069482,0.574116551937309
28899.9999998599,41.5497947823942,1.00000000071235,0.579207960098637
28999.9999998585,41.4930419409412,1.00000000075395,0.582591156782916
