Time,AGPnorm,Energy,Entropy
0,0,1,3.5237691541964e-18
99.9999999999986,0.0059043124249657,0.999999999998618,0.0175503371006306
199.999999999993,0.0160230424648983,1.0000000000001,0.0508253805004458
300,0.0329669148035136,0.999999999998931,0.100182436407307
400.000000000022,0.0500316371370743,1.00000000000585,0.166515542087552
500.000000000045,0.0661856283746069,1.00000000012141,0.263130905412468
600.000000000068,0.132311835368703,1.00000000067754,0.378345066567051
700.000000000091,0.41158939371826,1.00000000141766,0.470623788852538
800.000000000113,1.31149348949945,1.00000000203062,0.526705424174322
900.000000000136,3.00844107908924,1.00000000231916,0.557940821352095
1000.00000000016,5.47934875760159,1.00000000227544,0.571866434594831
1100.0000000001,8.50033248924762,1.000000002091,0.575930690341191
1200,11.7369345125782,1.00000000219031,0.571796026916773
1299.99999999991,14.9091175855935,1.00000000210459,0.567672014791774
1399.99999999982,17.7782581038682,1.00000000186604,0.5605422596183
1499.99999999973,20.1873277785609,1.00000000165969,0.548921475390611
1599.99999999964,22.0781158793402,1.00000000163664,0.543621190247683
1699.99999999955,23.4171139692569,1.00000000147715,0.539386246326271
1799.99999999946,24.2837663753209,1.00000000132271,0.521412532080534
1899.99999999937,24.6682882770057,1.0000000014344,0.548859079387794
1999.99999999928,24.7559923991791,1.00000000113902,0.496374255808647
2099.99999999919,24.476851715443,1.00000000141068,0.540621875925629
2199.99999999909,24.1409204206647,1.00000000147145,0.528738652280527
2299.999999999,23.5620585765173,1.00000000084783,0.432209320795707
2399.99999999891,22.9416689493054,1.00000000199928,0.582051461452297
2499.99999999882,22.3820947048443,1.00000000116674,0.470029518569531
2599.99999999873,21.6869579208277,1.0000000008329,0.390685672929893
2699.99999999864,20.9868930608393,1.00000000186966,0.556830557081178
2799.99999999855,20.3916886714837,1.00000000161818,0.550519088108007
2899.99999999846,19.7980846254851,1.00000000078338,0.369821429641919
2999.99999999837,19.1829331142881,1.00000000100375,0.408853454188435
3099.99999999828,18.5772524559318,1.00000000165513,0.531596679040051
3199.99999999819,18.0204779676986,1.00000000179007,0.55716399763719
3299.99999999809,17.5155223124926,1.0000000013785,0.51365090458974
3399.999999998,17.0374790306251,1.00000000073011,0.355756423015239
3499.99999999791,16.6113387975018,1.00000000118773,0.413547175118341
3599.99999999782,16.1921646145818,1.00000000154504,0.522211229763072
3699.99999999773,15.7800424869432,1.00000000131071,0.514398671143929
3799.99999999764,15.3779256435613,1.00000000182786,0.530432062859949
3899.99999999755,14.9860351480323,1.00000000182944,0.575646791579216
3999.99999999746,14.6284256641297,1.00000000090944,0.454646163287821
4099.99999999738,14.3534197318291,1.00000000068638,0.351565818175
4199.99999999775,14.1650297229445,1.0000000012412,0.416595022892082
4299.99999999811,13.9762351948989,1.00000000145401,0.505480667694485
4399.99999999848,13.7554370865219,1.00000000159957,0.545429737161026
4499.99999999884,13.5227028523861,1.00000000131252,0.536390478822549
4599.9999999992,13.3021690116047,1.00000000127525,0.526870511035213
4699.99999999957,13.0686455580241,1.00000000158777,0.527123668591267
4799.99999999993,12.8163920350228,1.00000000188919,0.564112797100717
4900.00000000029,12.5625991427153,1.0000000016397,0.573908257727223
5000.00000000066,12.3412577693526,1.00000000093492,0.46869218736602
5100.00000000102,12.2177908183851,1.00000000070225,0.376434909588124
5200.00000000139,12.2144177138389,1.00000000101846,0.386867801413148
5300.00000000175,12.2569141741307,1.00000000146245,0.460358781420219
5400.00000000211,12.2586399576881,1.00000000160614,0.527618622540703
5500.00000000248,12.2279844556111,1.00000000132129,0.543226722483707
5600.00000000284,12.1844101372175,1.00000000144424,0.549556324282249
5700.00000000321,12.1118479126965,1.00000000155827,0.560653092659741
5800.00000000357,12.011615307991,1.00000000147003,0.541315678054577
5900.00000000393,11.9014787011356,1.00000000137814,0.55807430421049
6000.0000000043,11.7871449078335,1.00000000131429,0.557528988592056
6100.00000000466,11.6802733842402,1.00000000123728,0.556481563002976
6200.00000000502,11.5621131805703,1.0000000015079,0.564344621899364
6300.00000000539,11.4238655894492,1.00000000154659,0.566398429662778
6400.00000000575,11.2690265191088,1.00000000189999,0.576032495391049
6500.00000000612,11.1051714294963,1.0000000018557,0.586542666021039
6600.00000000648,10.9483896045885,1.0000000012379,0.538054418350712
6700.00000000684,10.8355664865527,1.00000000083766,0.453887569131483
6800.00000000721,10.8260601020344,1.00000000071013,0.390381120609571
6900.00000000757,10.9424360801416,1.00000000097096,0.396916087519983
7000.00000000793,11.137619698211,1.00000000124482,0.429329228499575
7100.0000000083,11.3293564364242,1.00000000160355,0.482247748819971
7200.00000000866,11.4892656830409,1.0000000014811,0.516868899961383
7300.00000000903,11.6153347924603,1.00000000161726,0.552647441494848
7400.00000000939,11.7082023243399,1.00000000157664,0.556802152331812
7500.00000000975,11.7720831763077,1.00000000143661,0.575468479118316
7600.00000001012,11.800904790765,1.00000000159687,0.588650950909518
7700.00000001048,11.7945644171638,1.00000000160626,0.58917456838749
7800.00000001084,11.7706036953032,1.00000000139213,0.562950166588578
7900.00000001121,11.7380751951967,1.00000000149479,0.559189365238588
8000.00000001157,11.7005499626587,1.00000000150227,0.553595463472102
8100.00000001194,11.6527997473079,1.00000000151409,0.543023156908226
8200.0000000123,11.6033456121826,1.00000000144143,0.559041561695504
8300.00000001266,11.5541240284053,1.00000000140942,0.561554019129285
8400.00000001303,11.5079127220234,1.00000000142585,0.559728176461422
8500.00000001339,11.4614623243052,1.00000000147629,0.565117426631269
8600.00000001376,11.4130913891703,1.00000000146338,0.568814620204706
8700.00000001412,11.3574879472762,1.00000000162489,0.566585562293905
8800.00000001448,11.2941675352098,1.00000000149862,0.564710761087467
8900.00000001485,11.2192810815188,1.00000000155827,0.586567931785608
9000.00000001521,11.1363841254017,1.00000000152844,0.609236512344593
9100.00000001557,11.0526501304502,1.0000000012674,0.591648884337494
9200.00000001594,10.9700400920687,1.00000000144527,0.597887949329088
9300.0000000163,10.8822764370673,1.0000000015367,0.595159512995979
9400.00000001667,10.7876252860664,1.0000000016919,0.589542526530515
9500.00000001703,10.6893571767284,1.0000000018386,0.592742212664339
9600.00000001739,10.5922634481802,1.00000000195323,0.583260550303266
9700.00000001776,10.4973408731126,1.00000000199128,0.580253942753761
9800.00000001812,10.3996022135013,1.00000000170488,0.577458231532013
9900.00000001848,10.2971087814047,1.00000000126446,0.54450709235156
10000.0000000188,10.2053621050774,1.00000000103708,0.488645454756869
10100.0000000192,10.1612398934576,1.00000000085701,0.443021420174718
10200.0000000196,10.2049883024492,1.00000000077582,0.402356677537851
10300.0000000199,10.3615470777341,1.00000000096463,0.402048456652173
10400.0000000203,10.6204670120182,1.00000000110957,0.415445896259605
10500.0000000207,10.9320764709031,1.00000000154297,0.441052124557126
10600.000000021,11.2556998474822,1.00000000149086,0.471582181023602
10700.0000000214,11.5601114442605,1.00000000167338,0.50182691043162
10800.0000000218,11.835011265691,1.00000000156607,0.520997110755842
10900.0000000221,12.083835393495,1.00000000162739,0.544724481622738
11000.0000000225,12.3015614224852,1.00000000157662,0.566919394709425
11100.0000000229,12.4920751157033,1.0000000016048,0.579873345388189
11200.0000000232,12.650560837585,1.00000000172718,0.587868151918732
11300.0000000236,12.7826208139598,1.00000000145095,0.601813630279515
11400.0000000239,12.8868529226862,1.00000000167433,0.617130598272827
11500.0000000243,12.96025004677,1.00000000166271,0.620057428921144
11600.0000000247,13.0041018120515,1.00000000155774,0.619952575763507
11700.000000025,13.0311050121244,1.0000000014485,0.621900340453309
11800.0000000254,13.0449586668283,1.00000000158984,0.621914742102714
11900.0000000258,13.0482566419038,1.00000000148389,0.611593207001771
12000.0000000261,13.0448063390532,1.0000000016317,0.611403213894462
12100.0000000265,13.0255095275085,1.00000000159322,0.608453334511383
12200.0000000269,12.9990937353885,1.00000000138103,0.593432656296164
12300.0000000272,12.9691630701618,1.00000000168922,0.605329173792363
12400.0000000276,12.9271921704629,1.00000000153894,0.603957032574833
12500.0000000279,12.8795814352219,1.00000000154743,0.614784879192054
12600.0000000283,12.8262430961898,1.00000000157828,0.619594007939445
12700.0000000287,12.7677478823742,1.00000000172973,0.63026059536387
12800.000000029,12.7056070742108,1.00000000156367,0.625349729204842
12900.0000000294,12.6463627920887,1.00000000149552,0.61369045037613
13000.0000000298,12.5942852758455,1.00000000151502,0.59654499617906
13100.0000000301,12.5497908105334,1.00000000153883,0.590643084987607
13200.0000000305,12.5094114534714,1.00000000162926,0.592554965331702
13300.0000000309,12.4704516884112,1.00000000159007,0.599526993260169
13400.0000000312,12.4335104077971,1.00000000163417,0.59634937679374
13500.0000000316,12.3956212822206,1.00000000158814,0.599915411245099
13600.0000000319,12.3577901361728,1.0000000015556,0.606897895190708
13700.0000000323,12.324371654238,1.00000000157463,0.599201436611349
13800.0000000327,12.2869787595881,1.00000000168074,0.590679818199049
13900.000000033,12.2495050792277,1.00000000159913,0.600543787461323
14000.0000000334,12.219018481042,1.00000000138865,0.586917147208801
14100.0000000338,12.1940279865262,1.00000000148944,0.573955580235838
14200.0000000341,12.1700356945488,1.00000000177591,0.56634163170806
14300.0000000345,12.1436629224366,1.00000000158967,0.572976279726409
14400.0000000349,12.1190183888163,1.00000000158983,0.579708988703398
14500.0000000352,12.0940581979839,1.0000000017138,0.60753897970702
14600.0000000356,12.0681311879651,1.00000000162918,0.619193634140048
14700.0000000359,12.0447934803665,1.00000000156925,0.611118644500145
14800.0000000363,12.0209856743158,1.00000000182129,0.598388760637756
14900.0000000367,11.9940737416814,1.00000000172244,0.602485265711313
15000.000000037,11.9696268066319,1.00000000148872,0.614957117925382
15100.0000000374,11.9455721325344,1.00000000161737,0.61759158663232
15200.0000000378,11.9157646656189,1.00000000163667,0.625631605541269
15300.0000000381,11.8833869623264,1.0000000015805,0.622936190488564
15400.0000000385,11.8519042737912,1.00000000149997,0.62327384079808
15500.0000000389,11.8156233822521,1.00000000189596,0.63365536332554
15600.0000000392,11.7755440648561,1.00000000153782,0.615561538200914
15700.0000000396,11.7329299286876,1.00000000177514,0.614298173806548
15800.0000000399,11.6894713002306,1.00000000159265,0.616987503378204
15900.0000000403,11.6500325619058,1.00000000154069,0.626548653163287
16000.0000000407,11.6158783328047,1.00000000168478,0.630146670374294
16100.000000041,11.5794564530399,1.00000000176631,0.63123211799406
16200.0000000414,11.5363989175333,1.00000000179101,0.62702320033252
16300.0000000418,11.4925057196401,1.00000000148269,0.626343701337777
16400.0000000418,11.4517422218947,1.00000000180327,0.633530239521414
16500.0000000404,11.4072941155304,1.0000000017614,0.630195803363325
16600.0000000389,11.3626277584469,1.00000000150923,0.619782327892888
16700.0000000375,11.3203803830582,1.00000000163942,0.62735771300091
16800.000000036,11.276943285398,1.00000000168974,0.618422166059968
16900.0000000346,11.2328078326995,1.00000000156423,0.636363278046848
17000.0000000331,11.1876319981914,1.00000000163222,0.635120319148515
17100.0000000317,11.1398489758342,1.00000000168727,0.640785282927296
17200.0000000302,11.0886674913941,1.00000000166329,0.630650403721874
17300.0000000287,11.0356294161246,1.00000000162867,0.638108102921014
17400.0000000273,10.9809912386501,1.00000000169801,0.639700342386972
17500.0000000258,10.925496716447,1.0000000016311,0.639536324597228
17600.0000000244,10.8700094414801,1.00000000183997,0.646117651141733
17700.0000000229,10.8122455280631,1.00000000180046,0.64842691602629
17800.0000000215,10.7533281185806,1.00000000174342,0.645087752789373
17900.00000002,10.6944544675412,1.00000000156849,0.63898542960579
18000.0000000186,10.6359455410455,1.00000000162469,0.635336414816728
18100.0000000171,10.5778852775512,1.00000000174885,0.656199702988301
18200.0000000156,10.5205823624995,1.00000000160453,0.63742482417999
18300.0000000142,10.4636162316182,1.000000001393,0.638475433188253
18400.0000000127,10.4073974108742,1.00000000158597,0.638322724396053
18500.0000000113,10.3528448189956,1.00000000164027,0.646405108477822
18600.0000000098,10.3006910608731,1.00000000167967,0.639677791257928
18700.0000000084,10.2529397014525,1.0000000017451,0.649323773951068
18800.0000000069,10.2120820568999,1.00000000183842,0.649787538081289
18900.0000000055,10.1786803120963,1.0000000019644,0.6479086994171
19000.000000004,10.1605781437786,1.00000000200695,0.647174590252835
19100.0000000026,10.1518561928075,1.00000000217995,0.644118387839778
19200.0000000011,10.1676149635333,1.00000000196074,0.647289866945006
19299.9999999996,10.1895818864283,1.00000000223258,0.649255114792818
19399.9999999982,10.2349060550978,1.00000000203086,0.641478134690621
19499.9999999967,10.275598543753,1.0000000020682,0.630117251697835
19599.9999999953,10.3216352289832,1.00000000196119,0.619654377977538
19699.9999999938,10.3456705580633,1.00000000186428,0.609125716211584
19799.9999999924,10.3487848919698,1.00000000158672,0.589933032991817
19899.9999999909,10.3266422076015,1.00000000142528,0.556030581306904
19999.9999999895,10.2858398999386,1.00000000125249,0.527921552889657
20099.999999988,10.2453307844457,1.00000000122295,0.499296092748572
20199.9999999865,10.2233214542002,1.00000000113697,0.472037718526017
20299.9999999851,10.2451197268232,1.00000000105666,0.447560664643241
20399.9999999836,10.3320008165228,1.00000000103951,0.428626493306828
20499.9999999822,10.5084884215098,1.00000000104588,0.424947574075289
20599.9999999807,10.7708188852049,1.00000000117911,0.424320136354394
20699.9999999793,11.1437380671706,1.00000000136809,0.43708844178244
20799.9999999778,11.5722604484918,1.00000000151279,0.443216201138117
20899.9999999764,12.0860489742403,1.0000000017292,0.450552829880534
20999.9999999749,12.6073778694215,1.00000000171729,0.462185291248512
21099.9999999734,13.1714249672844,1.0000000018107,0.467351507748446
21199.999999972,13.7214124125294,1.00000000184822,0.485806821189953
21299.9999999705,14.2723200794598,1.00000000194092,0.490418852523652
21399.9999999691,14.8073073899718,1.0000000019614,0.512762418448217
21499.9999999676,15.3169619692106,1.0000000019143,0.518869876071908
21599.9999999662,15.8180340757671,1.00000000189482,0.530754342589719
21699.9999999647,16.2908609407995,1.00000000181457,0.539958454547932
21799.9999999633,16.7619113780492,1.00000000188755,0.547970223857047
21899.9999999618,17.2038774118744,1.0000000019467,0.558843489883323
21999.9999999603,17.6294606171096,1.00000000179121,0.564613885818787
22099.9999999589,18.0414981424338,1.00000000183094,0.580745112932313
22199.9999999574,18.4213694508016,1.00000000189183,0.58680030231187
22299.999999956,18.7873867446079,1.00000000182471,0.604645847750533
22399.9999999545,19.1235033144523,1.00000000178426,0.615631168622815
22499.9999999531,19.4489940457917,1.00000000191192,0.614429019803282
22599.9999999516,19.735120529387,1.00000000192868,0.618313233334966
22699.9999999502,19.9986082415794,1.00000000182176,0.635771009517509
22799.9999999487,20.2362081308163,1.00000000193852,0.636207422973033
22899.9999999473,20.4479863057616,1.00000000178594,0.632373675874837
22999.9999999458,20.6393668987181,1.00000000192934,0.637374308019677
23099.9999999443,20.8006180766659,1.00000000181058,0.638490730334878
23199.9999999429,20.9474999704184,1.00000000196553,0.652019855628532
23299.9999999414,21.0720464466242,1.00000000180511,0.639038041846444
23399.99999994,21.1852288124076,1.00000000176933,0.642648670633026
23499.9999999385,21.278963216862,1.0000000019249,0.655709685956869
23599.9999999371,21.3588699798009,1.00000000169359,0.644912057873287
23699.9999999356,21.4270532331032,1.00000000209086,0.65130131405549
23799.9999999342,21.4849390398243,1.00000000175443,0.644688274595685
23899.9999999327,21.5425938722038,1.00000000182612,0.645954801075068
23999.9999999312,21.5938315653525,1.00000000180062,0.650483633340222
24099.9999999298,21.6339758212214,1.00000000217955,0.660273376520746
24199.9999999283,21.6542261401694,1.00000000214535,0.661213727930511
24299.9999999269,21.6651506328787,1.00000000176601,0.648847464548317
24399.9999999254,21.6779415835152,1.00000000171201,0.634569250921715
24499.999999924,21.693429754038,1.00000000172109,0.622092604718982
24599.9999999225,21.7075157193318,1.00000000196472,0.638187282447198
24699.9999999211,21.7140797185561,1.0000000019705,0.629660886237776
24799.9999999196,21.7176144932162,1.0000000019654,0.632191403270398
24899.9999999181,21.7117062567845,1.0000000019009,0.639852292232179
24999.9999999167,21.7017185994564,1.00000000221865,0.637458828742954
25099.9999999152,21.6867773882533,1.00000000188293,0.633554223165849
25199.9999999138,21.6755051986206,1.00000000177587,0.602544928184003
25299.9999999123,21.6708200898986,1.00000000179704,0.611970681839135
25399.9999999109,21.6601297451351,1.00000000215256,0.629843793767384
25499.9999999094,21.6378395528955,1.00000000184598,0.628556560295129
25599.999999908,21.6100761439897,1.00000000173114,0.631097840750772
25699.9999999065,21.5879513879159,1.00000000179612,0.629777572686088
25799.9999999051,21.5705409251411,1.00000000182028,0.643745292752806
25899.9999999036,21.5481799580941,1.00000000194932,0.649359758760323
25999.9999999021,21.517973473964,1.00000000182507,0.650834315146617
26099.9999999007,21.4843181581603,1.00000000199218,0.641309837096623
26199.9999998992,21.4537288889653,1.00000000170717,0.62741280574939
26299.9999998978,21.42778877946,1.00000000181408,0.621066785602657
26399.9999998963,21.4041015069342,1.00000000187129,0.620963895525428
26499.9999998949,21.3796161035865,1.00000000179054,0.630415725675729
26599.9999998934,21.3627210387294,1.00000000159489,0.605828036590744
26699.999999892,21.3535280580651,1.00000000189416,0.62759502988577
26799.9999998905,21.3402176110993,1.00000000216501,0.65000457613435
26899.999999889,21.3184128075626,1.00000000203205,0.640951924117328
26999.9999998876,21.290043567883,1.00000000195304,0.638490544957617
27099.9999998861,21.2660494118549,1.00000000170789,0.626818359768197
27199.9999998847,21.2472850744984,1.00000000200726,0.652393304030322
27299.9999998832,21.2226717697352,1.00000000199008,0.651950710964368
27399.9999998818,21.1923326795871,1.00000000183414,0.647037415581756
27499.9999998803,21.1602511689067,1.00000000181188,0.639612547480522
27599.9999998789,21.1283517446668,1.00000000182707,0.64424964076304
27699.9999998774,21.0944795597284,1.00000000202144,0.631981137207262
27799.9999998759,21.0621378019296,1.00000000194903,0.630328925796945
27899.9999998745,21.0281647286119,1.00000000200943,0.632115308078354
27999.999999873,20.9932889752897,1.00000000163546,0.621899682816474
28099.9999998716,20.9616779015918,1.00000000179092,0.626464804304682
28199.9999998701,20.9322605784921,1.00000000191232,0.632916850084853
28299.9999998687,20.9035733427574,1.00000000192865,0.634704427929567
28399.9999998672,20.8714589859861,1.00000000183823,0.636692626389692
28499.9999998658,20.8378196333819,1.00000000202355,0.64009369590858
28599.9999998643,20.8010657285912,1.00000000192661,0.644087729341076
28699.9999998629,20.7610469037243,1.0000000020427,0.640037980161142
28799.9999998614,20.72002504448,1.0000000019455,0.635523735057031
28899.9999998599,20.6809863171694,1.00000000195975,0.63254911534137
28999.9999998585,20.6410334108815,1.00000000214155,0.639863681630162
29099.999999857,20.5987336527435,1.00000000191368,0.655414393419599
