Time,AGPnorm,Energy,Entropy
0,0,1,-7.79576721321256e-17
99.9999999999986,0.00110803919869796,1.0000000000016,0.00352962336121688
199.999999999993,0.00709065897421979,1.00000000000169,0.010524348032261
300,0.0147260274373939,1.00000000000035,0.0194386156190334
400.000000000022,0.0222641217690898,0.999999999999817,0.0304572362007237
500.000000000045,0.0315353140550227,1.00000000000066,0.0438755478391801
600.000000000068,0.0435939998513989,1.00000000000158,0.0594907113768963
700.000000000091,0.0557486576480505,1.00000000000113,0.0768738436900503
800.000000000113,0.0685993632725437,1.00000000000029,0.096235388613412
900.000000000136,0.0821470241640068,1.00000000000023,0.118386220077624
1000.00000000016,0.0965842377704957,1.00000000000165,0.144296199630447
1100.0000000001,0.110547753357107,1.00000000000568,0.175057662701393
1200,0.125947445740265,1.00000000002728,0.212209548082669
1299.99999999991,0.141553527252835,1.00000000010136,0.25574281016887
1399.99999999982,0.157552704337542,1.00000000022442,0.301960445275337
1499.99999999973,0.204271674302824,1.00000000043897,0.346119269694658
1599.99999999964,0.346819280803643,1.00000000067005,0.385412952704113
1699.99999999955,0.6310936831102,1.00000000083927,0.419678786267711
1799.99999999946,1.11546087929008,1.00000000109405,0.449141566432408
1899.99999999937,1.89901530048016,1.00000000115719,0.474715965599903
1999.99999999928,3.07286617466955,1.00000000126378,0.496064551684828
2099.99999999919,4.66930370026857,1.00000000143463,0.5139560393045
2199.99999999909,6.69182510470082,1.00000000143693,0.528867533831992
2299.999999999,9.14236235261592,1.00000000147088,0.541146527333648
2399.99999999891,12.0050872784114,1.000000001526,0.550856841480864
2499.99999999882,15.232772796229,1.00000000156098,0.558886568735704
2599.99999999873,18.7727690036905,1.00000000152378,0.564699433678777
2699.99999999864,22.5597913359751,1.00000000147677,0.569511325078108
2799.99999999855,26.5186824689591,1.00000000142459,0.572591591085783
2899.99999999846,30.5750487462071,1.00000000150791,0.574838044772047
2999.99999999837,34.6759790220063,1.00000000147763,0.575760323565017
3099.99999999828,38.7658173302133,1.00000000139911,0.575987934022473
3199.99999999819,42.7785046444143,1.00000000136009,0.575618615924823
3299.99999999809,46.6542658654831,1.00000000135716,0.574864579067958
3399.999999998,50.3585399315648,1.00000000122199,0.573654384191338
3499.99999999791,53.8717939153739,1.00000000120478,0.572267078361781
3599.99999999782,57.1592127459222,1.00000000122248,0.571664692906646
3699.99999999773,60.1869258217208,1.00000000115852,0.568733732038149
3799.99999999764,62.9462084086456,1.00000000112441,0.566154632840345
3899.99999999755,65.4281309332348,1.000000001067,0.5667995672064
3999.99999999746,67.6317224455179,1.00000000104689,0.563002746467154
4099.99999999738,69.5603696116568,1.00000000103591,0.561187606704318
4199.99999999775,71.2028009149216,1.00000000104081,0.559219821588951
4299.99999999811,72.5705890411448,1.00000000093645,0.560632003633721
4399.99999999848,73.6827356915813,1.00000000089307,0.553921734886861
4499.99999999884,74.542269647654,1.00000000090135,0.556928405184523
4599.9999999992,75.1809005587842,1.00000000089051,0.55833918629101
4699.99999999957,75.5895329533019,1.00000000080498,0.542793184177993
4799.99999999993,75.7921434102793,1.00000000089791,0.563995459528384
4900.00000000029,75.8494784342991,1.00000000087958,0.55212131214927
5000.00000000066,75.7172445048244,1.00000000071315,0.530903479096696
5100.00000000102,75.4498587043698,1.00000000097504,0.572193919388491
5200.00000000139,75.1081601990135,1.00000000087807,0.548036991952831
5300.00000000175,74.6210781298207,1.00000000060976,0.511484310794108
5400.00000000211,74.0312242331893,1.00000000097009,0.565046830206303
5500.00000000248,73.4367438684763,1.00000000103942,0.56456912331424
5600.00000000284,72.7718292599033,1.00000000059719,0.496505834864174
5700.00000000321,71.9942855697935,1.00000000073963,0.519843141092929
5800.00000000357,71.2129458653339,1.00000000116556,0.579681344333834
5900.00000000393,70.4623268825154,1.0000000009644,0.538939910958316
6000.0000000043,69.6540113990718,1.00000000052455,0.466131981927438
6100.00000000466,68.7750412021169,1.00000000080802,0.50814963050733
6200.00000000502,67.9149702391177,1.00000000124697,0.575919382444029
6300.00000000539,67.1048902564429,1.00000000108136,0.54549263255817
6400.00000000575,66.281763154174,1.00000000059008,0.46097636961251
6500.00000000612,65.409137423853,1.00000000059264,0.456113524405588
6600.00000000648,64.5291100869512,1.00000000106675,0.53401045102749
6700.00000000684,63.6923252700586,1.00000000125085,0.567646879655998
6800.00000000721,62.8943271273641,1.00000000100518,0.520002986742053
6900.00000000757,62.0920035623875,1.00000000059486,0.450532393407313
7000.00000000793,61.2706990915339,1.00000000060463,0.445502926913947
7100.0000000083,60.4483138789551,1.00000000093629,0.504462556699638
7200.00000000866,59.651866231896,1.00000000119349,0.550416614241009
7300.00000000903,58.8900639667088,1.00000000108773,0.540768863634303
7400.00000000939,58.1470798118672,1.00000000082269,0.490234520892281
7500.00000000975,57.4083304273546,1.00000000061207,0.450783271123728
7600.00000001012,56.6745229294522,1.00000000068544,0.460200105023319
7700.00000001048,55.9506203300365,1.00000000086898,0.490450662577501
7800.00000001084,55.2433788578792,1.00000000103703,0.524268523031803
7900.00000001121,54.5559765416004,1.00000000112535,0.536933369912202
8000.00000001157,53.8872616474251,1.00000000097154,0.523312753655965
8100.00000001194,53.2339174001584,1.00000000073055,0.475455733773184
8200.0000000123,52.5968724029282,1.00000000068653,0.462456060872038
8300.00000001266,51.9780927205412,1.00000000083032,0.477650515043635
8400.00000001303,51.375484172566,1.00000000082299,0.497013964006534
8500.00000001339,50.7889595868945,1.00000000081179,0.495764670831168
8600.00000001376,50.2168590688996,1.00000000091011,0.514969369904839
8700.00000001412,49.6554134371923,1.00000000114335,0.533131591145583
8800.00000001448,49.102979390375,1.00000000098996,0.526047471109504
8900.00000001485,48.5672215177256,1.00000000077778,0.488647255919085
9000.00000001521,48.0559718232633,1.00000000063241,0.464274694193005
9100.00000001557,47.5670728047082,1.00000000083358,0.480693813220656
9200.00000001594,47.0910117376231,1.00000000096674,0.497676083794935
9300.0000000163,46.6257405942818,1.00000000087142,0.509450805468709
9400.00000001667,46.1789814632596,1.00000000073942,0.485521510756614
9500.00000001703,45.7492257568844,1.00000000085457,0.498806550804525
9600.00000001739,45.3266821449238,1.00000000105266,0.527703203694492
9700.00000001776,44.9024560574702,1.00000000113324,0.537937387363208
9800.00000001812,44.481067187199,1.00000000097619,0.52298857311313
9900.00000001848,44.0773571407034,1.00000000071983,0.488377162718668
10000.0000000188,43.7005498264948,1.00000000072965,0.472590646256432
10100.0000000192,43.3476125016725,1.00000000078327,0.47974836599969
10200.0000000196,43.0050949634904,1.00000000100148,0.496882766096023
10300.0000000199,42.6655811060149,1.00000000102701,0.505860188075273
10400.0000000203,42.3324461467107,1.00000000092136,0.514488912369923
10500.0000000207,42.014498934376,1.00000000074065,0.50039858788525
10600.000000021,41.7128214458783,1.00000000081672,0.49947915848187
10700.0000000214,41.4176799398771,1.00000000089843,0.519428129184534
10800.0000000218,41.1218337832204,1.00000000097221,0.532359913991292
10900.0000000221,40.8215544635399,1.00000000108011,0.540173334897471
11000.0000000225,40.5218401361595,1.00000000099265,0.533636357023195
11100.0000000229,40.2337896144632,1.00000000077643,0.509060637969094
11200.0000000232,39.9687266350554,1.00000000072315,0.489461816952051
11300.0000000236,39.7270055938626,1.00000000079627,0.492466507047466
11400.0000000239,39.5007250911891,1.00000000084388,0.49846311740266
11500.0000000243,39.2857807519762,1.00000000085636,0.503161652318947
11600.0000000247,39.0769320810024,1.00000000088612,0.509556908365613
11700.000000025,38.874201944819,1.00000000086903,0.502993799151767
11800.0000000254,38.6754297059326,1.00000000088907,0.522611853334311
11900.0000000258,38.4758849954943,1.00000000098514,0.535183088382359
12000.0000000261,38.2797171914809,1.00000000091182,0.538263172917474
12100.0000000265,38.0853560114464,1.00000000084698,0.534880536925159
12200.0000000269,37.8965735309528,1.00000000080591,0.531474596981979
12300.0000000272,37.712311705693,1.00000000092087,0.526370880751402
12400.0000000276,37.5284023351901,1.00000000099454,0.536912336761054
12500.0000000279,37.3398816572171,1.00000000110428,0.54372472005364
12600.0000000283,37.1491728738936,1.0000000009174,0.53627051156355
12700.0000000287,36.9706493776319,1.00000000077081,0.523278094811037
12800.000000029,36.8154053577129,1.0000000007121,0.506303732142125
12900.0000000294,36.6820327804067,1.00000000076651,0.4969262121953
13000.0000000298,36.5595773471593,1.00000000091511,0.507083430474809
13100.0000000301,36.4373608278533,1.00000000097182,0.517964005181467
13200.0000000305,36.3190777663868,1.0000000008419,0.506349090493561
13300.0000000309,36.2120424652898,1.00000000081496,0.505912899758482
13400.0000000312,36.1168736821009,1.00000000085689,0.516104440250689
13500.0000000316,36.029548867042,1.0000000008712,0.522646064267137
13600.0000000319,35.9441933968559,1.00000000093266,0.527776693915036
13700.0000000323,35.8496381770899,1.00000000100593,0.54085481175367
13800.0000000327,35.7420903722399,1.0000000010311,0.553001834510761
13900.000000033,35.6244591606044,1.00000000096867,0.560438199561937
14000.0000000334,35.5017132162736,1.00000000090373,0.560158475048174
14100.0000000338,35.3797617741016,1.00000000083915,0.558099443020208
14200.0000000341,35.2630373914321,1.0000000008414,0.552547424241079
14300.0000000345,35.1509649333558,1.00000000087854,0.544150264795927
14400.0000000349,35.0412965769718,1.00000000095074,0.53984430347867
14500.0000000352,34.9314160706096,1.00000000100743,0.544540688465436
14600.0000000356,34.8186255283388,1.0000000009979,0.549582565940461
14700.0000000359,34.7053020840075,1.00000000092739,0.552292441402332
14800.0000000363,34.602129572353,1.00000000080873,0.54369142387169
14900.0000000367,34.5169097881641,1.00000000078257,0.531706985792771
15000.000000037,34.4493885649611,1.00000000079041,0.520276846787167
15100.0000000374,34.3942494999494,1.00000000084749,0.523146920601395
15200.0000000378,34.3494686176219,1.00000000090031,0.521403271937807
15300.0000000381,34.3086032601623,1.00000000087652,0.517395049674341
15400.0000000385,34.2670545344663,1.00000000090775,0.515926512754557
15500.0000000389,34.2316650233624,1.00000000080776,0.515368543302856
15600.0000000392,34.2059385339951,1.00000000084973,0.522741331412738
15700.0000000396,34.1840805751975,1.00000000088659,0.537206350417053
15800.0000000399,34.1593789585947,1.00000000092824,0.551876096014786
15900.0000000403,34.1304345554826,1.00000000094777,0.560114064231758
16000.0000000407,34.1001644899161,1.00000000090977,0.562258917498881
16100.000000041,34.0720662662322,1.00000000082487,0.563122248095472
16200.0000000414,34.0473078218205,1.00000000080502,0.558435907258229
16300.0000000418,34.0185725852456,1.00000000091942,0.560549804767767
16400.0000000418,33.9799711954916,1.00000000101394,0.571461536548798
16500.0000000404,33.9286592725828,1.0000000010012,0.567446687919694
16600.0000000389,33.8639813544533,1.00000000101686,0.566845128408778
16700.0000000375,33.7871249096902,1.00000000096383,0.573368584281562
16800.000000036,33.7023498738367,1.0000000009238,0.5813887249427
16900.0000000346,33.6174595223759,1.00000000081796,0.577070148777648
17000.0000000331,33.5379586157887,1.00000000075727,0.564830073896677
17100.0000000317,33.4655449874144,1.00000000084092,0.560424994164359
17200.0000000302,33.3989481264392,1.00000000086576,0.558683265166555
17300.0000000287,33.3340741247737,1.00000000095896,0.557650396603593
17400.0000000273,33.2692548119396,1.00000000098719,0.560234987036579
17500.0000000258,33.2029285235723,1.0000000009415,0.563407167620343
17600.0000000244,33.1355032143178,1.00000000097327,0.568637158707406
17700.0000000229,33.0723543554183,1.00000000090533,0.565993475746628
17800.0000000215,33.0202730865811,1.00000000079773,0.556620252199781
17900.00000002,32.9833094192747,1.00000000079089,0.551425930263161
18000.0000000186,32.9616815183577,1.00000000080173,0.543767144878732
18100.0000000171,32.9515960692316,1.00000000086923,0.537787647081097
18200.0000000156,32.9479429686206,1.00000000095212,0.536048150658454
18300.0000000142,32.9453402849571,1.00000000090267,0.533491546810176
18400.0000000127,32.9470822607544,1.0000000008283,0.536155724755969
18500.0000000113,32.9565427519897,1.00000000081381,0.534188337949064
18600.0000000098,32.9724944103563,1.00000000087199,0.53326906242596
18700.0000000084,32.9900789081329,1.0000000009321,0.534730512348505
18800.0000000069,33.007484839226,1.00000000088555,0.536688222113361
18900.0000000055,33.0256952298703,1.00000000083441,0.532232162243962
19000.000000004,33.044714518898,1.00000000092226,0.540391967999555
19100.0000000026,33.0603818837505,1.00000000096368,0.556852461534841
19200.0000000011,33.0711322283801,1.0000000009248,0.57116862267283
19299.9999999996,33.0791950774269,1.00000000088707,0.571582003290593
19399.9999999982,33.0859745852951,1.00000000087581,0.570450732966928
19499.9999999967,33.0925876857682,1.00000000090649,0.571897279370207
19599.9999999953,33.0970235960663,1.00000000092929,0.574719594880058
19699.9999999938,33.0950564049054,1.00000000097816,0.581871394045947
19799.9999999924,33.0861471539406,1.00000000095691,0.589353226131386
19899.9999999909,33.0730919464532,1.00000000089906,0.597955900420936
19999.9999999895,33.0580327554259,1.0000000009036,0.599047980748517
20099.999999988,33.0385433699986,1.00000000092088,0.59671144390143
20199.9999999865,33.0137586652752,1.00000000090362,0.595321138361159
20299.9999999851,32.9854275906693,1.00000000090184,0.592422768415572
20399.9999999836,32.9532173213845,1.00000000096089,0.587275338075264
20499.9999999822,32.9148120087701,1.00000000096375,0.57649164448802
20599.9999999807,32.8680025900259,1.00000000095093,0.573899328046429
20699.9999999793,32.812545504681,1.00000000098139,0.586867708144618
20799.9999999778,32.7482271729691,1.00000000093615,0.591471556140108
20899.9999999764,32.6779703488777,1.0000000009302,0.594250193410051
20999.9999999749,32.6051073980391,1.00000000091089,0.592467241592726
21099.9999999734,32.5341334950346,1.0000000008886,0.591223995223022
21199.999999972,32.467159090588,1.00000000081321,0.588082849298742
21299.9999999705,32.4050378268034,1.00000000084515,0.590267808886324
21399.9999999691,32.3462732061311,1.00000000085178,0.587380807896209
21499.9999999676,32.2903438965614,1.0000000009261,0.581711324685181
21599.9999999662,32.238009886694,1.00000000095964,0.58320013272499
21699.9999999647,32.1880763378385,1.00000000095711,0.583168345943596
21799.9999999633,32.1399852943916,1.00000000096039,0.581731073494659
21899.9999999618,32.0927425845984,1.00000000097788,0.576155088857264
21999.9999999603,32.0462339019485,1.00000000098539,0.569436772832709
22099.9999999589,32.0019568736533,1.00000000091768,0.568706576135725
22199.9999999574,31.9647122786964,1.00000000081893,0.567790421004997
22299.999999956,31.938735960978,1.00000000081858,0.564507936473882
22399.9999999545,31.9258319170048,1.00000000083592,0.565756978505564
22499.9999999531,31.9240207224701,1.00000000091736,0.561111917675919
22599.9999999516,31.9307198075115,1.00000000088751,0.557938265247155
22699.9999999502,31.9449540657806,1.00000000095011,0.55708439777834
22799.9999999487,31.9635046739793,1.00000000090772,0.550798086137775
22899.9999999473,31.9847869483732,1.00000000090278,0.548193970854057
22999.9999999458,32.0099266871787,1.0000000009163,0.542630603581868
23099.9999999443,32.040228920011,1.00000000084193,0.543022370244514
23199.9999999429,32.0751828997409,1.00000000086519,0.545927593392745
23299.9999999414,32.1132354467938,1.00000000096305,0.54882849034684
23399.99999994,32.1535597744271,1.00000000088605,0.548760943413854
23499.9999999385,32.1957097306897,1.00000000093195,0.549385983786114
23599.9999999371,32.2386585896718,1.00000000093114,0.553312823580712
23699.9999999356,32.2785058709009,1.0000000009637,0.558791931877411
23799.9999999342,32.3137264793402,1.00000000096257,0.5677867694605
23899.9999999327,32.3447066041862,1.00000000090874,0.574975318845592
23999.9999999312,32.3733811597787,1.00000000092354,0.579324352721006
24099.9999999298,32.4009019791497,1.00000000093762,0.586996209439976
24199.9999999283,32.4256827970649,1.00000000095328,0.591084345444351
24299.9999999269,32.4458356100754,1.00000000090682,0.601806134148105
24399.9999999254,32.4624483014089,1.00000000097131,0.605437710120854
24499.999999924,32.4768331049447,1.00000000097824,0.605643900346862
24599.9999999225,32.4895163267377,1.00000000092871,0.607319396011571
24699.9999999211,32.500789256138,1.00000000093584,0.610821041672988
24799.9999999196,32.5106809989818,1.00000000098056,0.603439646019066
24899.9999999181,32.519069318957,1.00000000090075,0.5956129773188
24999.9999999167,32.5265041349023,1.00000000095866,0.59763692592955
25099.9999999152,32.53026489512,1.00000000100193,0.597761823351658
25199.9999999138,32.5285855758567,1.00000000095001,0.606878716602748
25299.9999999123,32.5230640026502,1.00000000093931,0.614984092063925
25399.9999999109,32.5145775027749,1.00000000092299,0.614767578606271
25499.9999999094,32.5042898247538,1.00000000092124,0.616872371374853
25599.999999908,32.4913059632716,1.00000000097312,0.618254221349974
25699.9999999065,32.4769080560932,1.00000000094476,0.618494207950556
25799.9999999051,32.4634175825792,1.00000000088152,0.609050245776756
25899.9999999036,32.4498205681501,1.00000000094768,0.60171974829268
25999.9999999021,32.4329071828584,1.00000000098967,0.599911030617417
26099.9999999007,32.4124703419222,1.00000000098274,0.599108718737952
26199.9999998992,32.3885950257794,1.00000000095439,0.605639728037447
26299.9999998978,32.3594139231983,1.00000000101585,0.606295288124589
26399.9999998963,32.3260573675244,1.00000000102312,0.608384683811581
26499.9999998949,32.291999583425,1.00000000094794,0.613413881714624
26599.9999998934,32.2579064103323,1.00000000090847,0.614206197590452
26699.999999892,32.2233594506995,1.0000000009149,0.612127294114929
26799.9999998905,32.1875892273046,1.00000000094927,0.620086143748606
26899.999999889,32.1496684416738,1.00000000096458,0.619866685706922
26999.9999998876,32.1097960285212,1.00000000093315,0.613364160076594
27099.9999998861,32.068060551579,1.00000000092754,0.611406196030166
27199.9999998847,32.0238418012678,1.00000000096537,0.610339774015421
27299.9999998832,31.9769034442254,1.00000000091696,0.6078382373012
27399.9999998818,31.9269467106717,1.00000000102958,0.611126598490824
27499.9999998803,31.8744828055427,1.00000000098044,0.612930764230076
27599.9999998789,31.8188852863637,1.00000000098203,0.611053289434172
27699.9999998774,31.760251947015,1.00000000100343,0.615280874841841
27799.9999998759,31.6980420853358,1.00000000103693,0.622213612959867
27899.9999998745,31.6328049126731,1.00000000101084,0.627768045123874
27999.999999873,31.5650774243737,1.00000000098421,0.627073279435874
28099.9999998716,31.4958194955434,1.00000000097346,0.624267889816247
28199.9999998701,31.4272811768012,1.0000000009386,0.617607125991216
28299.9999998687,31.360639823226,1.00000000086774,0.610206642137245
28399.9999998672,31.2973917666407,1.00000000091197,0.603881803754564
28499.9999998658,31.2377620683983,1.00000000089864,0.601198318308819
28599.9999998643,31.1805418996329,1.0000000009323,0.607903864327828
28699.9999998629,31.1261679669116,1.00000000095168,0.615312897008172
28799.9999998614,31.0754288040856,1.00000000093455,0.616415829835247
28899.9999998599,31.0271758633701,1.00000000103236,0.619376700945574
28999.9999998585,30.9810412455697,1.00000000102667,0.616352948776559
