Time,AGPnorm,Energy,Entropy
0,0,1,-7.53262860754205e-17
99.9999999999986,0.00113979401883442,1.00000000000084,0.0038354593390545
199.999999999993,0.00763831369373864,0.999999999999571,0.0113262704961277
300,0.0161467352524773,0.999999999998497,0.0207482561097178
400.000000000022,0.0241680495578235,0.999999999999527,0.0325516401982525
500.000000000045,0.034038427555018,1.00000000000037,0.0470306354660206
600.000000000068,0.0466547152487165,0.999999999999957,0.0637795854474894
700.000000000091,0.0606299517024094,0.999999999999051,0.0824377743260361
800.000000000113,0.0732008826391816,0.999999999999212,0.103271791276016
900.000000000136,0.0882671911170638,1.00000000000046,0.127731286347024
1000.00000000016,0.102301367912018,1.00000000000103,0.156582493963891
1100.0000000001,0.118152982105162,1.00000000001092,0.191497345728829
1200,0.134057435613391,1.00000000005808,0.233652786616701
1299.99999999991,0.153386237894388,1.00000000019144,0.28106242759431
1399.99999999982,0.178485658676013,1.00000000037026,0.328858862364386
1499.99999999973,0.263756773583658,1.00000000060532,0.371768289454176
1599.99999999964,0.488434838081446,1.00000000087925,0.409442989306536
1699.99999999955,0.900390912018582,1.00000000114316,0.441517656057674
1799.99999999946,1.56807284501519,1.00000000124893,0.4699258377305
1899.99999999937,2.59842930713962,1.00000000134434,0.493138679351819
1999.99999999928,4.05845848986149,1.00000000151035,0.512526187750786
2099.99999999919,5.94872501808786,1.0000000015015,0.528657434849131
2199.99999999909,8.25288268471842,1.00000000157525,0.542205756288983
2299.999999999,10.9743607641177,1.00000000165855,0.55225740875632
2399.99999999891,14.0707132652285,1.00000000168366,0.560876709950028
2499.99999999882,17.4683583125655,1.00000000168243,0.567090233627819
2599.99999999873,21.0986704767186,1.00000000162578,0.572321177184389
2699.99999999864,24.9033076370149,1.00000000158286,0.575401018909141
2799.99999999855,28.813361150579,1.00000000157162,0.577512772104166
2899.99999999846,32.7427905035981,1.00000000154329,0.578803780100971
2999.99999999837,36.636457818994,1.00000000150913,0.579064500999101
3099.99999999828,40.4447202529492,1.00000000147299,0.578719535972759
3199.99999999819,44.1197432066113,1.00000000146235,0.577505021520925
3299.99999999809,47.6099432102355,1.00000000138513,0.576226772931367
3399.999999998,50.8805532388736,1.00000000129995,0.57388347445635
3499.99999999791,53.9205257035175,1.00000000124452,0.572833370174289
3599.99999999782,56.7052736023149,1.00000000128541,0.572451148253809
3699.99999999773,59.2179373486798,1.00000000122191,0.568078291916202
3799.99999999764,61.4522780625372,1.00000000112771,0.565610082413877
3899.99999999755,63.4028653089994,1.00000000115727,0.56608664178292
3999.99999999746,65.0765140380535,1.00000000104226,0.564090722928459
4099.99999999738,66.4845387398902,1.00000000099887,0.558803448494441
4199.99999999775,67.6239917054655,1.00000000100081,0.562428374377622
4299.99999999811,68.5135296643175,1.00000000097582,0.557596784711205
4399.99999999848,69.1576729791084,1.00000000092934,0.554437967502758
4499.99999999884,69.5960805425444,1.0000000009805,0.564080752661594
4599.9999999992,69.8324491942785,1.00000000081908,0.54181572147251
4699.99999999957,69.8716434899477,1.00000000097088,0.564434122570135
4799.99999999993,69.7843508756378,1.00000000095115,0.557522873483262
4900.00000000029,69.5321358568942,1.00000000076772,0.529284322548493
5000.00000000066,69.1544134296398,1.0000000010394,0.570378161072552
5100.00000000102,68.7276651751141,1.0000000009427,0.549607689226657
5200.00000000139,68.1745827506611,1.0000000006305,0.509551520898828
5300.00000000175,67.5301087511115,1.00000000108597,0.567985525991703
5400.00000000211,66.8951087227953,1.00000000111248,0.561521111265593
5500.00000000248,66.1983556425353,1.00000000062809,0.493967586449362
5600.00000000284,65.4119407274443,1.00000000083105,0.524146116585333
5700.00000000321,64.6382170330027,1.00000000128125,0.58078145695122
5800.00000000357,63.889044439449,1.00000000092722,0.525157321714375
5900.00000000393,63.0833669572992,1.00000000059493,0.466768353846669
6000.0000000043,62.2335846399599,1.00000000098339,0.521374391184943
6100.00000000466,61.4167246970847,1.00000000132415,0.575534616770201
6200.00000000502,60.6380716903742,1.00000000097914,0.520819015106229
6300.00000000539,59.8371285341713,1.00000000063883,0.455199930814342
6400.00000000575,59.004596328275,1.00000000077189,0.474580467709936
6500.00000000612,58.1838914358279,1.00000000124224,0.547501349422811
6600.00000000648,57.405707687235,1.00000000126237,0.553890989025831
6700.00000000684,56.6496151593568,1.00000000091665,0.492102707343897
6800.00000000721,55.8863989229949,1.0000000006525,0.451295273920656
6900.00000000757,55.1164241307197,1.00000000080222,0.47138839579537
7000.00000000793,54.3581830091066,1.00000000112976,0.520729286851254
7100.0000000083,53.6270718309797,1.00000000122478,0.547369988873592
7200.00000000866,52.921539749221,1.00000000102976,0.517794153812103
7300.00000000903,52.2280335195817,1.00000000074419,0.46841715940815
7400.00000000939,51.5433601657782,1.00000000075053,0.464425476669564
7500.00000000975,50.8696816838282,1.00000000087411,0.488195597905112
7600.00000001012,50.2094366744767,1.00000000096743,0.502620162525479
7700.00000001048,49.5661325774614,1.00000000108932,0.52974723750592
7800.00000001084,48.9400687876286,1.000000001084,0.528244360687394
7900.00000001121,48.3298371168168,1.00000000088644,0.499151267964001
8000.00000001157,47.7375115007609,1.0000000007503,0.468205164110372
8100.00000001194,47.1648066352753,1.00000000090169,0.482628096115023
8200.0000000123,46.6071520136843,1.00000000096703,0.505788960393219
8300.00000001266,46.064882942456,1.00000000086151,0.493593385773407
8400.00000001303,45.5396296627437,1.00000000091373,0.500265930514879
8500.00000001339,45.0256589785945,1.00000000110034,0.525889799115049
8600.00000001376,44.5185058819327,1.0000000011316,0.528947537633246
8700.00000001412,44.0246362084202,1.00000000084571,0.498995510981737
8800.00000001448,43.5545218076882,1.00000000072264,0.469764992357672
8900.00000001485,43.107499778543,1.00000000083365,0.484733951876802
9000.00000001521,42.6728212601488,1.00000000104449,0.501642568020338
9100.00000001557,42.2459916106522,1.00000000095598,0.515866741761419
9200.00000001594,41.8354290839069,1.00000000078942,0.487564801088315
9300.0000000163,41.4437259665557,1.00000000083708,0.490061602192237
9400.00000001667,41.0601374729324,1.00000000104778,0.521757727387614
9500.00000001703,40.6762742191449,1.00000000123932,0.536230427920875
9600.00000001739,40.2946591038173,1.00000000100248,0.519661216114323
9700.00000001776,39.928840594226,1.00000000080902,0.494646721490652
9800.00000001812,39.5877906224183,1.00000000078487,0.48307816892908
9900.00000001848,39.2679712010775,1.00000000087044,0.491077005597253
10000.0000000188,38.9593606620658,1.0000000009921,0.50254350073694
10100.0000000192,38.652079204357,1.00000000105345,0.506233291294172
10200.0000000196,38.3499300554037,1.00000000099158,0.517914519230276
10300.0000000199,38.0619192913864,1.00000000082332,0.509196620170983
10400.0000000203,37.7880288612846,1.00000000087956,0.505005743620926
10500.0000000207,37.5199832469188,1.00000000098863,0.521106292732556
10600.000000021,37.2537993901383,1.00000000102783,0.530998949531181
10700.0000000214,36.9865709487297,1.00000000104164,0.532575143502736
10800.0000000218,36.7203249453753,1.00000000108965,0.531132350776136
10900.0000000221,36.4683390156917,1.00000000087533,0.511503473164869
11000.0000000225,36.2390390341013,1.00000000078169,0.493177165228157
11100.0000000229,36.0269204423442,1.00000000093566,0.504648266358092
11200.0000000232,35.8246674010237,1.0000000009083,0.510458355336873
11300.0000000236,35.6325096116417,1.00000000089356,0.508458981565384
11400.0000000239,35.4484577199468,1.00000000091085,0.51078095850142
11500.0000000243,35.270331047379,1.0000000009764,0.507367469461792
11600.0000000247,35.0925849231741,1.00000000103965,0.533752510616438
11700.000000025,34.9120209355479,1.00000000095909,0.540980032453172
11800.0000000254,34.7323826349188,1.00000000097736,0.545287507106974
11900.0000000258,34.5562539791366,1.00000000089524,0.5363770341768
12000.0000000261,34.3868513875225,1.00000000092862,0.531244891885582
12100.0000000265,34.2224167079541,1.00000000099633,0.531754796178128
12200.0000000269,34.0579191425831,1.00000000100921,0.53600578345364
12300.0000000272,33.8896942959124,1.00000000111705,0.536522255600936
12400.0000000276,33.7267030791258,1.00000000095963,0.533126301385017
12500.0000000279,33.5800991680749,1.00000000081555,0.519661710549049
12600.0000000283,33.4541386238819,1.00000000085154,0.511115899537367
12700.0000000287,33.3422464414048,1.00000000091766,0.509441328018217
12800.000000029,33.2323700346374,1.00000000102691,0.526491748507418
12900.0000000294,33.1215326030289,1.00000000096456,0.525695504577917
13000.0000000298,33.0191045986724,1.00000000085689,0.508556644573266
13100.0000000301,32.9299693909848,1.00000000085912,0.515154895328366
13200.0000000305,32.8483730679802,1.00000000094892,0.532320309238464
13300.0000000309,32.768934623446,1.00000000095728,0.533550708018827
13400.0000000312,32.6842510543069,1.00000000098834,0.542103813123903
13500.0000000316,32.5896477761679,1.00000000105758,0.551952203147599
13600.0000000319,32.4862028349762,1.00000000108552,0.554674320890809
13700.0000000323,32.3769379246391,1.00000000100801,0.560131070807425
13800.0000000327,32.2660447278289,1.00000000098522,0.562301310919835
13900.000000033,32.1566978357058,1.00000000092728,0.556653067965785
14000.0000000334,32.0509922775828,1.00000000090055,0.549285898482024
14100.0000000338,31.9499409943919,1.00000000102055,0.54194158691443
14200.0000000341,31.8519993223057,1.00000000100495,0.536358805983358
14300.0000000345,31.7546388257005,1.00000000104779,0.543243506898551
14400.0000000349,31.6586732377321,1.00000000100562,0.545443503705005
14500.0000000352,31.5701937736998,1.00000000091533,0.541073276389968
14600.0000000356,31.4967280149223,1.00000000084322,0.537862403561255
14700.0000000359,31.4398966282191,1.00000000086879,0.5286757505621
14800.0000000363,31.3917593604679,1.00000000096975,0.533012589167224
14900.0000000367,31.3491905072588,1.00000000092719,0.529509127738215
15000.000000037,31.3110122205239,1.00000000098874,0.5259617222884
15100.0000000374,31.275262873432,1.00000000098866,0.525615861872849
15200.0000000378,31.2451407066811,1.00000000094779,0.523131962201114
15300.0000000381,31.2220543739123,1.00000000092005,0.530471596112523
15400.0000000385,31.2025085610542,1.00000000101254,0.543937736473281
15500.0000000389,31.1807868356326,1.00000000105551,0.554501420273589
15600.0000000392,31.1540564869681,1.00000000104874,0.562900597453366
15700.0000000396,31.1242850669525,1.00000000097476,0.562594548331717
15800.0000000399,31.0953046894446,1.00000000090586,0.565734498758762
15900.0000000403,31.0688968145212,1.00000000093717,0.560199832036407
16000.0000000407,31.0405776498533,1.00000000099426,0.566515615015867
16100.000000041,31.006041327813,1.0000000010353,0.571872684235487
16200.0000000414,30.9603955148068,1.0000000010809,0.56447229669313
16300.0000000418,30.9024689927402,1.00000000108784,0.564504871816692
16400.0000000418,30.8319757998974,1.0000000010363,0.571354413899656
16500.0000000404,30.7540048987218,1.00000000099684,0.579607011744859
16600.0000000389,30.675684650442,1.00000000092566,0.577582641136498
16700.0000000375,30.6013724211167,1.0000000008633,0.568001539625615
16800.000000036,30.5335610384149,1.00000000093221,0.562017781713822
16900.0000000346,30.4713264891313,1.00000000098658,0.560899291877086
17000.0000000331,30.4128150709363,1.00000000105087,0.557274569168082
17100.0000000317,30.3564361917374,1.00000000105316,0.559345502171903
17200.0000000302,30.301394382431,1.00000000102432,0.560619657558397
17300.0000000287,30.2483892759995,1.00000000100261,0.559772900410445
17400.0000000273,30.2026036693096,1.00000000093018,0.559651525170342
17500.0000000258,30.169710539941,1.00000000089322,0.557422139018221
17600.0000000244,30.1488643754952,1.00000000095821,0.556915640702782
17700.0000000229,30.1366108006973,1.0000000008708,0.551294557429928
17800.0000000215,30.1327990766814,1.0000000009611,0.546913325946124
17900.00000002,30.1323686217347,1.0000000010046,0.540905490383535
18000.0000000186,30.1314638296952,1.00000000098318,0.541412783526007
18100.0000000171,30.1354776124756,1.00000000092297,0.542822505289994
18200.0000000156,30.1478386153117,1.00000000090099,0.543035826241513
18300.0000000142,30.1655200804918,1.0000000009786,0.545938789727526
18400.0000000127,30.1833265202986,1.00000000100676,0.551407603364081
18500.0000000113,30.1987395120156,1.00000000100992,0.553150634898586
18600.0000000098,30.2126159745145,1.00000000097615,0.548446174856908
18700.0000000084,30.2238157205148,1.00000000097493,0.551405691530588
18800.0000000069,30.2328382131332,1.00000000102738,0.568262935861737
18900.0000000055,30.2410258755946,1.00000000099092,0.575328071978515
19000.000000004,30.2488834549824,1.00000000097317,0.576925035660488
19100.0000000026,30.2571326676084,1.0000000010112,0.587620815261682
19200.0000000011,30.2647391905735,1.00000000100365,0.593758665115417
19299.9999999996,30.2665956176568,1.00000000106341,0.600845515044573
19399.9999999982,30.2602426075037,1.00000000106899,0.604254230118872
19499.9999999967,30.2483418467256,1.00000000099138,0.608467213347905
19599.9999999953,30.2343144923681,1.00000000103336,0.611504952885585
19699.9999999938,30.2172461303055,1.00000000098603,0.612616005582152
19799.9999999924,30.1956297831508,1.00000000101553,0.613999092232071
19899.9999999909,30.1709052211622,1.00000000098413,0.609678775853114
19999.9999999895,30.1417866114488,1.00000000103699,0.604630495996348
20099.999999988,30.1066042457615,1.00000000103451,0.597173419185778
20199.9999999865,30.0657103961281,1.00000000105787,0.596586201740233
20299.9999999851,30.0177236595713,1.00000000111156,0.60392531599862
20399.9999999836,29.9614049305839,1.0000000011209,0.613231502431859
20499.9999999822,29.8977561884481,1.000000001096,0.611560662116928
20599.9999999807,29.8302368277495,1.00000000101967,0.612756758561532
20699.9999999793,29.7634474017178,1.00000000092482,0.611428651586132
20799.9999999778,29.6993549723995,1.00000000094315,0.612467436836673
20899.9999999764,29.6394675753146,1.00000000090821,0.615231189797206
20999.9999999749,29.5836907603841,1.00000000093485,0.615518745624443
21099.9999999734,29.5318360112981,1.00000000100147,0.606808738407082
21199.999999972,29.4842998212859,1.0000000010071,0.603854808600111
21299.9999999705,29.4392966960458,1.00000000101284,0.605842132844807
21399.9999999691,29.3979263922603,1.00000000106503,0.603592964189338
21499.9999999676,29.3590883370175,1.00000000101477,0.589734365732457
21599.9999999662,29.3229752617755,1.00000000102891,0.581752640789703
21699.9999999647,29.2916687135029,1.00000000096981,0.57709733409622
21799.9999999633,29.2687048082769,1.00000000093755,0.575703117083594
21899.9999999618,29.2557957077063,1.00000000094592,0.579457740182588
21999.9999999603,29.2528040312709,1.00000000090731,0.585104003843035
22099.9999999589,29.2587364786699,1.00000000096178,0.576326762122743
22199.9999999574,29.269548540102,1.00000000101127,0.573098193872955
22299.999999956,29.2836595594394,1.00000000098772,0.57363732211806
22399.9999999545,29.3008911027097,1.00000000096379,0.567901801131377
22499.9999999531,29.3229508237617,1.00000000098007,0.563562414990029
22599.9999999516,29.3490359687571,1.00000000096545,0.559787650950336
22699.9999999502,29.3799077948642,1.00000000093651,0.561867662110768
22799.9999999487,29.4149492523769,1.00000000094468,0.567120149694296
22899.9999999473,29.4504511780029,1.00000000107313,0.568116643605993
22999.9999999458,29.4864365788195,1.00000000098975,0.566269225670385
23099.9999999443,29.5227428225535,1.00000000106293,0.571786753481661
23199.9999999429,29.5581693766345,1.00000000102956,0.570766491421939
23299.9999999414,29.5907647860856,1.00000000107431,0.576629365122473
23399.99999994,29.6183169594538,1.00000000107599,0.578519853384857
23499.9999999385,29.6417616885734,1.00000000103458,0.583721499860052
23599.9999999371,29.6624406433211,1.00000000101941,0.588498499042936
23699.9999999356,29.6828141896903,1.00000000099754,0.603366085240863
23799.9999999342,29.7016700506757,1.00000000099933,0.606938104231029
23899.9999999327,29.7192351558669,1.0000000010157,0.615530810951109
23999.9999999312,29.7338353983232,1.00000000107649,0.612700446739319
24099.9999999298,29.7442025969822,1.00000000111989,0.618512966842716
24199.9999999283,29.7527795457862,1.00000000102515,0.618540491210634
24299.9999999269,29.7597150060219,1.00000000101732,0.618414570300619
24399.9999999254,29.7650029877889,1.00000000102672,0.613656153561167
24499.999999924,29.7697657177505,1.0000000010022,0.609080226233963
24599.9999999225,29.7725320629207,1.00000000105869,0.604195769003629
24699.9999999211,29.7700782733386,1.00000000111095,0.604815352437192
24799.9999999196,29.7644049786844,1.00000000104457,0.618341700003317
24899.9999999181,29.7559481219389,1.00000000103605,0.616656179721607
24999.9999999167,29.7465404359781,1.00000000103458,0.614856550240658
25099.9999999152,29.7377434695959,1.000000001051,0.61586099450581
25199.9999999138,29.7261262655756,1.0000000010512,0.62490610684898
25299.9999999123,29.7114347139005,1.00000000104759,0.623929699757195
25399.9999999109,29.6972524915332,1.00000000097807,0.615473941029274
25499.9999999094,29.6836221970142,1.000000001025,0.610719728241263
25599.999999908,29.6679497302884,1.00000000107375,0.613018928959781
25699.9999999065,29.6492403042491,1.00000000111313,0.617220903174871
25799.9999999051,29.6265284341038,1.00000000111376,0.621464527549549
25899.9999999036,29.5998479207069,1.00000000108923,0.617953471197078
25999.9999999021,29.5721277822803,1.00000000102999,0.623081390135554
26099.9999999007,29.5422566096641,1.00000000109294,0.627826821316089
26199.9999998992,29.50982799076,1.00000000099884,0.622553962744528
26299.9999998978,29.4773493874381,1.00000000107073,0.627075039236101
26399.9999998963,29.4432958992632,1.00000000108323,0.630621999807289
26499.9999998949,29.4060370078324,1.00000000099619,0.618902135978119
26599.9999998934,29.3684005455637,1.00000000101525,0.610430221949346
26699.999999892,29.3298461234288,1.00000000103548,0.610897284802801
26799.9999998905,29.2883059620127,1.00000000109226,0.620075253349438
26899.999999889,29.2425446583512,1.00000000108339,0.622164666150763
26999.9999998876,29.1936313527094,1.00000000107254,0.62148286827745
27099.9999998861,29.1423419184052,1.000000001126,0.619898074654053
27199.9999998847,29.0878972692208,1.00000000112652,0.624243743642071
27299.9999998832,29.0302694619149,1.00000000110651,0.629029113212676
27399.9999998818,28.970450201754,1.00000000106965,0.630727122680949
27499.9999998803,28.9090043100047,1.00000000104997,0.629066002130423
27599.9999998789,28.8470843106363,1.00000000102973,0.626068298473965
27699.9999998774,28.785909335939,1.00000000102558,0.620335490468951
27799.9999998759,28.7263573872652,1.0000000010424,0.613010286566555
27899.9999998745,28.6686538883501,1.00000000098063,0.600899256466723
27999.999999873,28.6139786928481,1.00000000099306,0.599260503280551
28099.9999998716,28.5629621829007,1.00000000102236,0.605029429400781
28199.9999998701,28.5157593067781,1.00000000101406,0.608581514915695
28299.9999998687,28.4723026639839,1.00000000110498,0.61241692764791
28399.9999998672,28.4320355715696,1.00000000109391,0.613271717114331
28499.9999998658,28.3946680899384,1.00000000103295,0.607600259965889
28599.9999998643,28.3604801611695,1.00000000110441,0.607458627033076
28699.9999998629,28.3279419818456,1.00000000104848,0.597847774433786
28799.9999998614,28.2996318790414,1.00000000104008,0.588811618842873
28899.9999998599,28.2750239628478,1.00000000102741,0.586079993790941
28999.9999998585,28.2543663844768,1.00000000104959,0.583010449927302
