Time,AGPnorm,Energy,Entropy
0,0,1,4.32462578015013e-18
99.9999999999986,0.0065573889681269,0.999999999998896,0.0191105447766298
199.999999999993,0.0175427135635326,1.0000000000003,0.0557516233872894
300,0.0354955545187507,0.999999999999003,0.110194317276745
400.000000000022,0.0538234744807729,1.00000000001388,0.185869885366268
500.000000000045,0.0713275190898303,1.00000000023605,0.296973831647919
600.000000000068,0.182549796069272,1.00000000104319,0.415544615837854
700.000000000091,0.632323655586574,1.00000000189777,0.498612164871239
800.000000000113,1.81000291989054,1.00000000231268,0.545794446819534
900.000000000136,3.81278895088841,1.00000000249067,0.569511643574622
1000.00000000016,6.45918622335122,1.00000000254945,0.578338344988639
1100.0000000001,9.48959695276664,1.00000000233753,0.578552306766499
1200,12.5314327946232,1.00000000230281,0.57112348211277
1299.99999999991,15.3459722432187,1.00000000229752,0.565766882704688
1399.99999999982,17.7371944549786,1.00000000201503,0.559090000884354
1499.99999999973,19.604449469616,1.00000000181859,0.548129124693974
1599.99999999964,20.9410414602241,1.00000000164972,0.532874897630903
1699.99999999955,21.7640887247629,1.00000000165449,0.55180665862464
1799.99999999946,22.1417476546931,1.00000000128772,0.503903625781881
1899.99999999937,22.2019741227095,1.00000000166107,0.560703054486602
1999.99999999928,21.9450263224735,1.00000000106276,0.468536723746529
2099.99999999919,21.5547070541574,1.00000000210744,0.581685817914017
2199.99999999909,21.0593142768439,1.0000000008429,0.418156797948027
2299.999999999,20.4205053301339,1.00000000200113,0.548600668280875
2399.99999999891,19.871221572164,1.00000000186549,0.541849936639244
2499.99999999882,19.2574811694206,1.00000000065259,0.364492704247198
2599.99999999873,18.5930746820353,1.00000000189178,0.526726700106208
2699.99999999864,18.0122921983632,1.0000000019225,0.568963357056626
2799.99999999855,17.4695689555772,1.0000000011001,0.416452923729988
2899.99999999846,16.913573240802,1.00000000108238,0.392644968193261
2999.99999999837,16.3639206699613,1.00000000178016,0.525508982526334
3099.99999999828,15.8467202830137,1.00000000207133,0.545384677778152
3199.99999999819,15.3787964693152,1.00000000161734,0.536948341796811
3299.99999999809,14.9481938717203,1.00000000078645,0.370994262842986
3399.999999998,14.5713340057675,1.0000000012975,0.416570304053788
3499.99999999791,14.1991317248908,1.0000000018041,0.524040087247604
3599.99999999782,13.83427395506,1.000000001319,0.514236179224277
3699.99999999773,13.4758089510954,1.00000000196689,0.528967100566892
3799.99999999764,13.1224589243653,1.00000000191817,0.573686938709541
3899.99999999755,12.8065986526506,1.00000000100905,0.450076400209865
3999.99999999746,12.5798606511168,1.00000000086099,0.365735138364401
4099.99999999738,12.42080176885,1.00000000149987,0.443372374982729
4199.99999999775,12.2495763765962,1.00000000168549,0.515985456658659
4299.99999999811,12.0558302100257,1.00000000177468,0.548833032096983
4399.99999999848,11.8526451229622,1.00000000145819,0.543495616553711
4499.99999999884,11.6551776966878,1.00000000137811,0.535654011407269
4599.9999999992,11.4438758341483,1.00000000170244,0.531878519549978
4699.99999999957,11.2158537987412,1.00000000206488,0.577097301195667
4799.99999999993,10.9929292709544,1.000000001543,0.55526699674188
4900.00000000029,10.8215570703346,1.00000000082893,0.437916879651078
5000.00000000066,10.7626457966797,1.00000000088713,0.385799788705204
5100.00000000102,10.7877393098721,1.00000000132482,0.427716157020444
5200.00000000139,10.8114106840726,1.00000000170286,0.502872565629992
5300.00000000175,10.7915846616731,1.00000000174218,0.549037224954443
5400.00000000211,10.7566970496204,1.00000000142614,0.552466493966211
5500.00000000248,10.705666838891,1.00000000151996,0.569198318819991
5600.00000000284,10.6281747424942,1.00000000165512,0.564301958427045
5700.00000000321,10.533102819479,1.00000000162121,0.551488834913787
5800.00000000357,10.4260196147489,1.0000000015658,0.575680511056108
5900.00000000393,10.3223633249517,1.00000000129284,0.564861959829832
6000.0000000043,10.2168439555981,1.0000000015047,0.579603076434628
6100.00000000466,10.0960070094203,1.00000000171357,0.585703908482892
6200.00000000502,9.96045268877862,1.0000000020412,0.585983139864491
6300.00000000539,9.81381609604968,1.0000000019931,0.596670203709194
6400.00000000575,9.66915022449371,1.00000000154096,0.567749235573937
6500.00000000612,9.55700571791811,1.00000000099811,0.4879930728897
6600.00000000648,9.53232315783736,1.00000000085119,0.418842686228082
6700.00000000684,9.62346564310301,1.00000000106471,0.414987895971203
6800.00000000721,9.78596626422351,1.00000000139978,0.448023749125269
6900.00000000757,9.94469567382198,1.00000000169312,0.494133053176884
7000.00000000793,10.0739823295437,1.00000000153767,0.525119960902638
7100.0000000083,10.1765136959857,1.00000000163257,0.563103239197935
7200.00000000866,10.2463009031245,1.00000000165768,0.573920764144309
7300.00000000903,10.2948025668484,1.00000000155706,0.587066213041131
7400.00000000939,10.3134305343232,1.00000000175941,0.599931294032993
7500.00000000975,10.2977104399831,1.00000000176016,0.604444025693898
7600.00000001012,10.2677282148496,1.00000000156697,0.578833881611499
7700.00000001048,10.2351927917708,1.00000000167052,0.573676484638793
7800.00000001084,10.2019709487569,1.0000000015208,0.56395723703591
7900.00000001121,10.160840348288,1.00000000169827,0.554052300585614
8000.00000001157,10.1161449932012,1.00000000175458,0.5767173454204
8100.00000001194,10.0700925147094,1.00000000143748,0.573683642984326
8200.0000000123,10.0257150680985,1.00000000161798,0.576950080367749
8300.00000001266,9.98170452989964,1.00000000150623,0.57833701144498
8400.00000001303,9.93824573556089,1.00000000167284,0.576284310857389
8500.00000001339,9.88785491218175,1.00000000158648,0.573641660768345
8600.00000001376,9.82875262039332,1.00000000176005,0.573518627368318
8700.00000001412,9.75698746126906,1.00000000167484,0.600763987131784
8800.00000001448,9.67829471721176,1.0000000016197,0.608968044520798
8900.00000001485,9.60098551444427,1.00000000148191,0.600478015350472
9000.00000001521,9.52259396922683,1.00000000160458,0.606594835448361
9100.00000001557,9.43943927143144,1.00000000166522,0.603072324051101
9200.00000001594,9.35191680077796,1.00000000179631,0.608445794034064
9300.0000000163,9.2642322800886,1.00000000221163,0.610265732103201
9400.00000001667,9.17872743262901,1.00000000209602,0.593241257818343
9500.00000001703,9.09205109189983,1.0000000021154,0.589269924404114
9600.00000001739,9.00098476989591,1.00000000159151,0.568883605383453
9700.00000001776,8.91432704662127,1.0000000012342,0.523666162787299
9800.00000001812,8.86212115052528,1.0000000010182,0.46419112863342
9900.00000001848,8.88361998801515,1.00000000093186,0.429831921708984
10000.0000000188,9.0074407069598,1.00000000095879,0.416542645828795
10100.0000000192,9.21870479847573,1.00000000129602,0.436574543250892
10200.0000000196,9.48665891967198,1.00000000153673,0.454256464818292
10300.0000000199,9.75624582459465,1.0000000017281,0.485457227256407
10400.0000000203,10.0155287316405,1.00000000178387,0.513079630160727
10500.0000000207,10.2433972963433,1.00000000182026,0.532503406430063
10600.000000021,10.451426482655,1.00000000170131,0.547203527837487
10700.0000000214,10.6343485020974,1.00000000173701,0.572690452839826
10800.0000000218,10.7962809793857,1.000000001724,0.591540531508947
10900.0000000221,10.9273811663917,1.00000000194534,0.599504610200101
11000.0000000225,11.0301647932191,1.00000000174569,0.609336488570485
11100.0000000229,11.1131002106066,1.00000000179632,0.624925393371723
11200.0000000232,11.1746429025281,1.00000000175093,0.629484085024986
11300.0000000236,11.2137557068366,1.00000000180996,0.631590325680351
11400.0000000239,11.2350097998864,1.00000000170722,0.63101109471522
11500.0000000243,11.2445108408837,1.00000000176977,0.629760195123163
11600.0000000247,11.2453147928439,1.00000000171973,0.621804350076959
11700.000000025,11.2412772410254,1.00000000178188,0.620838258947831
11800.0000000254,11.2250019027788,1.00000000183355,0.621575794378954
11900.0000000258,11.2022747339851,1.00000000163988,0.605990079931707
12000.0000000261,11.1778471849033,1.00000000180795,0.623808270632436
12100.0000000265,11.1427597423005,1.00000000173884,0.622065015108209
12200.0000000269,11.1033536891319,1.00000000183133,0.627623728608987
12300.0000000272,11.0593427683439,1.0000000018151,0.631495429342689
12400.0000000276,11.0092548625603,1.00000000178255,0.644223186467788
12500.0000000279,10.9540574836502,1.00000000179257,0.646073425117055
12600.0000000283,10.9013539126154,1.00000000158776,0.631058941751599
12700.0000000287,10.8557220101294,1.0000000015788,0.6135129088902
12800.000000029,10.8197815092362,1.00000000158576,0.604058859958068
12900.0000000294,10.7890066057118,1.00000000175682,0.599561385732947
13000.0000000298,10.7614592992796,1.00000000172888,0.605682054160444
13100.0000000301,10.7349827901132,1.00000000167898,0.601665824519449
13200.0000000305,10.7088804585096,1.0000000018279,0.61464455538981
13300.0000000309,10.6809280197229,1.00000000176147,0.622544122480631
13400.0000000312,10.6542904842234,1.00000000164653,0.612820873099877
13500.0000000316,10.6264327265802,1.00000000176124,0.600798937564917
13600.0000000319,10.6008740199762,1.00000000173802,0.612334491107845
13700.0000000323,10.5782435852955,1.00000000169366,0.599048501858246
13800.0000000327,10.5567317395414,1.00000000177296,0.586984911519063
13900.000000033,10.5334026847939,1.00000000198234,0.589670930712315
14000.0000000334,10.5092737776716,1.00000000164079,0.588867089430469
14100.0000000338,10.4886957546137,1.00000000174832,0.598654237760124
14200.0000000341,10.4658964306062,1.00000000183922,0.628484743622585
14300.0000000345,10.4409851472812,1.00000000167957,0.624313730458395
14400.0000000349,10.4162883175818,1.00000000175183,0.610178208182667
14500.0000000352,10.3886883527293,1.00000000179876,0.609279949500345
14600.0000000356,10.3619678945481,1.00000000172613,0.621843888687813
14700.0000000359,10.3391901199081,1.00000000171579,0.621478899691547
14800.0000000363,10.3141621161056,1.00000000182397,0.634445837929276
14900.0000000367,10.2852367061075,1.00000000170056,0.629658863677116
15000.000000037,10.2605431419934,1.00000000164668,0.621012903868718
15100.0000000374,10.2362133651959,1.00000000186163,0.641150302741207
15200.0000000378,10.2055398965526,1.00000000184599,0.635773578694321
15300.0000000381,10.1710354868286,1.00000000174056,0.624237035344278
15400.0000000385,10.133513519129,1.00000000182857,0.629284575107123
15500.0000000389,10.0979574441394,1.00000000174709,0.640794206700019
15600.0000000392,10.0664406013252,1.00000000166438,0.646371548102196
15700.0000000396,10.0346124885844,1.00000000190763,0.638682349670356
15800.0000000399,9.99817374043115,1.00000000191748,0.642518899806029
15900.0000000403,9.96134432922718,1.00000000168376,0.631676983944869
16000.0000000407,9.92855794171711,1.00000000184073,0.639148692933067
16100.000000041,9.89020426691819,1.00000000190951,0.641088965756727
16200.0000000414,9.85029239021364,1.00000000172988,0.631081948057146
16300.0000000418,9.81193541978096,1.00000000174041,0.628449433728438
16400.0000000418,9.77349801982386,1.00000000174939,0.617394501956257
16500.0000000404,9.73456076151169,1.00000000185652,0.637707493956311
16600.0000000389,9.69367082916731,1.00000000185329,0.643752201399006
16700.0000000375,9.65095672888959,1.00000000176057,0.64968922514051
16800.000000036,9.60667620891189,1.00000000189796,0.636337630928451
16900.0000000346,9.5608679477956,1.00000000184757,0.645168715745193
17000.0000000331,9.51205010131119,1.0000000019385,0.635503946151652
17100.0000000317,9.46292774043948,1.00000000167754,0.640138711867648
17200.0000000302,9.41446097134066,1.00000000181415,0.650055767608618
17300.0000000287,9.36324135245221,1.00000000200804,0.654575464397657
17400.0000000273,9.31032234928626,1.00000000190352,0.657857386897092
17500.0000000258,9.25787017945119,1.00000000182405,0.630395365206696
17600.0000000244,9.20589763203382,1.00000000185013,0.640627722015272
17700.0000000229,9.1544216920293,1.0000000017996,0.64825535311927
17800.0000000215,9.10373550977405,1.00000000174469,0.628556558394277
17900.00000002,9.05456808812628,1.00000000159727,0.630859309427911
18000.0000000186,9.00734117678391,1.0000000017763,0.633708201934139
18100.0000000171,8.9637962209813,1.00000000189941,0.641155694901785
18200.0000000156,8.92567916946565,1.00000000197549,0.641851296964192
18300.0000000142,8.89454767993841,1.00000000200353,0.658083926723465
18400.0000000127,8.87482515485612,1.00000000228438,0.661435196482389
18500.0000000113,8.86388749113045,1.00000000211526,0.664518608066823
18600.0000000098,8.87105548871436,1.00000000210474,0.663873267989354
18700.0000000084,8.88382254795358,1.00000000235456,0.66061092700137
18800.0000000069,8.91658192843246,1.00000000212993,0.654390027931184
18900.0000000055,8.94651738360074,1.00000000224079,0.632776508669776
19000.000000004,8.98670146017058,1.00000000235666,0.620070110026422
19100.0000000026,9.00916162475393,1.00000000216854,0.60450626327426
19200.0000000011,9.01925822199604,1.00000000194972,0.595584870660315
19299.9999999996,9.00339631519918,1.00000000151459,0.573695637970299
19399.9999999982,8.96873549375794,1.00000000154164,0.548764846445615
19499.9999999967,8.92757365226437,1.00000000180542,0.514366643749583
19599.9999999953,8.89525507837174,1.00000000130039,0.495645100040209
19699.9999999938,8.89582880033675,1.00000000113018,0.472898111277519
19799.9999999924,8.95003294469041,1.00000000115528,0.4551239937952
19899.9999999909,9.08066557341176,1.00000000120868,0.450435243734322
19999.9999999895,9.28817182219588,1.00000000127619,0.445687998120185
20099.999999988,9.59037064383654,1.00000000139757,0.455960960429918
20199.9999999865,9.94645431982097,1.00000000150512,0.463310850014829
20299.9999999851,10.3762141270003,1.00000000184314,0.472036601768074
20399.9999999836,10.8124796506784,1.00000000193773,0.483579978387185
20499.9999999822,11.2839843348304,1.00000000186111,0.497871899685085
20599.9999999807,11.743356216835,1.0000000019304,0.505322526203593
20699.9999999793,12.2027955208333,1.00000000218403,0.517688484730288
20799.9999999778,12.6494301011953,1.00000000207497,0.525754286152617
20899.9999999764,13.0735321045929,1.0000000019695,0.533071386848181
20999.9999999749,13.4929600585374,1.00000000217877,0.55061550828274
21099.9999999734,13.8806137379036,1.00000000215858,0.55437151262711
21199.999999972,14.2698422694978,1.00000000202719,0.569433409251145
21299.9999999705,14.6386012702377,1.00000000214998,0.576243885353698
21399.9999999691,14.9979208088353,1.00000000189544,0.582413483397666
21499.9999999676,15.3501169130785,1.00000000204069,0.589771520142174
21599.9999999662,15.6753405322022,1.00000000229566,0.598219833401613
21699.9999999647,15.9810850171152,1.00000000215692,0.617481060543622
21799.9999999633,16.2575630999736,1.00000000206325,0.621629683609449
21899.9999999618,16.5312631386123,1.00000000207875,0.637149492051057
21999.9999999603,16.7688158283222,1.00000000244868,0.643160875923866
22099.9999999589,16.9892282268781,1.00000000195363,0.645356606573745
22199.9999999574,17.1881331292764,1.00000000220519,0.658581355441486
22299.999999956,17.3693370447734,1.00000000228664,0.651654389206994
22399.9999999545,17.5405877873814,1.0000000020935,0.655322761734924
22499.9999999531,17.6924060961355,1.00000000197384,0.654222420257129
22599.9999999516,17.8392804343351,1.00000000200539,0.651861123251124
22699.9999999502,17.9636422776248,1.0000000022347,0.648303637459056
22799.9999999487,18.0787808603734,1.00000000207183,0.650299590623082
22899.9999999473,18.178258249746,1.00000000202556,0.66056235761237
22999.9999999458,18.2692128908921,1.00000000214639,0.652826609242035
23099.9999999443,18.3536690285573,1.00000000198853,0.664837265406688
23199.9999999429,18.4268113539811,1.00000000246133,0.663177688230828
23299.9999999414,18.4989800153155,1.00000000198731,0.65302432522505
23399.99999994,18.56347452965,1.00000000215766,0.657098890488588
23499.9999999385,18.6192526346697,1.00000000214252,0.650761657041489
23599.9999999371,18.6583449280196,1.00000000212448,0.655568910816535
23699.9999999356,18.6883342926564,1.00000000200046,0.658601794668381
23799.9999999342,18.7188978286893,1.00000000209697,0.661981163104239
23899.9999999327,18.7514157241989,1.00000000178723,0.655294152927458
23999.9999999312,18.788536938206,1.00000000214265,0.661890336561382
24099.9999999298,18.8185081409205,1.00000000180661,0.663810291526542
24199.9999999283,18.8441813806268,1.00000000208861,0.66715497888531
24299.9999999269,18.8549413313652,1.0000000021762,0.662267040693228
24399.9999999254,18.8605616374687,1.00000000190109,0.651079749848646
24499.999999924,18.8658165618204,1.00000000197994,0.653521028365431
24599.9999999225,18.8756423315028,1.00000000190997,0.628057720068285
24699.9999999211,18.887629939806,1.0000000020827,0.636662434955725
24799.9999999196,18.8917142701133,1.00000000220525,0.63776387093454
24899.9999999181,18.8887564583559,1.00000000221029,0.636981629127773
24999.9999999167,18.8848761645438,1.00000000185562,0.625890197284082
25099.9999999152,18.8903076001913,1.00000000207287,0.634148449279409
25199.9999999138,18.9009831739024,1.00000000202597,0.658924244236363
25299.9999999123,18.90743133803,1.00000000233999,0.671450571122463
25399.9999999109,18.9061076481428,1.00000000214301,0.663165357925414
25499.9999999094,18.9002432742625,1.00000000210103,0.669384026842557
25599.999999908,18.8951746778627,1.00000000196094,0.651997917458525
25699.9999999065,18.8913477911124,1.00000000218541,0.650412739462633
25799.9999999051,18.8889913438852,1.00000000235398,0.657397156901083
25899.9999999036,18.8865566979656,1.00000000196362,0.647818674478094
25999.9999999021,18.8927135197335,1.00000000190434,0.640116267750855
26099.9999999007,18.8975345545908,1.00000000248437,0.659940805368299
26199.9999998992,18.8937047119007,1.00000000209027,0.648322914359536
26299.9999998978,18.8901939692324,1.00000000208971,0.630238511712419
26399.9999998963,18.8899461648456,1.00000000201066,0.628056658809867
26499.9999998949,18.8970516865518,1.00000000170339,0.643620152909021
26599.9999998934,18.9008597851373,1.00000000232987,0.665745887890247
26699.999999892,18.8974412719845,1.00000000224327,0.659924650435111
26799.9999998905,18.8926487656508,1.00000000208082,0.651723847121536
26899.999999889,18.8938629896716,1.00000000207125,0.642811481282012
26999.9999998876,18.9022571455951,1.00000000203478,0.640169681436005
27099.9999998861,18.9106752662286,1.00000000228099,0.652604624604898
27199.9999998847,18.9116780494615,1.00000000230383,0.650711174133221
27299.9999998832,18.9062424960433,1.00000000208544,0.645072362454404
27399.9999998818,18.8978691086773,1.00000000226048,0.648228039914184
27499.9999998803,18.8882152689866,1.00000000216072,0.650395623631519
27599.9999998789,18.8787439548893,1.00000000197532,0.649402831163031
27699.9999998774,18.8673108458042,1.00000000237464,0.648821201554286
27799.9999998759,18.8550613999226,1.00000000185706,0.640513144572602
27899.9999998745,18.8414286142753,1.0000000022419,0.661043482445195
27999.999999873,18.8255217158114,1.00000000225873,0.650555408012798
28099.9999998716,18.8105602470101,1.0000000022399,0.635962298078041
28199.9999998701,18.8017671472171,1.00000000207187,0.61965004515693
28299.9999998687,18.7934554365188,1.00000000230433,0.63865697440464
28399.9999998672,18.7859104801358,1.00000000229251,0.63950063198333
28499.9999998658,18.7785720203555,1.00000000248876,0.637032109142363
28599.9999998643,18.7740415648386,1.00000000225539,0.633825904713697
28699.9999998629,18.7749807390346,1.0000000021907,0.651917785636766
28799.9999998614,18.7759863301436,1.00000000222204,0.664873988347424
28899.9999998599,18.7752014041793,1.00000000229046,0.670159944557084
28999.9999998585,18.7752468549906,1.00000000226809,0.671016865397224
