Time,AGPnorm,Energy,Entropy
0,0,1,-1.86866546055872e-18
99.9999999999986,0.00646087255037834,0.99999999999987,0.0191016396491653
199.999999999993,0.0176395832806343,1.00000000000035,0.0553261712978678
300,0.0360390753593404,1.00000000000007,0.109312940201637
400.000000000022,0.0541602763556831,1.00000000001301,0.183944692967967
500.000000000045,0.0704979805160311,1.00000000023528,0.293747418757272
600.000000000068,0.175721621733365,1.00000000106968,0.412017845244038
700.000000000091,0.606719249102811,1.00000000191558,0.496063215045217
800.000000000113,1.76036557311831,1.00000000223496,0.544344633746562
900.000000000136,3.73438936000562,1.00000000256851,0.568422555411929
1000.00000000016,6.36757431456295,1.00000000259858,0.577669569980752
1100.0000000001,9.39782534989661,1.00000000245017,0.578139984416281
1200,12.4540712756884,1.00000000224399,0.571093675304234
1299.99999999991,15.3017378840802,1.0000000022731,0.565962925396356
1399.99999999982,17.7354817723621,1.0000000021814,0.558758457950333
1499.99999999973,19.6514804653086,1.0000000018476,0.547883771763517
1599.99999999964,21.0363818123304,1.0000000015213,0.534552153201426
1699.99999999955,21.9040246842515,1.00000000158461,0.551256522864495
1799.99999999946,22.3212763186591,1.00000000124252,0.503928871666075
1899.99999999937,22.4060827080192,1.00000000170625,0.562590813562154
1999.99999999928,22.1736881217293,1.00000000100379,0.467109661094315
2099.99999999919,21.7886286029415,1.00000000197777,0.582405672520061
2199.99999999909,21.3068371110991,1.00000000089051,0.424901137353813
2299.999999999,20.6669515395458,1.00000000185889,0.541100200847406
2399.99999999891,20.1141086527143,1.00000000175121,0.549321755165565
2499.99999999882,19.5034510421047,1.00000000067825,0.365259851404138
2599.99999999873,18.8335761515094,1.00000000172637,0.519012173461421
2699.99999999864,18.2442166990687,1.00000000205297,0.570036417999252
2799.99999999855,17.6988156486576,1.00000000114314,0.426302174110807
2899.99999999846,17.1378518004907,1.00000000104478,0.384690271432215
2999.99999999837,16.5824965642504,1.00000000176576,0.520546690999873
3099.99999999828,16.0584084742616,1.00000000193808,0.543166516287943
3199.99999999819,15.5848244762972,1.00000000167064,0.543715878247712
3299.99999999809,15.1464144191555,1.00000000072541,0.374840351775227
3399.999999998,14.763015516882,1.0000000012465,0.405295089455536
3499.99999999791,14.3863522072266,1.00000000174618,0.520394207678345
3599.99999999782,14.0155636782525,1.00000000138214,0.515944191927578
3699.99999999773,13.653909777032,1.00000000199827,0.524977000248552
3799.99999999764,13.2958030029054,1.00000000196872,0.574725097325235
3899.99999999755,12.9719150710687,1.00000000106148,0.460362150597098
3999.99999999746,12.7335484220694,1.00000000081345,0.36390113594472
4099.99999999738,12.5716693542961,1.00000000140986,0.431568182188795
4199.99999999775,12.3995000448574,1.0000000016928,0.513414347437447
4299.99999999811,12.2036585119335,1.00000000165469,0.547374667137325
4399.99999999848,11.9971692036813,1.00000000144657,0.540622035344976
4499.99999999884,11.7972099811456,1.00000000136371,0.535543983975605
4599.9999999992,11.5845594964141,1.0000000017595,0.530142501623147
4699.99999999957,11.3553127555754,1.00000000198355,0.572340109396466
4799.99999999993,11.1280241021241,1.00000000158729,0.561429353323616
4900.00000000029,10.945560558891,1.0000000008983,0.445776623390801
5000.00000000066,10.8730028841252,1.00000000077874,0.382676435062984
5100.00000000102,10.8947073730815,1.00000000133757,0.420408688524142
5200.00000000139,10.9242523732096,1.00000000166965,0.494694102048877
5300.00000000175,10.9064894535266,1.00000000168352,0.546485403801098
5400.00000000211,10.8704910991207,1.0000000015091,0.549234754067533
5500.00000000248,10.8202375980717,1.00000000156026,0.567552257222719
5600.00000000284,10.7449972935246,1.00000000162789,0.564435338019488
5700.00000000321,10.6510211215585,1.00000000157599,0.545288924471457
5800.00000000357,10.5439458424589,1.00000000162748,0.577093461528986
5900.00000000393,10.4375253710159,1.00000000130189,0.563517892289649
6000.0000000043,10.332300617825,1.00000000148186,0.578702156053483
6100.00000000466,10.2119242847149,1.00000000160894,0.584378298671772
6200.00000000502,10.077066603966,1.00000000195493,0.586359083562437
6300.00000000539,9.93050162656517,1.0000000019904,0.594850635409476
6400.00000000575,9.78324131315149,1.00000000162436,0.573606144684018
6500.00000000612,9.66180175043191,1.00000000101886,0.494102883711332
6600.00000000648,9.6218507738683,1.00000000077322,0.420912910834464
6700.00000000684,9.70090688934649,1.00000000100745,0.407834492477556
6800.00000000721,9.86101245401478,1.00000000127655,0.44084440628796
6900.00000000757,10.0290171497173,1.00000000172531,0.485971131779657
7000.00000000793,10.1649222795589,1.00000000157971,0.521201968580323
7100.0000000083,10.2708885884992,1.00000000161664,0.558136191563282
7200.00000000866,10.3445348191517,1.00000000167656,0.568864134673373
7300.00000000903,10.395843247237,1.00000000158373,0.580620662806708
7400.00000000939,10.4190718564795,1.00000000172069,0.596860574291147
7500.00000000975,10.4082778049227,1.00000000168753,0.600351619231618
7600.00000001012,10.3786895488016,1.0000000014892,0.581490342131657
7700.00000001048,10.3448421987616,1.00000000171841,0.574881458301606
7800.00000001084,10.3103437560133,1.00000000158901,0.564414936805221
7900.00000001121,10.270651883867,1.00000000160282,0.548000903645697
8000.00000001157,10.227496737134,1.00000000160782,0.566956227980069
8100.00000001194,10.1803995625032,1.00000000147345,0.573490932729819
8200.0000000123,10.136633488255,1.00000000166628,0.574001853745701
8300.00000001266,10.0919587949589,1.00000000156463,0.577519977750197
8400.00000001303,10.0483014403992,1.00000000168121,0.577537540357898
8500.00000001339,9.99814692763655,1.00000000169854,0.574690205247523
8600.00000001376,9.94063463149195,1.00000000167551,0.569529032980152
8700.00000001412,9.87087597442852,1.00000000173242,0.593675486177573
8800.00000001448,9.79269860926781,1.00000000165591,0.609764408067294
8900.00000001485,9.71420630678704,1.00000000138829,0.597285322889691
9000.00000001521,9.63602716915847,1.00000000148571,0.605550887471798
9100.00000001557,9.55309090406422,1.00000000169603,0.602677719097043
9200.00000001594,9.46580991369254,1.00000000181365,0.603282280051055
9300.0000000163,9.3785144148891,1.00000000218499,0.6105150334321
9400.00000001667,9.2937536146178,1.00000000214834,0.591991572335388
9500.00000001703,9.20889361264467,1.00000000219271,0.584845803315739
9600.00000001739,9.118608726363,1.00000000166015,0.57343588591553
9700.00000001776,9.0282826491555,1.00000000130967,0.529867036623445
9800.00000001812,8.96471223877631,1.00000000094966,0.469617828324177
9900.00000001848,8.96915174983462,1.00000000086574,0.431980473866905
10000.0000000188,9.07489450610125,1.00000000089715,0.410210383100306
10100.0000000192,9.27824295814425,1.00000000129592,0.429894538648425
10200.0000000196,9.5492970289568,1.00000000149733,0.447513896378789
10300.0000000199,9.82999300636247,1.00000000174546,0.478230811946549
10400.0000000203,10.1032859628704,1.00000000176601,0.506997051507372
10500.0000000207,10.3447456455827,1.00000000195373,0.532899297474151
10600.000000021,10.5623257705524,1.00000000167711,0.541263649573853
10700.0000000214,10.7552669489312,1.00000000174536,0.569527144531517
10800.0000000218,10.9258708053239,1.00000000175815,0.585631588312558
10900.0000000221,11.0682574739211,1.00000000192049,0.598100371787159
11000.0000000225,11.1793198372169,1.00000000180209,0.601125716721712
11100.0000000229,11.2718514587908,1.00000000176315,0.619103814350323
11200.0000000232,11.3420797338423,1.00000000190003,0.629944143148401
11300.0000000236,11.3897420469315,1.00000000187758,0.628915494209081
11400.0000000239,11.4160549583463,1.000000001707,0.632004923268577
11500.0000000243,11.4306559894667,1.00000000165334,0.623850995997379
11600.0000000247,11.435424221305,1.00000000187313,0.626961440401318
11700.000000025,11.4343473345109,1.00000000167791,0.621057366419706
11800.0000000254,11.4230568965384,1.00000000183612,0.626500126484213
11900.0000000258,11.401260082944,1.0000000017545,0.611744535059147
12000.0000000261,11.3813679892546,1.00000000181899,0.616200007557633
12100.0000000265,11.3507702263289,1.00000000190585,0.622920098892488
12200.0000000269,11.314123425714,1.00000000166117,0.620005159434639
12300.0000000272,11.2731001911073,1.00000000176238,0.628650148519407
12400.0000000276,11.2262714465724,1.00000000182582,0.642933744963149
12500.0000000279,11.1727962224672,1.00000000177419,0.64525257722627
12600.0000000283,11.1185437676502,1.0000000016966,0.63775386226563
12700.0000000287,11.0704906843289,1.00000000160278,0.618326656092456
12800.000000029,11.0321432830042,1.00000000179485,0.608144516996467
12900.0000000294,11.0010622433648,1.00000000180208,0.602535628330883
13000.0000000298,10.9733538122455,1.00000000168407,0.605535642720959
13100.0000000301,10.948459382509,1.00000000165392,0.60707146881983
13200.0000000305,10.9261049872124,1.00000000175592,0.606777750591686
13300.0000000309,10.9016735632236,1.00000000174059,0.620707141090583
13400.0000000312,10.8785627516638,1.0000000017513,0.609621290734501
13500.0000000316,10.8545798457214,1.00000000180598,0.604470065721658
13600.0000000319,10.8306997492613,1.0000000017384,0.614090852686229
13700.0000000323,10.8094876774058,1.00000000163713,0.602190334695412
13800.0000000327,10.7900080289989,1.00000000162238,0.594611828195323
13900.000000033,10.7707398278035,1.00000000174319,0.58868772506397
14000.0000000334,10.7485233775022,1.00000000167035,0.592648262174554
14100.0000000338,10.7305609169565,1.00000000180741,0.587006071516103
14200.0000000341,10.7117032382488,1.00000000183365,0.622868906325293
14300.0000000345,10.6880144466385,1.00000000171724,0.629014945354188
14400.0000000349,10.6643769029999,1.00000000165558,0.61201911956514
14500.0000000352,10.6392508168359,1.00000000190524,0.608029773611741
14600.0000000356,10.6119711062684,1.00000000176752,0.622695882432324
14700.0000000359,10.5892585476341,1.00000000163146,0.615897160612646
14800.0000000363,10.5665045341759,1.00000000185083,0.631376399514456
14900.0000000367,10.5385051058866,1.00000000187051,0.633281663396551
15000.000000037,10.5124649439514,1.00000000155352,0.62255666548154
15100.0000000374,10.4925481224684,1.00000000178495,0.640462906210065
15200.0000000378,10.4670279710374,1.00000000187064,0.641895562156452
15300.0000000381,10.4355762584329,1.00000000185404,0.619369848650186
15400.0000000385,10.4000242222929,1.00000000179359,0.620017733805974
15500.0000000389,10.3640978450497,1.00000000175807,0.636872533985656
15600.0000000392,10.3332715385959,1.00000000168302,0.640155376583557
15700.0000000396,10.304223743859,1.00000000181831,0.643265285238509
15800.0000000399,10.2714595125052,1.00000000188656,0.640853728436055
15900.0000000403,10.2349844157079,1.0000000018634,0.641857092147481
16000.0000000407,10.2021801849635,1.00000000163869,0.626000747765015
16100.000000041,10.1665297972024,1.00000000215263,0.648445179273061
16200.0000000414,10.1260932561134,1.00000000170031,0.637784743729
16300.0000000418,10.0868408471657,1.00000000166622,0.632069789671186
16400.0000000418,10.0490037654194,1.00000000173797,0.62870262075872
16500.0000000404,10.0110379324301,1.00000000171993,0.624274395837811
16600.0000000389,9.97240275073145,1.00000000177314,0.646968036345899
16700.0000000375,9.93118395048474,1.00000000181554,0.652334510906845
16800.000000036,9.88750276261036,1.00000000183314,0.649273580782287
16900.0000000346,9.84214757808989,1.00000000179255,0.636596668444822
17000.0000000331,9.79373060158509,1.00000000182095,0.636441676555218
17100.0000000317,9.74355642150137,1.00000000184886,0.639698935185295
17200.0000000302,9.69463080679458,1.00000000201107,0.639744201072852
17300.0000000287,9.64432883019206,1.00000000191759,0.654806971118469
17400.0000000273,9.59078809011454,1.00000000196293,0.661798203249697
17500.0000000258,9.53699000249967,1.00000000188922,0.643824108487579
17600.0000000244,9.48352921658016,1.00000000168236,0.628945710657201
17700.0000000229,9.4307566905275,1.00000000176774,0.65529231254887
17800.0000000215,9.37844491150475,1.00000000179044,0.642071173363028
17900.00000002,9.32752277156061,1.00000000172838,0.623344312415683
18000.0000000186,9.27840955037433,1.00000000178719,0.636370545172472
18100.0000000171,9.23261157892305,1.00000000181789,0.639192403291291
18200.0000000156,9.19169994672007,1.00000000193059,0.641535586733398
18300.0000000142,9.15783803812746,1.00000000194468,0.652201192898885
18400.0000000127,9.13472120444984,1.00000000195548,0.662328595746367
18500.0000000113,9.12087408028403,1.00000000211055,0.662408007322474
18600.0000000098,9.12612761515997,1.00000000219615,0.667936174750102
18700.0000000084,9.13771954665187,1.00000000242845,0.665168243954255
18800.0000000069,9.17201297242796,1.00000000226006,0.662120265720053
18900.0000000055,9.20417868240143,1.00000000232935,0.649012145025365
19000.000000004,9.2502156993703,1.00000000222837,0.636024325717492
19100.0000000026,9.27830807132665,1.00000000217832,0.620275448685813
19200.0000000011,9.29791228564719,1.00000000203612,0.608405152246146
19299.9999999996,9.28915429920665,1.00000000167536,0.588703798612688
19399.9999999982,9.25962518795801,1.00000000160736,0.566620001461986
19499.9999999967,9.21714455382337,1.00000000136767,0.534408762986109
19599.9999999953,9.17639850126766,1.00000000131745,0.508338298639812
19699.9999999938,9.16081145160528,1.00000000129227,0.484836280326099
19799.9999999924,9.1921175754295,1.0000000011894,0.464758314513003
19899.9999999909,9.29584396764214,1.0000000011566,0.44960821755943
19999.9999999895,9.47900362811768,1.00000000121077,0.446423579156694
20099.999999988,9.76278334073506,1.00000000135478,0.454555287233471
20199.9999999865,10.1116596228981,1.00000000157719,0.458504159039852
20299.9999999851,10.5493852949784,1.00000000181656,0.470805208865218
20399.9999999836,11.0015305634864,1.00000000189485,0.482791574069445
20499.9999999822,11.5014461509243,1.00000000202873,0.491010937109216
20599.9999999807,11.9865680877001,1.00000000193487,0.506214688479623
20699.9999999793,12.4803259592263,1.00000000228253,0.51019724275575
20799.9999999778,12.9537703514415,1.00000000195723,0.526743656121713
20899.9999999764,13.4071764948292,1.00000000235524,0.529755012845719
20999.9999999749,13.8471857914134,1.00000000215848,0.548300754383685
21099.9999999734,14.2533548493643,1.00000000216319,0.554590213361445
21199.999999972,14.6543830594279,1.00000000199347,0.565719670197693
21299.9999999705,15.031853151761,1.00000000196639,0.570484586034038
21399.9999999691,15.3999020070398,1.00000000205436,0.577944552582347
21499.9999999676,15.7534650161834,1.00000000196471,0.588686998605569
21599.9999999662,16.0865572201258,1.00000000195719,0.589031349924086
21699.9999999647,16.3993162655728,1.0000000021685,0.615445758866496
21799.9999999633,16.6731062117703,1.00000000205955,0.622938358663953
21899.9999999618,16.9489556504616,1.0000000019909,0.631442894325066
21999.9999999603,17.1926209611652,1.00000000216798,0.641620045921349
22099.9999999589,17.4138242571004,1.00000000235774,0.640300247244761
22199.9999999574,17.6106172063985,1.00000000200651,0.652853336248909
22299.999999956,17.7869545809181,1.00000000195463,0.649412356309787
22399.9999999545,17.9492814333792,1.0000000021281,0.652677823147406
22499.9999999531,18.0909745742452,1.00000000205181,0.647091160538497
22599.9999999516,18.2270129888283,1.00000000191258,0.65142591150199
22699.9999999502,18.3416455419781,1.00000000194208,0.644855447104278
22799.9999999487,18.446855248186,1.00000000213296,0.647680265405018
22899.9999999473,18.5299424384366,1.00000000203787,0.652760030812388
22999.9999999458,18.6044547121205,1.0000000020015,0.656027840794378
23099.9999999443,18.6711708202815,1.00000000201902,0.656892087223164
23199.9999999429,18.7278631171928,1.00000000197835,0.664720120097236
23299.9999999414,18.7818815144582,1.00000000201025,0.662592912031578
23399.99999994,18.8287163698218,1.00000000183073,0.656289414151904
23499.9999999385,18.8710793404018,1.00000000222712,0.660126583795275
23599.9999999371,18.8939274941565,1.00000000206486,0.647791439845828
23699.9999999356,18.9044754556483,1.00000000234041,0.658195487980218
23799.9999999342,18.9109624571809,1.00000000195069,0.654654337831162
23899.9999999327,18.924138107742,1.00000000228055,0.649981633969014
23999.9999999312,18.9478570589501,1.00000000189785,0.654723443741261
24099.9999999298,18.9662018808725,1.00000000222854,0.66342762848152
24199.9999999283,18.979504789527,1.00000000202868,0.666422053411032
24299.9999999269,18.9776677668393,1.00000000214716,0.66626691799323
24399.9999999254,18.9662905614174,1.00000000209911,0.648631613409967
24499.999999924,18.9536411407073,1.00000000198142,0.648189252375996
24599.9999999225,18.9428846667651,1.00000000196376,0.640586664457404
24699.9999999211,18.9367655088373,1.00000000200717,0.637748584091513
24799.9999999196,18.9273237512237,1.0000000021133,0.641784427446428
24899.9999999181,18.9084946970568,1.00000000230574,0.645181515053354
24999.9999999167,18.8846160718422,1.00000000189738,0.635425666939033
25099.9999999152,18.8672229308061,1.00000000176281,0.623907704212776
25199.9999999138,18.8577220336501,1.00000000181313,0.638633386411575
25299.9999999123,18.8509256840018,1.00000000220558,0.659346044243499
25399.9999999109,18.8367858127205,1.00000000206689,0.663536820587694
25499.9999999094,18.8165124681727,1.00000000227125,0.663120789095004
25599.999999908,18.7916433818626,1.0000000021207,0.652670858765688
25699.9999999065,18.7679894317559,1.00000000193063,0.625399985856674
25799.9999999051,18.7468872078585,1.00000000221747,0.646666942261057
25899.9999999036,18.7228612542094,1.0000000021152,0.661890676089455
25999.9999999021,18.7068940741051,1.00000000182588,0.621221549811506
26099.9999999007,18.6974701034921,1.0000000022068,0.648871076114283
26199.9999998992,18.683255900745,1.00000000237732,0.65487019730301
26299.9999998978,18.6677173024198,1.00000000203593,0.629397693246436
26399.9999998963,18.6518496349042,1.00000000193701,0.636122264586541
26499.9999998949,18.6383414825991,1.00000000197951,0.633948584882719
26599.9999998934,18.6261209488879,1.00000000237457,0.661482672507173
26699.999999892,18.6070981031416,1.00000000202011,0.661999174179496
26799.9999998905,18.5861708884083,1.00000000220142,0.663872911846929
26899.999999889,18.5675769464187,1.00000000191269,0.654081746009777
26999.9999998876,18.5536814556061,1.00000000194249,0.654826907130665
27099.9999998861,18.5414855819826,1.00000000241187,0.643247345328299
27199.9999998847,18.5293885285873,1.00000000208903,0.648213548633074
27299.9999998832,18.5121171730603,1.00000000230171,0.641841525022934
27399.9999998818,18.4904865035935,1.00000000208551,0.643712319484363
27499.9999998803,18.4652654952685,1.00000000211207,0.655469662584503
27599.9999998789,18.4371334996449,1.00000000204919,0.646482961958944
27699.9999998774,18.4067923312534,1.00000000204259,0.62674292991528
27799.9999998759,18.3775552349029,1.00000000210025,0.629461177029993
27899.9999998745,18.3495370465528,1.00000000200201,0.650976858495107
27999.999999873,18.3191287072258,1.00000000237293,0.653840821391118
28099.9999998716,18.2896052552346,1.00000000188217,0.626876652732864
28199.9999998701,18.2671719686783,1.0000000018413,0.604223863750336
28299.9999998687,18.2488796644115,1.00000000227708,0.609420610227739
28399.9999998672,18.2286979676573,1.00000000221386,0.650449707881276
28499.9999998658,18.2050080834852,1.00000000222055,0.661039245823641
28599.9999998643,18.1773536511436,1.00000000213088,0.647368245759219
28699.9999998629,18.1517308604049,1.00000000206618,0.622933941774414
28799.9999998614,18.1322547409467,1.00000000208234,0.637864520895273
28899.9999998599,18.1144616570657,1.00000000225579,0.656061954209469
28999.9999998585,18.0980660362861,1.00000000223881,0.6601357981677
