Time,AGPnorm,Energy,Entropy
0,0,1,-7.32898220837095e-17
99.9999999999986,0.000264375534813056,1.00000000000101,0.00106119006582678
199.999999999993,0.00174249593437314,1.00000000000114,0.00325873602001109
300,0.00369934226747041,1.00000000000023,0.00611516839673926
400.000000000022,0.00575973652003028,0.999999999999808,0.00965674073421798
500.000000000045,0.00826426098384439,1.0000000000005,0.0140029439559049
600.000000000068,0.011495127287787,1.00000000000118,0.0190586641662679
700.000000000091,0.015265149067967,1.00000000000072,0.0245685294469135
800.000000000113,0.0194116554700131,0.99999999999994,0.0304501193332038
900.000000000136,0.0238307687709642,1.00000000000011,0.0368721682612725
1000.00000000016,0.0287405162119588,1.00000000000088,0.0438747670431996
1100.0000000001,0.034122763548378,1.00000000000101,0.0513853980064462
1200,0.0397741882016828,1.00000000000033,0.059265065658586
1299.99999999991,0.0456208279528034,0.999999999999945,0.0676156536925201
1399.99999999982,0.0519249305995554,1.00000000000051,0.0765539901585863
1499.99999999973,0.0582234518286635,1.00000000000098,0.0861187621874458
1599.99999999964,0.0649452353177017,1.00000000000081,0.0962474764233127
1699.99999999955,0.0716489621051058,1.00000000000008,0.106958706056958
1799.99999999946,0.078616892906248,1.00000000000036,0.118422214609958
1899.99999999937,0.0854959589620297,1.00000000000092,0.130826873402683
1999.99999999928,0.092684472702606,1.00000000000132,0.144203280722692
2099.99999999919,0.100108158132993,1.00000000000141,0.158693015689452
2199.99999999909,0.107416140720825,1.0000000000023,0.174430953714045
2299.999999999,0.114532129574747,1.0000000000051,0.19179278666166
2399.99999999891,0.121923867515134,1.00000000001039,0.210715111689321
2499.99999999882,0.133080086644577,1.00000000001882,0.231037902310278
2599.99999999873,0.148035007048147,1.00000000003045,0.252409392059774
2699.99999999864,0.167542770008305,1.0000000000493,0.274409188008018
2799.99999999855,0.199630535267159,1.0000000000703,0.296561545121803
2899.99999999846,0.265685595686267,1.00000000009173,0.318164868270428
2999.99999999837,0.383230151034152,1.00000000011549,0.338880049227815
3099.99999999828,0.565300940099593,1.00000000014737,0.358256858325271
3199.99999999819,0.840376966121762,1.00000000017262,0.376518437422457
3299.99999999809,1.25849975030736,1.00000000020132,0.393269059537706
3399.999999998,1.86738714422421,1.00000000023073,0.408598305786197
3499.99999999791,2.695556001646,1.00000000024422,0.422603478299332
3599.99999999782,3.77513684716208,1.00000000029063,0.435340661733489
3699.99999999773,5.15924993669295,1.00000000029596,0.446967166428331
3799.99999999764,6.9003512278586,1.00000000031376,0.45737999055353
3899.99999999755,9.02682100794094,1.00000000031863,0.466953182493375
3999.99999999746,11.5519810614944,1.00000000032819,0.475600859174931
4099.99999999738,14.5014502800198,1.00000000036965,0.483086690403851
4199.99999999775,17.9028215127198,1.00000000036559,0.489853755534593
4299.99999999811,21.7674951940546,1.00000000040797,0.495898081539351
4399.99999999848,26.0888811701176,1.00000000039949,0.501404829208063
4499.99999999884,30.8578344054263,1.00000000037569,0.506129697545852
4599.9999999992,36.0700675557052,1.00000000040226,0.510184304062027
4699.99999999957,41.7142529739187,1.00000000040923,0.513918302928501
4799.99999999993,47.7711027571162,1.00000000039159,0.516905298390522
4900.00000000029,54.2087877842579,1.00000000037321,0.519711004776469
5000.00000000066,60.9990853113424,1.00000000040796,0.521749867914087
5100.00000000102,68.1118955359808,1.00000000039168,0.523638944337354
5200.00000000139,75.5179920152344,1.0000000004118,0.52495754914435
5300.00000000175,83.1845492538482,1.00000000037812,0.526308979359071
5400.00000000211,91.0706526718988,1.0000000004013,0.527267506978427
5500.00000000248,99.1377071900604,1.00000000038191,0.527829698866769
5600.00000000284,107.350254143069,1.00000000039681,0.528084353882874
5700.00000000321,115.680468689724,1.00000000037322,0.52873565744735
5800.00000000357,124.089844945298,1.00000000037808,0.528594512969983
5900.00000000393,132.538612135727,1.00000000038305,0.527570818671504
6000.0000000043,140.990485365896,1.00000000037377,0.527626104468848
6100.00000000466,149.419387661564,1.00000000035975,0.52762714322016
6200.00000000502,157.801538293965,1.00000000035713,0.526399214551661
6300.00000000539,166.098407300718,1.00000000036839,0.524912172513269
6400.00000000575,174.280229902746,1.00000000038179,0.524652025791251
6500.00000000612,182.323438266404,1.00000000036877,0.524501146100952
6600.00000000648,190.214150590003,1.00000000035435,0.522676056348794
6700.00000000684,197.9279912872,1.0000000003235,0.520933851499208
6800.00000000721,205.440449038775,1.00000000031007,0.519939295942336
6900.00000000757,212.731715201519,1.00000000031238,0.519687211080452
7000.00000000793,219.790356145276,1.00000000033,0.518622754838023
7100.0000000083,226.611023240062,1.00000000031417,0.516728086826343
7200.00000000866,233.174247501532,1.00000000032814,0.51478608209898
7300.00000000903,239.468826008668,1.0000000003142,0.513857731375319
7400.00000000939,245.485980811932,1.00000000029846,0.513289228954688
7500.00000000975,251.225689737912,1.0000000003044,0.512025464457572
7600.00000001012,256.68144098676,1.00000000029382,0.510004839082232
7700.00000001048,261.844861237818,1.00000000027638,0.508716324326711
7800.00000001084,266.714753411138,1.00000000029104,0.508523337212314
7900.00000001121,271.291704303024,1.00000000028747,0.508340893123526
8000.00000001157,275.581397997014,1.00000000026992,0.507009964064984
8100.00000001194,279.576337422021,1.00000000027652,0.503303360245459
8200.0000000123,283.271283817257,1.00000000026046,0.499738562816927
8300.00000001266,286.668782372945,1.00000000026,0.499457765580465
8400.00000001303,289.782593682671,1.00000000025604,0.502982288966055
8500.00000001339,292.627246032778,1.00000000024511,0.507060483150608
8600.00000001376,295.20949680086,1.00000000025032,0.506720540509918
8700.00000001412,297.527375589469,1.00000000023759,0.500236439505318
8800.00000001448,299.570913721502,1.00000000023063,0.490473833812506
8900.00000001485,301.335808800196,1.00000000022138,0.484162229781153
9000.00000001521,302.828393327516,1.00000000022474,0.488213871513475
9100.00000001557,304.07507665709,1.00000000023409,0.501197286003852
9200.00000001594,305.116136481806,1.00000000023753,0.513003056440497
9300.0000000163,305.981665506506,1.00000000023974,0.515544850954841
9400.00000001667,306.674224518297,1.00000000025152,0.50547829699244
9500.00000001703,307.163841989666,1.00000000021231,0.484943250425098
9600.00000001739,307.411711276468,1.00000000018258,0.465233916980111
9700.00000001776,307.405005850541,1.00000000017049,0.462581616938921
9800.00000001812,307.176815537386,1.00000000019302,0.480582638682852
9900.00000001848,306.791187504299,1.00000000022087,0.506247891370074
10000.0000000188,306.314051660072,1.00000000025197,0.525690357169163
10100.0000000192,305.78494434579,1.00000000026896,0.531024864306994
10200.0000000196,305.201253669383,1.00000000024133,0.518145484347951
10300.0000000199,304.520756321734,1.00000000021138,0.487953363816655
10400.0000000203,303.680422829928,1.00000000016016,0.449493893134385
10500.0000000207,302.635375958417,1.0000000001235,0.425058769474896
10600.000000021,301.39221391727,1.00000000014182,0.435752665978212
10700.0000000214,300.009872959418,1.00000000018565,0.471434204560426
10800.0000000218,298.566946612263,1.0000000002491,0.507914510396367
10900.0000000221,297.130177498138,1.00000000029801,0.532656319252094
11000.0000000225,295.736573276858,1.00000000030458,0.542403548754646
11100.0000000229,294.387426590884,1.00000000031376,0.534491651338461
11200.0000000232,293.047563204389,1.00000000026666,0.50653816909326
11300.0000000236,291.655469482212,1.00000000019718,0.459126498663981
11400.0000000239,290.14790190194,1.00000000013041,0.405472062015189
11500.0000000243,288.491245983868,1.00000000008893,0.374740617174068
11600.0000000247,286.700463299581,1.0000000001059,0.389733797712215
11700.000000025,284.82780308401,1.00000000016546,0.437509396710307
11800.0000000254,282.933898356281,1.00000000023267,0.486561775237976
11900.0000000258,281.070012266585,1.00000000030923,0.521013771963989
12000.0000000261,279.271353693267,1.00000000032326,0.53929787925062
12100.0000000265,277.554006048688,1.00000000033671,0.544319295028992
12200.0000000269,275.911145828096,1.00000000032966,0.53757513205463
12300.0000000272,274.314511492571,1.00000000028446,0.512313511635428
12400.0000000276,272.719771688646,1.00000000023025,0.464820378910137
12500.0000000279,271.078156915287,1.00000000014872,0.403212659986843
12600.0000000283,269.355136730445,1.00000000010073,0.346863960878202
12700.0000000287,267.544959491555,1.00000000007784,0.322781346127381
12800.000000029,265.669480131472,1.00000000010529,0.346063559601279
12900.0000000294,263.763332664046,1.00000000016023,0.400371304560458
13000.0000000298,261.860407485694,1.000000000233,0.456006159540715
13100.0000000301,259.986626442986,1.00000000028473,0.496346851199366
13200.0000000305,258.160190842332,1.00000000032392,0.519213349706625
13300.0000000309,256.393915129287,1.00000000033325,0.530793453626703
13400.0000000312,254.693989545848,1.00000000034409,0.535170551532039
13500.0000000316,253.057511470102,1.00000000032937,0.532494485647817
13600.0000000319,251.470737739795,1.00000000029848,0.519012363410182
13700.0000000323,249.911571850029,1.00000000026373,0.489129806282879
13800.0000000327,248.353771182076,1.00000000021945,0.442206716479991
13900.000000033,246.774106530866,1.00000000017008,0.385705567935071
14000.0000000334,245.160021741093,1.00000000012142,0.334574889061485
14100.0000000338,243.513734644625,1.00000000008954,0.306016638303193
14200.0000000341,241.849259664418,1.00000000009275,0.308857076592069
14300.0000000345,240.184094514157,1.00000000012222,0.341591489694662
14400.0000000349,238.531821868619,1.00000000017425,0.393529654376124
14500.0000000352,236.898942034748,1.00000000022832,0.445116065534829
14600.0000000356,235.287159950688,1.00000000026947,0.481630471352636
14700.0000000359,233.698112769493,1.00000000029255,0.499750205749729
14800.0000000363,232.135410894978,1.00000000032619,0.505451958707447
14900.0000000367,230.603520760622,1.00000000032066,0.50874101302916
15000.000000037,229.105833339938,1.00000000033455,0.515540314582299
15100.0000000374,227.643541886362,1.00000000032315,0.524095293494666
15200.0000000378,226.214102884811,1.00000000030158,0.525577007976413
15300.0000000381,224.810802240853,1.00000000029311,0.512810428355643
15400.0000000385,223.423722732805,1.0000000002334,0.485391447594268
15500.0000000389,222.043067540943,1.00000000019351,0.445974696781066
15600.0000000392,220.662910929029,1.00000000016903,0.402099746932504
15700.0000000396,219.28334613726,1.00000000013272,0.362231100198083
15800.0000000399,217.910855053128,1.00000000012391,0.332427398331637
15900.0000000403,216.555387577595,1.00000000012286,0.318979997809371
16000.0000000407,215.226653339886,1.00000000012986,0.32733732694833
16100.000000041,213.930743378382,1.00000000014047,0.34885945602275
16200.0000000414,212.667695384335,1.00000000017009,0.378336631669286
16300.0000000418,211.431847307622,1.00000000021095,0.413658518585531
16400.0000000418,210.213968919826,1.00000000025068,0.452033839981862
16500.0000000404,209.006137492679,1.00000000025732,0.484594383490837
16600.0000000389,207.804541218061,1.00000000025443,0.500492255284774
16700.0000000375,206.608964249466,1.00000000024584,0.498594183304196
16800.000000036,205.420194670593,1.00000000024972,0.486189125770841
16900.0000000346,204.238289794461,1.00000000026226,0.475653926243589
17000.0000000331,203.062618891595,1.00000000028256,0.477604573140365
17100.0000000317,201.893187629142,1.00000000030144,0.493197907276996
17200.0000000302,200.731248234214,1.00000000032094,0.514323202569067
17300.0000000287,199.578987965766,1.00000000031368,0.529851294581691
17400.0000000273,198.438601475264,1.0000000003057,0.531985799423102
17500.0000000258,197.311210379077,1.00000000028011,0.519821077186735
17600.0000000244,196.196907185068,1.00000000023816,0.493716995992129
17700.0000000229,195.096251517865,1.00000000019799,0.456672361252385
17800.0000000215,194.012800908536,1.00000000014797,0.414695670535211
17900.00000002,192.953971487798,1.00000000011229,0.375433812038978
18000.0000000186,191.92914161026,1.00000000010738,0.34659094969684
18100.0000000171,190.945996550786,1.00000000011938,0.331292369226208
18200.0000000156,190.007986358115,1.00000000014296,0.328764782475493
18300.0000000142,189.114831163281,1.00000000016647,0.338841409307802
18400.0000000127,188.263567161636,1.00000000019031,0.360964927414017
18500.0000000113,187.44970540115,1.0000000001946,0.387266656035466
18600.0000000098,186.664810179037,1.00000000021148,0.412964561701531
18700.0000000084,185.898999823107,1.00000000022588,0.434907652981844
18800.0000000069,185.138865762147,1.00000000025473,0.454813663955367
18900.0000000055,184.374669943491,1.00000000026666,0.474119066593053
19000.000000004,183.600025005278,1.00000000028045,0.491171843840021
19100.0000000026,182.815612421096,1.00000000026548,0.502927202775149
19200.0000000011,182.026776918958,1.00000000023165,0.502832094980532
19299.9999999996,181.240924448344,1.00000000020097,0.490608531870143
19399.9999999982,180.464598487688,1.00000000018816,0.471434081766236
19499.9999999967,179.69948261939,1.00000000018663,0.454813902789607
19599.9999999953,178.941916020094,1.00000000021164,0.447096940776872
19699.9999999938,178.183019056689,1.00000000025488,0.451250191754805
19799.9999999924,177.413808515241,1.00000000029178,0.466056992510608
19899.9999999909,176.628441208244,1.00000000032153,0.485812743985906
19999.9999999895,175.826425725689,1.00000000033079,0.50629172297509
20099.999999988,175.010954265293,1.00000000032578,0.522414950768795
20199.9999999865,174.18785266713,1.00000000031509,0.53090290034435
20299.9999999851,173.363075288114,1.00000000029295,0.530533664095839
20399.9999999836,172.541849503267,1.00000000027128,0.520909968252466
20499.9999999822,171.729067032299,1.00000000024751,0.501334760041741
20599.9999999807,170.929716036044,1.00000000021347,0.473813018823617
20699.9999999793,170.150356212761,1.00000000017269,0.442939453091352
20799.9999999778,169.399575930121,1.00000000014306,0.412689677482945
20899.9999999764,168.687583375555,1.00000000012732,0.384650806915783
20999.9999999749,168.025115306818,1.00000000010388,0.359368032915155
21099.9999999734,167.420528768396,1.00000000011178,0.340527502579369
21199.999999972,166.876675413198,1.00000000012642,0.331901697800173
21299.9999999705,166.389746214569,1.00000000014829,0.335936827124405
21399.9999999691,165.950775410278,1.00000000017575,0.352241640537133
21499.9999999676,165.548691161223,1.00000000020876,0.375649055276973
21599.9999999662,165.172687432359,1.000000000225,0.398360880402358
21699.9999999647,164.814841589813,1.00000000022274,0.418495409791539
21799.9999999633,164.469030659625,1.00000000022082,0.436031041846159
21899.9999999618,164.129574688675,1.00000000022804,0.450804430993862
21999.9999999603,163.791643606003,1.00000000024176,0.462186770159184
22099.9999999589,163.449539518842,1.00000000025027,0.470860297952576
22199.9999999574,163.096940106812,1.00000000025153,0.477688033538362
22299.999999956,162.728941087338,1.00000000025288,0.484118384973374
22399.9999999545,162.342306185964,1.00000000026433,0.491570921838273
22499.9999999531,161.935196857673,1.000000000276,0.499667634801983
22599.9999999516,161.509276261884,1.00000000026477,0.507960495490072
22699.9999999502,161.068664777431,1.00000000024173,0.514071341814862
22799.9999999487,160.619271488058,1.00000000023477,0.514561502114061
22899.9999999473,160.168813131905,1.0000000002187,0.507319666482212
22999.9999999458,159.72414865259,1.00000000020001,0.495868081741205
23099.9999999443,159.289103768202,1.0000000001899,0.485950391783018
23199.9999999429,158.863575870326,1.00000000018659,0.480415920354973
23299.9999999414,158.443396711604,1.00000000019308,0.478302047559092
23399.99999994,158.021840520075,1.00000000021251,0.475839474214435
23499.9999999385,157.592519853074,1.00000000023828,0.473328625509515
23599.9999999371,157.151077306618,1.00000000025107,0.472999692900695
23699.9999999356,156.69450595655,1.00000000026067,0.475702671318656
23799.9999999342,156.220903629937,1.00000000027667,0.48088356439358
23899.9999999327,155.728906347281,1.0000000002848,0.490926786862395
23999.9999999312,155.217655435661,1.00000000030755,0.504941387686667
24099.9999999298,154.68843116068,1.00000000031647,0.519427777794165
24199.9999999283,154.144007200808,1.00000000031719,0.530772627086608
24299.9999999269,153.588999808393,1.00000000030904,0.537078893645178
24399.9999999254,153.028892674986,1.00000000029051,0.536157851893959
24499.999999924,152.469492516351,1.00000000026732,0.527111609706711
24599.9999999225,151.916618829238,1.00000000024107,0.510888110959682
24699.9999999211,151.376791499727,1.00000000018848,0.489396327044761
24799.9999999196,150.858173789106,1.00000000016651,0.463529452632132
24899.9999999181,150.369985422721,1.00000000013695,0.436260783887641
24999.9999999167,149.922100288348,1.00000000012569,0.412087077655058
25099.9999999152,149.522967852491,1.00000000011919,0.393300180861554
25199.9999999138,149.178318657808,1.00000000011642,0.378796973303955
25299.9999999123,148.890578431304,1.00000000012635,0.367844096827785
25399.9999999109,148.6598414759,1.00000000014466,0.359623348870389
25499.9999999094,148.485510124282,1.00000000014472,0.356029928233178
25599.999999908,148.36614992701,1.00000000016194,0.35707867021844
25699.9999999065,148.297085423555,1.00000000016477,0.362634409493206
25799.9999999051,148.26927698427,1.00000000018575,0.374792943699106
25899.9999999036,148.269978631677,1.00000000020135,0.391369946480655
25999.9999999021,148.284414004393,1.00000000023383,0.409595640011158
26099.9999999007,148.299458236826,1.00000000025333,0.427199737235303
26199.9999998992,148.305428827792,1.00000000025374,0.442520432727467
26299.9999998978,148.297156619051,1.00000000026342,0.456256926427415
26399.9999998963,148.273586020224,1.00000000025217,0.469116235935668
26499.9999998949,148.237062740845,1.00000000024822,0.479751425025596
26599.9999998934,148.191516397747,1.00000000023729,0.487174994840991
26699.999999892,148.141742930604,1.00000000022699,0.491195723675393
26799.9999998905,148.092322138536,1.00000000021447,0.4925080060007
26899.999999889,148.046489039821,1.00000000019693,0.491951075693949
26999.9999998876,148.005299474369,1.00000000019815,0.491356489936338
27099.9999998861,147.966597283249,1.00000000019349,0.490662372954279
27199.9999998847,147.924998313011,1.00000000021724,0.491045711351867
27299.9999998832,147.873178477849,1.00000000022496,0.494473781522064
27399.9999998818,147.803406180477,1.00000000025476,0.501494321935082
27499.9999998803,147.709745989265,1.00000000026889,0.508978973226884
27599.9999998789,147.588854307546,1.00000000026954,0.513018170211007
27699.9999998774,147.439881117664,1.00000000027119,0.512773404001331
27799.9999998759,147.263779515157,1.00000000027823,0.510163917713268
27899.9999998745,147.062891917937,1.00000000026953,0.508205423362228
27999.999999873,146.840330085288,1.00000000027063,0.510967760037997
28099.9999998716,146.600109684551,1.00000000026479,0.517499024918871
28199.9999998701,146.346999715499,1.00000000024995,0.521620164407747
28299.9999998687,146.086401893009,1.00000000022261,0.5196443539467
28399.9999998672,145.824087114887,1.00000000020206,0.512377761362234
28499.9999998658,145.565228262953,1.00000000019402,0.503285788354573
28599.9999998643,145.313529373203,1.00000000018388,0.496237299081236
28699.9999998629,145.070754226851,1.00000000018818,0.493413949483332
28799.9999998614,144.837073264849,1.00000000018742,0.493683218893794
28899.9999998599,144.61094321036,1.00000000019165,0.495344575281744
