Time,AGPnorm,Energy,Entropy
0,0,1,-1.26134918587712e-17
99.9999999999986,5.48334517522808e-05,0.999999999995062,0.00199645694504635
199.999999999993,0.00483359718087223,0.999999999999472,0.00325750058030945
300,0.0118576364451089,0.999999999997764,0.00551234938631044
400.000000000022,0.0158376367546038,0.999999999996011,0.00959283708257631
500.000000000045,0.0189315402455604,1.00000000000026,0.0127657290559797
600.000000000068,0.0280475846998006,0.999999999995594,0.0175007162279802
700.000000000091,0.0347998830166887,0.999999999998436,0.0226308432798565
800.000000000113,0.0431464979671692,0.999999999998742,0.0275168514850067
900.000000000136,0.0537853359578107,0.99999999999552,0.0339340007926949
1000.00000000016,0.062600181916281,1.00000000000006,0.039907196561401
1100.0000000001,0.0745316081615164,0.999999999996477,0.0465427573833585
1200,0.0860735364997095,0.999999999997347,0.0541627387261336
1299.99999999991,0.097347206777946,0.999999999999383,0.0613030365663974
1399.99999999982,0.11168793893961,0.99999999999558,0.0697501387419498
1499.99999999973,0.125073449729717,0.999999999999428,0.0784243978369244
1599.99999999964,0.13832286083989,0.999999999997375,0.0873399533213719
1699.99999999955,0.151992044634309,0.999999999996526,0.0976584439481082
1799.99999999946,0.165468479925063,0.999999999999746,0.107844138225396
1899.99999999937,0.181092880216261,0.999999999996119,0.119416497211655
1999.99999999928,0.19609831998788,0.999999999998533,0.132193696063486
2099.99999999919,0.209434254733128,0.999999999998514,0.145487222766795
2199.99999999909,0.223751346284416,0.999999999998325,0.161420459958968
2299.999999999,0.238164438703311,1.00000000000961,0.17878090043227
2399.99999999891,0.254229578465744,1.000000000024,0.198571901336578
2499.99999999882,0.265483233438743,1.00000000006328,0.220673519786411
2599.99999999873,0.28176114266415,1.00000000012351,0.242608575891679
2699.99999999864,0.302001668182541,1.00000000019457,0.265743207480036
2799.99999999855,0.319713121780577,1.00000000029352,0.288246116458254
2899.99999999846,0.372561281797753,1.00000000039536,0.30980049565311
2999.99999999837,0.42698988741227,1.00000000049988,0.331621684553575
3099.99999999828,0.527691324397414,1.00000000065116,0.351296310444781
3199.99999999819,0.7044355122738,1.00000000073669,0.371158148493363
3299.99999999809,0.917264605482856,1.00000000082839,0.390492852829242
3399.999999998,1.26442384791866,1.00000000095868,0.407371483573032
3499.99999999791,1.71521258106401,1.00000000106802,0.424475603091879
3599.99999999782,2.28380662776455,1.00000000113697,0.440172604395245
3699.99999999773,3.06011979407644,1.0000000012012,0.454538228207258
3799.99999999764,3.96637554367962,1.00000000127501,0.468836067732461
3899.99999999755,5.08462450342152,1.00000000135891,0.480891665807186
3999.99999999746,6.42740411514059,1.0000000013868,0.492876466441873
4099.99999999738,7.93430995287156,1.00000000145192,0.504266044976453
4199.99999999775,9.71144868313085,1.00000000150579,0.513601910525945
4299.99999999811,11.688362026342,1.00000000149742,0.523338797474601
4399.99999999848,13.8691780532247,1.00000000145008,0.531859250085484
4499.99999999884,16.310195447445,1.0000000015018,0.539240393691592
4599.9999999992,18.9119875121308,1.0000000015388,0.547023370728664
4699.99999999957,21.7402848196149,1.0000000015326,0.553063219022268
4799.99999999993,24.7675966734624,1.00000000157067,0.55888629626063
4900.00000000029,27.9315524651696,1.0000000016081,0.564749143064565
5000.00000000066,31.2976788012186,1.00000000153166,0.569230435038292
5100.00000000102,34.7816727414015,1.00000000154669,0.574119685711253
5200.00000000139,38.3908580934632,1.00000000150404,0.57812646862829
5300.00000000175,42.1379631612407,1.00000000159129,0.581233997830558
5400.00000000211,45.9387146208493,1.0000000015327,0.585207118351138
5500.00000000248,49.8390568916281,1.00000000155282,0.587600127577934
5600.00000000284,53.7924777792928,1.00000000151786,0.590031661157943
5700.00000000321,57.7666516617845,1.00000000149121,0.592615831301347
5800.00000000357,61.791307296557,1.00000000148335,0.594078449372569
5900.00000000393,65.7956767885888,1.0000000014915,0.596173589910461
6000.0000000043,69.7987567378241,1.00000000146426,0.597543589016548
6100.00000000466,73.7870764055243,1.00000000144509,0.598470079803363
6200.00000000502,77.7153784497534,1.00000000139578,0.599944226804532
6300.00000000539,81.6126960605636,1.00000000137816,0.600465995439168
6400.00000000575,85.4321810943952,1.00000000137048,0.60125903957567
6500.00000000612,89.1739336406611,1.00000000133498,0.601921627103995
6600.00000000648,92.8446825063527,1.00000000134373,0.60165644504438
6700.00000000684,96.4029922545734,1.00000000126889,0.602442359820508
6800.00000000721,99.8704957637055,1.0000000012748,0.602471988017536
6900.00000000757,103.222071625278,1.00000000129634,0.602590806702417
7000.00000000793,106.449774858406,1.0000000012558,0.602982063373542
7100.0000000083,109.568866158291,1.00000000126947,0.601538207237145
7200.00000000866,112.547922308741,1.00000000124396,0.602427187771786
7300.00000000903,115.399686736791,1.00000000121153,0.602164577372494
7400.00000000939,118.117868627566,1.0000000011485,0.600987922850972
7500.00000000975,120.690364214724,1.00000000114906,0.601730006997564
7600.00000001012,123.136381344606,1.00000000113855,0.600247433573261
7700.00000001048,125.432360650841,1.00000000112481,0.601269416969597
7800.00000001084,127.589617055173,1.0000000010736,0.599456161598674
7900.00000001121,129.609257169457,1.00000000107172,0.600115006515271
8000.00000001157,131.481548842006,1.00000000105914,0.598771148393787
8100.00000001194,133.224607337019,1.00000000102008,0.598964504691954
8200.0000000123,134.823952186581,1.00000000100285,0.597721752160956
8300.00000001266,136.287784619576,1.00000000101981,0.598345260885163
8400.00000001303,137.620680453398,1.00000000097562,0.596163767438157
8500.00000001339,138.817641037849,1.00000000100177,0.597350856282865
8600.00000001376,139.890485314156,1.00000000096314,0.595114244387268
8700.00000001412,140.835865036878,1.00000000091619,0.597035642756928
8800.00000001448,141.656187120633,1.00000000088434,0.594071255201345
8900.00000001485,142.361950954763,1.00000000090249,0.596686001132917
9000.00000001521,142.948978900808,1.00000000089471,0.593227821808772
9100.00000001557,143.426575019225,1.0000000008776,0.594810370965057
9200.00000001594,143.798880003207,1.00000000088552,0.595080616613342
9300.0000000163,144.066235149285,1.00000000083978,0.590836257436435
9400.00000001667,144.238461558614,1.00000000086805,0.595262064895839
9500.00000001703,144.319890070285,1.00000000085403,0.592883209147249
9600.00000001739,144.312818713816,1.00000000081903,0.587935941722817
9700.00000001776,144.223311425938,1.00000000090696,0.59620386266853
9800.00000001812,144.062314769362,1.00000000085116,0.588860293559508
9900.00000001848,143.825019637512,1.00000000082227,0.58534118056014
10000.0000000188,143.521773656337,1.00000000095922,0.595844971925014
10100.0000000192,143.165529758004,1.00000000084775,0.584153667583839
10200.0000000196,142.741535665218,1.00000000085173,0.581121543373805
10300.0000000199,142.2684233564,1.00000000093191,0.593276030342472
10400.0000000203,141.75773499906,1.00000000086715,0.580544913223694
10500.0000000207,141.191688188242,1.00000000081433,0.574634827510705
10600.000000021,140.590022024397,1.00000000093856,0.588668172562412
10700.0000000214,139.962729248366,1.00000000089216,0.581796927127772
10800.0000000218,139.29652684644,1.00000000080674,0.566934496261849
10900.0000000221,138.599966135497,1.00000000092094,0.582258817933462
11000.0000000225,137.885963806011,1.00000000091914,0.581908547628819
11100.0000000229,137.152247349457,1.00000000083782,0.570186894998643
11200.0000000232,136.38805929316,1.0000000007961,0.566116170698051
11300.0000000236,135.607399870753,1.00000000094288,0.580744442575311
11400.0000000239,134.822335045371,1.00000000094408,0.577402722927072
11500.0000000243,134.018376234114,1.00000000081741,0.557522903040102
11600.0000000247,133.195810197475,1.00000000089607,0.568414438076271
11700.000000025,132.370755574079,1.0000000010006,0.575416578027058
11800.0000000254,131.542845059841,1.00000000090302,0.570096738521261
11900.0000000258,130.70585983309,1.0000000007987,0.552787034238903
12000.0000000261,129.85603509238,1.00000000093926,0.565864081219745
12100.0000000265,129.008729126083,1.00000000097259,0.568392588696163
12200.0000000269,128.163910708694,1.00000000090548,0.563810604863335
12300.0000000272,127.312935884976,1.00000000085763,0.553807824118224
12400.0000000276,126.458291797597,1.00000000089496,0.55801440301168
12500.0000000279,125.606902936018,1.00000000098139,0.565048110683726
12600.0000000283,124.759280074835,1.0000000009079,0.552949280953136
12700.0000000287,123.914502277983,1.0000000008971,0.558821914688858
12800.000000029,123.067075303053,1.00000000088661,0.553126479384566
12900.0000000294,122.225213212886,1.00000000096648,0.56135997191107
13000.0000000298,121.388453551792,1.00000000091091,0.546567652723985
13100.0000000301,120.555983028554,1.00000000091935,0.548382742524697
13200.0000000305,119.728307380147,1.00000000091041,0.557041930823873
13300.0000000309,118.903671971988,1.00000000099143,0.558819473560336
13400.0000000312,118.087292333822,1.00000000094904,0.552764221771637
13500.0000000316,117.276065459065,1.00000000090821,0.539912729822195
13600.0000000319,116.470266524348,1.00000000092912,0.539811538190435
13700.0000000323,115.671107376629,1.00000000092802,0.557653387998188
13800.0000000327,114.878165850771,1.00000000097005,0.562188701078992
13900.000000033,114.094022520762,1.0000000009423,0.551928455392215
14000.0000000334,113.31621732441,1.00000000086455,0.537423173014212
14100.0000000338,112.543861309089,1.00000000091568,0.531431004402596
14200.0000000341,111.779272442167,1.00000000092324,0.547055954326468
14300.0000000345,111.021904430917,1.00000000094876,0.562857469035957
14400.0000000349,110.273504023667,1.00000000100429,0.559412390940098
14500.0000000352,109.53334824111,1.00000000089776,0.543325748473064
14600.0000000356,108.799584845934,1.00000000088529,0.534121946187866
14700.0000000359,108.073207643174,1.00000000091072,0.530845450630133
14800.0000000363,107.354397760851,1.00000000094481,0.546226211757736
14900.0000000367,106.644466024989,1.00000000093102,0.560769024556559
15000.000000037,105.942949366258,1.00000000094969,0.559638362041326
15100.0000000374,105.24929543784,1.00000000091134,0.546344455194521
15200.0000000378,104.564161789574,1.00000000080892,0.533528315938638
15300.0000000381,103.886866812909,1.00000000087624,0.536702497116067
15400.0000000385,103.217537806752,1.00000000092942,0.541153391317169
15500.0000000389,102.557037812436,1.000000000938,0.549724473662854
15600.0000000392,101.904727820053,1.00000000093884,0.563003122992292
15700.0000000396,101.261067754037,1.00000000091421,0.553441093201757
15800.0000000399,100.625807987537,1.00000000089014,0.54135834990944
15900.0000000403,99.9992848546702,1.0000000008898,0.539917995383279
16000.0000000407,99.3817245342677,1.00000000091232,0.542957317019625
16100.000000041,98.7724344136923,1.00000000091727,0.544366449539915
16200.0000000414,98.1718336343696,1.0000000009299,0.545812197953911
16300.0000000418,97.5791102978955,1.00000000095776,0.558940126330599
16400.0000000418,96.9951626393513,1.00000000086307,0.551693027616096
16500.0000000404,96.420415112752,1.00000000086074,0.542651147418468
16600.0000000389,95.8540227718666,1.00000000089294,0.543350768462529
16700.0000000375,95.2964488556467,1.0000000008749,0.538894637639311
16800.000000036,94.7477921638731,1.00000000090868,0.542816174819629
16900.0000000346,94.2067137874824,1.00000000093806,0.553462359192652
17000.0000000331,93.6732256941704,1.00000000091288,0.546767730057436
17100.0000000317,93.1475695334383,1.0000000009448,0.549828555909593
17200.0000000302,92.6312224557177,1.0000000008698,0.549910158090291
17300.0000000287,92.1238599586714,1.00000000090126,0.542618938389039
17400.0000000273,91.6243764245683,1.00000000094635,0.543371241858538
17500.0000000258,91.1332601408645,1.00000000087644,0.533053510870479
17600.0000000244,90.650977604312,1.00000000090389,0.539468015153621
17700.0000000229,90.1747223302651,1.00000000099628,0.554263215386197
17800.0000000215,89.7033528531137,1.00000000096158,0.557220902447684
17900.00000002,89.2392329886002,1.00000000092293,0.542325457078504
18000.0000000186,88.7833188554597,1.00000000090558,0.545943103534607
18100.0000000171,88.336683184881,1.00000000089325,0.543597633702404
18200.0000000156,87.8986395572118,1.00000000094887,0.543722348823772
18300.0000000142,87.468351439975,1.00000000090299,0.536132169949354
18400.0000000127,87.0457341713704,1.0000000008933,0.533642830884922
18500.0000000113,86.6311400889387,1.00000000092377,0.53608542378932
18600.0000000098,86.2211254546559,1.00000000098936,0.545380859764121
18700.0000000084,85.8136394457438,1.00000000103842,0.557606327978179
18800.0000000069,85.4102636230359,1.00000000096225,0.555609829691542
18900.0000000055,85.0138729713388,1.0000000008838,0.541748328322452
19000.000000004,84.6264158682421,1.00000000088028,0.539380661354094
19100.0000000026,84.248604526948,1.00000000093365,0.542806514553748
19200.0000000011,83.8781808738019,1.00000000092832,0.544083451021439
19299.9999999996,83.5156371087255,1.00000000087655,0.53679952577081
19399.9999999982,83.1607539992359,1.00000000089224,0.534180386088741
19499.9999999967,82.8116715466072,1.00000000095175,0.537604532819609
19599.9999999953,82.4667313712008,1.00000000095151,0.542624148567341
19699.9999999938,82.1236827086736,1.00000000101807,0.544289796678423
19799.9999999924,81.7813694545952,1.00000000108165,0.556102233037874
19899.9999999909,81.442013408268,1.00000000091318,0.556211007771423
19999.9999999895,81.1099216233902,1.00000000087715,0.538237404438272
20099.999999988,80.7872100610561,1.0000000008835,0.539795480572291
20199.9999999865,80.4731210324112,1.00000000088922,0.545510512122884
20299.9999999851,80.1666288142291,1.00000000092853,0.542555934696101
20399.9999999836,79.8677529404721,1.00000000089878,0.543540993449604
20499.9999999822,79.5758611328054,1.00000000091392,0.539702233286787
20599.9999999807,79.2898873382886,1.00000000088954,0.542152910360439
20699.9999999793,79.0069413699578,1.0000000009495,0.544303235415406
20799.9999999778,78.7263951184777,1.00000000091778,0.546275823472317
20899.9999999764,78.4462303210766,1.0000000009827,0.545028558533418
20999.9999999749,78.1662268578814,1.00000000100883,0.547442952911297
21099.9999999734,77.8886326445888,1.00000000092415,0.555458074225872
21199.999999972,77.6161527717576,1.00000000092294,0.550014069126718
21299.9999999705,77.3510905676568,1.00000000089423,0.542821762178711
21399.9999999691,77.0938094110481,1.00000000091219,0.548964886596704
21499.9999999676,76.8447253774911,1.00000000085991,0.550230875528922
21599.9999999662,76.6041722661375,1.00000000090349,0.54281928575916
21699.9999999647,76.3703318069212,1.00000000091757,0.549631911206933
21799.9999999633,76.1422368730025,1.00000000096312,0.549102418197041
21899.9999999618,75.9180363186179,1.00000000093584,0.551748822664286
21999.9999999603,75.6954803433791,1.00000000095274,0.550963940565799
22099.9999999589,75.4756804318421,1.00000000092045,0.547146996506669
22199.9999999574,75.2583097946651,1.00000000095685,0.542286221955633
22299.999999956,75.04058554524,1.00000000102546,0.54365980534663
22399.9999999545,74.822191623802,1.00000000095694,0.55069130524716
22499.9999999531,74.604990947724,1.00000000095426,0.564479082237141
22599.9999999516,74.3914219297331,1.00000000089272,0.560395109714743
22699.9999999502,74.1830807071578,1.00000000092934,0.553897024613669
22799.9999999487,73.9815753087379,1.0000000009039,0.550964021904891
22899.9999999473,73.7877520384128,1.00000000090949,0.549755788700948
22999.9999999458,73.6031899145104,1.00000000085789,0.549184105558121
23099.9999999443,73.4269377983869,1.00000000091688,0.548167896484708
23199.9999999429,73.2549861041937,1.00000000092436,0.56160672041206
23299.9999999414,73.0844871798614,1.00000000095854,0.562542271896907
23399.99999994,72.9149925280136,1.00000000093802,0.562079431954101
23499.9999999385,72.7476220678081,1.00000000092211,0.555308511130365
23599.9999999371,72.58410355751,1.00000000089038,0.548827878780103
23699.9999999356,72.4244082219277,1.00000000092765,0.545548369095417
23799.9999999342,72.2661433031894,1.00000000096367,0.541698006897489
23899.9999999327,72.1066146164967,1.00000000102421,0.543790366895217
23999.9999999312,71.94416104438,1.00000000102526,0.557671232289366
24099.9999999298,71.780173341897,1.00000000102086,0.572791405611891
24199.9999999283,71.6160231766341,1.00000000097606,0.573862034272023
24299.9999999269,71.4555951474355,1.00000000090332,0.561674115967892
24399.9999999254,71.302802658563,1.00000000087655,0.551253267654833
24499.999999924,71.1591315930706,1.00000000085673,0.5489582104436
24599.9999999225,71.0241823611027,1.00000000083485,0.550503083480852
24699.9999999211,70.8974836626774,1.0000000009119,0.556447482728687
24799.9999999196,70.7744052815334,1.00000000094961,0.564343064632192
24899.9999999181,70.6526942723771,1.00000000098207,0.569043218224059
24999.9999999167,70.530302405535,1.00000000101469,0.570652490465741
25099.9999999152,70.4078218823817,1.00000000094747,0.566068659515145
25199.9999999138,70.2865997403019,1.00000000096975,0.566298355851925
25299.9999999123,70.1684984875249,1.00000000089299,0.556625580695492
25399.9999999109,70.0552257640802,1.00000000089323,0.553803565059119
25499.9999999094,69.9457422964564,1.00000000090839,0.553682359848395
25599.999999908,69.8377377010825,1.00000000094919,0.552377170834262
25699.9999999065,69.7267140951952,1.00000000106328,0.558360867874667
25799.9999999051,69.6100647212208,1.00000000104398,0.563872429994562
25899.9999999036,69.4881939023518,1.00000000107939,0.58110848751376
25999.9999999021,69.3627523946743,1.00000000101021,0.590055697704964
26099.9999999007,69.2394130246139,1.0000000009199,0.577254265528812
26199.9999998992,69.1229161683969,1.0000000008716,0.560692301203805
26299.9999998978,69.015717151424,1.0000000008268,0.557619671247182
26399.9999998963,68.9182760447737,1.00000000088922,0.554969843805861
26499.9999998949,68.8280300681496,1.00000000090291,0.557977051350112
26599.9999998934,68.7429837072939,1.00000000093192,0.567299099073529
26699.999999892,68.6603335074395,1.00000000100274,0.577647217280155
26799.9999998905,68.5775803243452,1.00000000096468,0.579953519835891
26899.999999889,68.4947863588613,1.00000000098185,0.579843159278366
26999.9999998876,68.410798319102,1.00000000096918,0.57897725289575
27099.9999998861,68.3274850173003,1.00000000095443,0.57169433822946
27199.9999998847,68.2467638167611,1.00000000092414,0.569214091871981
27299.9999998832,68.1691817603144,1.00000000089812,0.567589454466035
27399.9999998818,68.0942615455209,1.00000000096262,0.567013887318777
27499.9999998803,68.020981827291,1.00000000091578,0.570949871725083
27599.9999998789,67.9489306022951,1.00000000096183,0.578363406229341
27699.9999998774,67.8748276349696,1.00000000099104,0.578520551275152
27799.9999998759,67.7963352113906,1.0000000010354,0.578171133537007
27899.9999998745,67.7126583280803,1.00000000105673,0.585864989301163
27999.999999873,67.6238807895,1.00000000104494,0.587361662646223
28099.9999998716,67.5339635676888,1.00000000099253,0.588103138821333
28199.9999998701,67.4463457901076,1.00000000094538,0.588153601855036
28299.9999998687,67.3636373127634,1.00000000088098,0.58336500169955
28399.9999998672,67.2889667829662,1.00000000084754,0.573001604852446
28499.9999998658,67.2217342938215,1.00000000088629,0.573616083422549
28599.9999998643,67.15959862933,1.00000000090994,0.571041410868699
28699.9999998629,67.1017215432258,1.00000000095782,0.574793920188552
28799.9999998614,67.0463230235569,1.00000000096283,0.579522177989228
28899.9999998599,66.9931066595981,1.00000000099023,0.582846528622466
28999.9999998585,66.9404982504036,1.0000000010135,0.589103038184289
