Time,AGPnorm,Energy,Entropy
0,0,1,-7.26949000187152e-17
99.9999999999986,0.000578889090175085,0.999999999998996,0.00213365618425759
199.999999999993,0.00401427750711929,1.00000000000004,0.00635957578412882
300,0.00810499581340886,1.00000000000147,0.0119547697191753
400.000000000022,0.0126380918736883,1.00000000000087,0.0189401862506506
500.000000000045,0.0180729880769503,0.999999999999056,0.0273487321499349
600.000000000068,0.0253363969442184,0.999999999999303,0.0369165135445303
700.000000000091,0.0327918363906842,1.00000000000098,0.0475201193562213
800.000000000113,0.0413238457172345,1.00000000000162,0.0591515672947716
900.000000000136,0.0498162163224914,0.999999999999718,0.0719879280891986
1000.00000000016,0.0599836475048721,0.999999999998895,0.0859678494428589
1100.0000000001,0.0700889413045187,1.0000000000001,0.101376320894202
1200,0.0801457463638997,1.00000000000189,0.118312932238869
1299.99999999991,0.090405953100007,1.00000000000104,0.137308156205807
1399.99999999982,0.101077592348465,1.00000000000016,0.158582366897253
1499.99999999973,0.111825860819559,1.00000000000424,0.18315445691905
1599.99999999964,0.122951524801881,1.00000000001798,0.211326380347754
1699.99999999955,0.136801113071797,1.00000000004765,0.243296635179297
1799.99999999946,0.15168310716421,1.00000000009553,0.277228595408962
1899.99999999937,0.17958246568801,1.00000000016295,0.311119820631178
1999.99999999928,0.250558001467205,1.00000000024782,0.343321430389213
2099.99999999919,0.399452431995847,1.0000000003375,0.372944400127225
2199.99999999909,0.661676022227825,1.00000000044066,0.399520877181105
2299.999999999,1.09922298556111,1.00000000052184,0.42304106299295
2399.99999999891,1.78579709965776,1.00000000059828,0.443789876542814
2499.99999999882,2.77877222476889,1.00000000063202,0.462237757247273
2599.99999999873,4.12640014192728,1.00000000069783,0.4785288636805
2699.99999999864,5.88204983421292,1.00000000076249,0.49238485335843
2799.99999999855,8.07496384253287,1.0000000007978,0.504249898501577
2899.99999999846,10.7067379469718,1.00000000080628,0.514524512132279
2999.99999999837,13.7762119262663,1.00000000083,0.523645738100555
3099.99999999828,17.2958967252045,1.00000000084466,0.53093895517249
3199.99999999819,21.2397958331313,1.00000000083317,0.537101493258968
3299.99999999809,25.5445693635013,1.00000000092638,0.541905929463535
3399.999999998,30.1611405985176,1.00000000088325,0.546473375944099
3499.99999999791,35.0744996444326,1.00000000086269,0.549804198876982
3599.99999999782,40.2441796074111,1.00000000087886,0.552416431047084
3699.99999999773,45.5880236304298,1.00000000086653,0.554290721630951
3799.99999999764,51.0329321470955,1.00000000082949,0.55551586729915
3899.99999999755,56.5482183596332,1.00000000085311,0.556442048345267
3999.99999999746,62.109606129511,1.00000000084017,0.556866683889412
4099.99999999738,67.6542220369987,1.000000000808,0.556135239780467
4199.99999999775,73.1119829496971,1.00000000083932,0.555744918806932
4299.99999999811,78.4470155210343,1.00000000077884,0.556247846183825
4399.99999999848,83.6503742729727,1.00000000075084,0.553951973247394
4499.99999999884,88.6961448649719,1.0000000007389,0.553099638184259
4599.9999999992,93.5331821911059,1.00000000074745,0.551696677783199
4699.99999999957,98.1295189936223,1.00000000067805,0.550591387287542
4799.99999999993,102.479203250401,1.0000000006984,0.549272818542802
4900.00000000029,106.585603186211,1.00000000066236,0.547388201319209
5000.00000000066,110.424478027903,1.0000000006511,0.545224682630727
5100.00000000102,113.97794466142,1.00000000062545,0.544818427748342
5200.00000000139,117.24017774107,1.00000000062113,0.543135278669229
5300.00000000175,120.224389237805,1.0000000005929,0.54001628008556
5400.00000000211,122.932292419415,1.00000000059176,0.540403309799735
5500.00000000248,125.359765037738,1.00000000057727,0.539696851166187
5600.00000000284,127.497576864594,1.00000000057145,0.53420164096324
5700.00000000321,129.354893248219,1.00000000053927,0.534143937147045
5800.00000000357,130.956376200768,1.00000000054867,0.539892594519942
5900.00000000393,132.314845835039,1.00000000053888,0.534359548715548
6000.0000000043,133.411483310369,1.00000000049225,0.521880548649992
6100.00000000466,134.249142676785,1.00000000051012,0.530076689454954
6200.00000000502,134.880338874139,1.00000000054171,0.545379663254267
6300.00000000539,135.336585009115,1.0000000005211,0.534863695294187
6400.00000000575,135.576837947644,1.00000000041103,0.508242209972517
6500.00000000612,135.584762829749,1.00000000041274,0.517220414574563
6600.00000000648,135.437230702671,1.00000000053782,0.548950891862569
6700.00000000684,135.206836837226,1.0000000005527,0.54987564767312
6800.00000000721,134.859463713789,1.0000000004164,0.50945121658147
6900.00000000757,134.320848923319,1.00000000033259,0.482649087234072
7000.00000000793,133.62002228662,1.00000000044545,0.522029861822159
7100.0000000083,132.872182265623,1.00000000062972,0.561464038365622
7200.00000000866,132.132817844831,1.00000000060444,0.554972864069086
7300.00000000903,131.342243214104,1.0000000004186,0.498274932131831
7400.00000000939,130.409634287008,1.00000000026959,0.451386737754152
7500.00000000975,129.345798236628,1.00000000036747,0.491638553303146
7600.00000001012,128.256770864594,1.00000000060538,0.551522936273966
7700.00000001048,127.220264528707,1.00000000070519,0.569161648677966
7800.00000001084,126.223705075874,1.00000000060185,0.53692855168679
7900.00000001121,125.185559556074,1.00000000036304,0.456897217292567
8000.00000001157,124.040176944123,1.00000000023029,0.414800971802428
8100.00000001194,122.816728874067,1.00000000038457,0.468154549157789
8200.0000000123,121.596482914028,1.00000000062965,0.53918382570136
8300.00000001266,120.434766998451,1.00000000073894,0.565837692678098
8400.00000001303,119.338446095965,1.00000000070193,0.552093042761087
8500.00000001339,118.26300975991,1.00000000048761,0.492530653646879
8600.00000001376,117.147872638596,1.00000000028307,0.40812802345762
8700.00000001412,115.972037458498,1.00000000024743,0.385389230009188
8800.00000001448,114.764071183185,1.00000000041832,0.448560788149189
8900.00000001485,113.568779407674,1.00000000065829,0.522275140172746
9000.00000001521,112.419243403044,1.00000000072225,0.551316740561684
9100.00000001557,111.326607848838,1.00000000070839,0.551039042674586
9200.00000001594,110.275972833962,1.0000000006162,0.523183086611694
9300.0000000163,109.233789625873,1.00000000044097,0.462339703889081
9400.00000001667,108.172691881388,1.00000000030398,0.394201704073598
9500.00000001703,107.090854518922,1.00000000027846,0.378286634617354
9600.00000001739,106.005220242753,1.00000000035381,0.419906627330597
9700.00000001776,104.931639781063,1.00000000051962,0.48395582537616
9800.00000001812,103.880769488764,1.00000000065945,0.524372228092461
9900.00000001848,102.861042680947,1.00000000071966,0.536121587161177
10000.0000000188,101.874949590341,1.00000000067734,0.537715874403924
10100.0000000192,100.915306304266,1.00000000057652,0.519438587849731
10200.0000000196,99.968940752758,1.00000000045677,0.47503628215278
10300.0000000199,99.0273976279085,1.00000000037037,0.426399060780447
10400.0000000203,98.0932573669472,1.00000000032547,0.396019752810956
10500.0000000207,97.1744414756766,1.000000000348,0.403789201578129
10600.000000021,96.2744477762942,1.00000000040233,0.435826550491297
10700.0000000214,95.3916204525666,1.00000000047506,0.475315581235712
10800.0000000218,94.5231854493658,1.00000000057871,0.505141881442353
10900.0000000221,93.6681154106048,1.00000000059127,0.512268245183369
11000.0000000225,92.8258689411389,1.00000000064692,0.518324169397765
11100.0000000229,91.996977992595,1.00000000066242,0.533467494801332
11200.0000000232,91.1827795602004,1.00000000060327,0.530774078105399
11300.0000000236,90.3837104757793,1.00000000048695,0.493655359793073
11400.0000000239,89.6021599472683,1.00000000035022,0.444715961396313
11500.0000000243,88.8438989244732,1.00000000032962,0.415356480807198
11600.0000000247,88.1130077756114,1.00000000038213,0.412436158554365
11700.000000025,87.40837273663,1.000000000439,0.427308664948875
11800.0000000254,86.7251043885534,1.00000000051351,0.457425102794614
11900.0000000258,86.0572942155176,1.00000000051029,0.475840617897213
12000.0000000261,85.4015077746648,1.00000000048335,0.489131487925832
12100.0000000265,84.757795972989,1.00000000046132,0.496091975994717
12200.0000000269,84.1265180811676,1.00000000047192,0.492554435598878
12300.0000000272,83.5019828718188,1.00000000057007,0.499210313768757
12400.0000000276,82.8755187215787,1.00000000067334,0.518744759580464
12500.0000000279,82.2452116393157,1.00000000070886,0.536233459081268
12600.0000000283,81.6169673425361,1.00000000061422,0.53457293622719
12700.0000000287,80.9996273669129,1.00000000051547,0.504212065947332
12800.000000029,80.4038963102517,1.00000000037604,0.459226224656992
12900.0000000294,79.8413348941549,1.00000000030121,0.426341967696428
13000.0000000298,79.3164290084039,1.00000000034324,0.413394203069072
13100.0000000301,78.822577225965,1.0000000004324,0.422901721630579
13200.0000000305,78.3482408161161,1.0000000005095,0.441086261212092
13300.0000000309,77.8848668296637,1.00000000054702,0.464911136823434
13400.0000000312,77.4279540575145,1.00000000052756,0.484397274704891
13500.0000000316,76.9761656194877,1.00000000051781,0.492970626083423
13600.0000000319,76.5311811261788,1.00000000047477,0.495425581139336
13700.0000000323,76.0955709026533,1.00000000045531,0.495882736927924
13800.0000000327,75.6713904672176,1.0000000004299,0.497803962985598
13900.000000033,75.2555828717362,1.00000000048195,0.498783794476799
14000.0000000334,74.8401661472618,1.0000000005375,0.499001030933599
14100.0000000338,74.4161314652099,1.00000000064231,0.50808511153186
14200.0000000341,73.9791791568955,1.00000000067248,0.521198390195171
14300.0000000345,73.531856458553,1.00000000067504,0.535099173951709
14400.0000000349,73.083002611295,1.00000000060139,0.534826296139274
14500.0000000352,72.6433660307327,1.00000000047833,0.513045922911385
14600.0000000356,72.2237165632768,1.00000000037331,0.479733494605633
14700.0000000359,71.8341802042456,1.00000000035522,0.45010705278003
14800.0000000363,71.4815259632834,1.00000000035663,0.437801503209301
14900.0000000367,71.1660850688793,1.00000000037956,0.433239006987062
15000.000000037,70.8804766489366,1.00000000040152,0.435300043276855
15100.0000000374,70.613320660145,1.00000000052514,0.45196337918745
15200.0000000378,70.3526303568808,1.00000000055074,0.472177515357305
15300.0000000381,70.095935781149,1.00000000052981,0.481052343619863
15400.0000000385,69.8460893591918,1.00000000048,0.483724103582407
15500.0000000389,69.6044621429231,1.00000000046384,0.490000860990573
15600.0000000392,69.3668092330001,1.00000000048759,0.500327172118303
15700.0000000396,69.1252376785419,1.00000000054255,0.515228158501793
15800.0000000399,68.8746662526527,1.00000000056861,0.527905287493062
15900.0000000403,68.6163224405746,1.00000000054587,0.533798635299733
16000.0000000407,68.3551222939122,1.00000000047612,0.535651315119018
16100.000000041,68.0954997814899,1.00000000045015,0.528895294735755
16200.0000000414,67.8390373560996,1.00000000044975,0.517682591430566
16300.0000000418,67.5846285341785,1.00000000049157,0.50600491584119
16400.0000000418,67.328777183809,1.00000000052432,0.499887371040346
16500.0000000404,67.065842760625,1.00000000059273,0.511116972264489
16600.0000000389,66.7903191275739,1.00000000068602,0.528994505961005
16700.0000000375,66.5016078260255,1.00000000065242,0.543188903024708
16800.000000036,66.2063401390693,1.00000000059519,0.546129998618373
16900.0000000346,65.9156651086024,1.00000000050551,0.531747825139311
17000.0000000331,65.6427427176175,1.0000000004047,0.50479979319537
17100.0000000317,65.3990915161964,1.00000000034468,0.478848661277775
17200.0000000302,65.1912755728095,1.00000000034157,0.458490112696856
17300.0000000287,65.0192636931591,1.00000000039053,0.450817135561358
17400.0000000273,64.8768634669682,1.00000000042422,0.451919651236976
17500.0000000258,64.7559074180799,1.00000000046742,0.458083924827219
17600.0000000244,64.6479676641839,1.00000000049542,0.463518839057649
17700.0000000229,64.5464081508244,1.00000000050271,0.468524560360633
17800.0000000215,64.4464181952574,1.00000000054708,0.480650480061995
17900.00000002,64.3450902684862,1.00000000053214,0.49247647297866
18000.0000000186,64.2437572443805,1.00000000048382,0.502429992780441
18100.0000000171,64.148779939302,1.00000000046285,0.506436026217402
18200.0000000156,64.0667818859952,1.00000000040533,0.505733941299991
18300.0000000142,63.9981558395346,1.00000000044016,0.508504498252287
18400.0000000127,63.9362753624818,1.000000000478,0.5161622886613
18500.0000000113,63.8685870302645,1.00000000053203,0.526382745170746
18600.0000000098,63.7849135994454,1.00000000057789,0.533773117332538
18700.0000000084,63.6784188917919,1.00000000061564,0.538695726621043
18800.0000000069,63.5482179230633,1.00000000060353,0.541235932211909
18900.0000000055,63.3984605018089,1.00000000057978,0.543226535134388
19000.000000004,63.2372689180534,1.00000000053163,0.549995228048928
19100.0000000026,63.072456052912,1.00000000046008,0.550900210439173
19200.0000000011,62.9102791720145,1.00000000042603,0.543721750517375
19299.9999999996,62.7545059045409,1.0000000004271,0.535627884275467
19399.9999999982,62.6050710984545,1.00000000045523,0.533408563234431
19499.9999999967,62.4589166951548,1.00000000048664,0.533957918303224
19599.9999999953,62.3113864945248,1.00000000054012,0.5278069721537
19699.9999999938,62.1587253717379,1.00000000056267,0.527275801791955
19799.9999999924,61.9983672624863,1.00000000060311,0.530642344273076
19899.9999999909,61.8280977067943,1.00000000061706,0.537956219319247
19999.9999999895,61.6465813667538,1.00000000063353,0.548008332593149
20099.999999988,61.4562836116138,1.00000000061485,0.556354621122114
20199.9999999865,61.2644612989571,1.00000000056094,0.554807258744978
20299.9999999851,61.0799954127693,1.00000000048046,0.541043262585612
20399.9999999836,60.9127772689309,1.00000000039771,0.522904298416252
20499.9999999822,60.7708261608286,1.00000000038933,0.501864139886266
20599.9999999807,60.6593273676701,1.00000000038376,0.487874444969538
20699.9999999793,60.578770683774,1.00000000040155,0.474826620427301
20799.9999999778,60.5268931813392,1.00000000041728,0.472518759804037
20899.9999999764,60.4992420086747,1.00000000043792,0.475191354685942
20999.9999999749,60.4896266770575,1.00000000044754,0.474673470297329
21099.9999999734,60.4920214212164,1.00000000050329,0.473992600132061
21199.999999972,60.4989861638267,1.00000000054775,0.475524535629836
21299.9999999705,60.505985079629,1.00000000053282,0.480220967582005
21399.9999999691,60.5149814346504,1.00000000047949,0.480341032575128
21499.9999999676,60.5311282696599,1.00000000044426,0.477534299767414
21599.9999999662,60.5572969275889,1.00000000044647,0.483675855631156
21699.9999999647,60.5907404754866,1.00000000047624,0.500162166936817
21799.9999999633,60.6247136273183,1.00000000051711,0.517011580818855
21899.9999999618,60.6521043836256,1.00000000054692,0.526689757015867
21999.9999999603,60.6680158849627,1.00000000057865,0.537667538507429
22099.9999999589,60.6722359514431,1.00000000056244,0.547411649741307
22199.9999999574,60.6678121949905,1.00000000052347,0.551964431414656
22299.999999956,60.6602428555387,1.00000000051002,0.551801796327294
22399.9999999545,60.6524085893494,1.00000000049048,0.549244059211241
22499.9999999531,60.6444715151679,1.0000000004812,0.551060389727005
22599.9999999516,60.6359421225707,1.00000000046374,0.557977203745135
22699.9999999502,60.6252213245491,1.00000000048232,0.562711606348235
22799.9999999487,60.6096111729826,1.00000000048109,0.561608137250268
22899.9999999473,60.5852100693608,1.00000000051932,0.559714587618078
22999.9999999458,60.5494051467213,1.00000000053409,0.557619429178812
23099.9999999443,60.5001301700677,1.00000000054891,0.55754347556563
23199.9999999429,60.4365724766061,1.00000000058329,0.552087537572343
23299.9999999414,60.359777245568,1.00000000055167,0.540292064740534
23399.99999994,60.2721253068695,1.00000000054087,0.539446196494189
23499.9999999385,60.1756613105006,1.0000000005539,0.55034073121869
23599.9999999371,60.0719297756069,1.00000000055537,0.560774829348991
23699.9999999356,59.9615303737676,1.00000000054105,0.566682417002543
23799.9999999342,59.8473615109788,1.0000000005076,0.569027155155964
23899.9999999327,59.7329613963586,1.00000000046008,0.563601121434604
23999.9999999312,59.6216616279071,1.00000000043709,0.559387075113265
24099.9999999298,59.5153766149475,1.00000000043736,0.560433492303761
24199.9999999283,59.4132147989763,1.00000000046538,0.563939628397452
24299.9999999269,59.3132207132042,1.00000000046676,0.562846440246912
24399.9999999254,59.2133951388308,1.000000000466,0.560788774265196
24499.999999924,59.1116572976944,1.00000000050951,0.562566641433079
24599.9999999225,59.0070845085957,1.00000000056416,0.561625828663897
24699.9999999211,58.8984561903639,1.00000000056591,0.55761209100289
24799.9999999196,58.7844674695909,1.00000000056779,0.551682460865504
24899.9999999181,58.664298312555,1.00000000058411,0.548551036572723
24999.9999999167,58.5369371239877,1.00000000063851,0.552690566184672
25099.9999999152,58.4028179363471,1.00000000064024,0.555110161181945
25199.9999999138,58.2651555820436,1.0000000005512,0.556108257117158
25299.9999999123,58.1295091088955,1.00000000051452,0.553872317324615
25399.9999999109,58.0027518476536,1.00000000046001,0.547473853696234
25499.9999999094,57.891081527747,1.00000000042279,0.535019631387503
25599.999999908,57.7999663883467,1.0000000004049,0.52234333688063
25699.9999999065,57.7329087601162,1.0000000003839,0.514053073826673
25799.9999999051,57.6919991044392,1.00000000037102,0.506232938953847
25899.9999999036,57.6767264145259,1.00000000039358,0.496765536241446
25999.9999999021,57.684572163358,1.00000000043664,0.49288631372491
26099.9999999007,57.7121313172733,1.0000000004511,0.4902882387755
26199.9999998992,57.7568789349642,1.00000000047249,0.488693978847907
26299.9999998978,57.8140099512426,1.00000000050231,0.489293516263257
26399.9999998963,57.8764836485111,1.00000000051844,0.492395586307677
26499.9999998949,57.9417598830004,1.00000000050305,0.498314795966673
26599.9999998934,58.0106212819236,1.00000000049937,0.498974031298637
26699.999999892,58.0851816186967,1.00000000048541,0.493202204925193
26799.9999998905,58.1666120829988,1.00000000045651,0.489645967969278
26899.999999889,58.2525029734693,1.00000000050371,0.494676822376691
26999.9999998876,58.3398205451721,1.00000000049758,0.50363707359522
27099.9999998861,58.426902501492,1.00000000049569,0.514136085498219
27199.9999998847,58.5133060251921,1.000000000486,0.52347835755549
27299.9999998832,58.5977305368793,1.00000000050707,0.534069939974113
27399.9999998818,58.6781715127802,1.00000000052146,0.541446479540462
27499.9999998803,58.7533540009397,1.00000000051553,0.548465211532533
27599.9999998789,58.8231876553032,1.00000000052179,0.555410748686369
27699.9999998774,58.8867121002551,1.00000000051043,0.560194375358001
27799.9999998759,58.9438577825253,1.00000000049919,0.565826871645226
27899.9999998745,58.9950601242651,1.00000000053568,0.571545953380326
27999.999999873,59.0404800671769,1.0000000005314,0.572185633103906
28099.9999998716,59.0787884244312,1.00000000051319,0.568673027624776
28199.9999998701,59.1091140919997,1.00000000053249,0.567456175990511
28299.9999998687,59.1310672532186,1.00000000054127,0.571185118940317
28399.9999998672,59.1446258038343,1.0000000005485,0.57239104361428
28499.9999998658,59.151114447972,1.00000000054573,0.574866047514681
28599.9999998643,59.1530372177484,1.00000000051489,0.579808023604478
28699.9999998629,59.1533146821468,1.00000000045642,0.577838830596414
28799.9999998614,59.1541036433558,1.00000000046543,0.570492839563105
28899.9999998599,59.1560996349841,1.0000000005013,0.570292894622301
28999.9999998585,59.1570306232979,1.00000000049834,0.570308101918186
