Time,AGPnorm,Energy,Entropy
0,0,1,-7.3724572823513e-17
99.9999999999986,0.000246658784322038,0.999999999999405,0.00104353023375649
199.999999999993,0.00174389943898005,1.00000000000125,0.00316720941479648
300,0.00355657245330187,1.00000000000245,0.00602000725859388
400.000000000022,0.00565107112665352,1.00000000000102,0.00957800481876173
500.000000000045,0.00811083033386509,0.999999999999231,0.0138702130237051
600.000000000068,0.0114342641265613,1.00000000000025,0.0188091159894629
700.000000000091,0.0150230765861749,1.0000000000022,0.0242585143461876
800.000000000113,0.0190865535408837,1.00000000000201,0.0301760996022271
900.000000000136,0.023504920969628,0.999999999999819,0.0365705378690569
1000.00000000016,0.0284061847220862,0.999999999999392,0.0434310646740991
1100.0000000001,0.0339072361189069,1.00000000000147,0.0508240006784635
1200,0.039084606659195,1.00000000000241,0.0586910783171139
1299.99999999991,0.0452062484978728,1.00000000000095,0.0670569430829269
1399.99999999982,0.0512209169128378,0.999999999999086,0.0758583001439824
1499.99999999973,0.0578955506552418,1.00000000000056,0.085232632501797
1599.99999999964,0.0641022232860042,1.00000000000223,0.0952872768076578
1699.99999999955,0.070972797713339,1.00000000000194,0.10595636068856
1799.99999999946,0.0777771347960609,0.99999999999979,0.117350610301308
1899.99999999937,0.0848371507156667,0.999999999999756,0.129440879034907
1999.99999999928,0.0920168682843579,1.00000000000193,0.142672204548945
2099.99999999919,0.0989464008411167,1.00000000000314,0.156970200824728
2199.99999999909,0.106550114194434,1.00000000000283,0.172611426511035
2299.999999999,0.113492317836281,1.00000000000334,0.18957254945696
2399.99999999891,0.1214037889647,1.00000000000958,0.208152056234729
2499.99999999882,0.131058532488073,1.00000000001822,0.228228848668459
2599.99999999873,0.145191719843705,1.00000000002963,0.249459361884469
2699.99999999864,0.164104695174916,1.00000000004444,0.27134387313173
2799.99999999855,0.195472949492867,1.00000000006504,0.293171408417903
2899.99999999846,0.255018450019503,1.00000000008644,0.314871462526359
2999.99999999837,0.360666534282966,1.00000000010977,0.335652947478473
3099.99999999828,0.531463711885187,1.00000000014093,0.355307747871119
3199.99999999819,0.794840476397936,1.00000000016277,0.373491530627928
3299.99999999809,1.18955628390702,1.00000000019473,0.39037479757891
3399.999999998,1.75869309371631,1.0000000002256,0.405899615073498
3499.99999999791,2.54352889065027,1.00000000023622,0.420226693715271
3599.99999999782,3.58664172987081,1.00000000028105,0.433015593990479
3699.99999999773,4.92389402297766,1.00000000029071,0.444625890064763
3799.99999999764,6.59546629351984,1.00000000030131,0.455321636691636
3899.99999999755,8.6413105377408,1.00000000034298,0.464970535601059
3999.99999999746,11.1003482502621,1.00000000032379,0.47380800489179
4099.99999999738,13.9886246446978,1.00000000034348,0.48138054480017
4199.99999999775,17.3079767345541,1.00000000036528,0.488222706766874
4299.99999999811,21.0748122984503,1.00000000037132,0.494640919307251
4399.99999999848,25.3115956100725,1.00000000037547,0.500205777185462
4499.99999999884,30.0201457180791,1.00000000038354,0.504800756836995
4599.9999999992,35.1638583168939,1.00000000039907,0.509007613965245
4699.99999999957,40.7217597706556,1.00000000039471,0.512923667103202
4799.99999999993,46.6981659273559,1.000000000404,0.516019666111896
4900.00000000029,53.0884328604551,1.00000000040675,0.518652534975826
5000.00000000066,59.8432780613058,1.00000000040545,0.520906449856405
5100.00000000102,66.9059111370868,1.00000000040223,0.522808802690755
5200.00000000139,74.2607811517416,1.00000000040594,0.524421394136859
5300.00000000175,81.9025048980211,1.00000000040079,0.525663132442783
5400.00000000211,89.7917453679366,1.00000000040375,0.526584383356787
5500.00000000248,97.85772186397,1.00000000041,0.527294686069337
5600.00000000284,106.061837828188,1.00000000040489,0.527658460792369
5700.00000000321,114.398196791864,1.00000000039571,0.528336531966379
5800.00000000357,122.843880232084,1.0000000003956,0.528083673944527
5900.00000000393,131.340371482213,1.00000000039144,0.527270588444348
6000.0000000043,139.831257407897,1.00000000038687,0.527255524789504
6100.00000000466,148.30454929373,1.00000000036906,0.527561175177799
6200.00000000502,156.751680764136,1.0000000003568,0.526313041424401
6300.00000000539,165.135487571105,1.00000000035557,0.524722242239211
6400.00000000575,173.402420647432,1.00000000034351,0.524552169279047
6500.00000000612,181.528115301298,1.00000000034915,0.524444397888054
6600.00000000648,189.511440923507,1.00000000032648,0.522925822832685
6700.00000000684,197.336976906756,1.00000000033094,0.520794876787818
6800.00000000721,204.969256688211,1.00000000032984,0.519762673169027
6900.00000000757,212.371316221947,1.00000000033739,0.519543838230876
7000.00000000793,219.545211798213,1.00000000033491,0.518859482883343
7100.0000000083,226.49184610746,1.00000000030876,0.51680548870724
7200.00000000866,233.193162963671,1.00000000032184,0.514693308049497
7300.00000000903,239.622574533441,1.00000000028829,0.514014117441967
7400.00000000939,245.771308519133,1.00000000028987,0.513428623901452
7500.00000000975,251.646056993325,1.00000000030915,0.512268310020004
7600.00000001012,257.245102299177,1.0000000002831,0.51020601050136
7700.00000001048,262.555874187381,1.0000000002782,0.50859336527939
7800.00000001084,267.56398729786,1.00000000029711,0.508211972700748
7900.00000001121,272.27804924732,1.00000000028396,0.508238451578676
8000.00000001157,276.708348479859,1.00000000028567,0.507055626426906
8100.00000001194,280.848147212702,1.00000000026759,0.503874700313926
8200.0000000123,284.685287795988,1.00000000024687,0.50040030548635
8300.00000001266,288.218801603225,1.00000000025498,0.499414155467255
8400.00000001303,291.466512253419,1.00000000025037,0.502068122217987
8500.00000001339,294.44560459837,1.00000000024528,0.505980600272699
8600.00000001376,297.161113822376,1.00000000025258,0.506618281202183
8700.00000001412,299.607168826979,1.00000000025006,0.501465987929819
8800.00000001448,301.777357233031,1.00000000023301,0.492330510009154
8900.00000001485,303.669615518394,1.00000000020897,0.484965959037712
9000.00000001521,305.288098651493,1.00000000021475,0.486531832265987
9100.00000001557,306.650623427798,1.00000000022452,0.498225826119261
9200.00000001594,307.793928402266,1.00000000024346,0.510411133012742
9300.0000000163,308.754293199978,1.00000000024055,0.515061184264131
9400.00000001667,309.542328421678,1.00000000024913,0.507908240290462
9500.00000001703,310.133626897701,1.00000000021878,0.489470510174431
9600.00000001739,310.486953910428,1.00000000018628,0.469091846200406
9700.00000001776,310.582657859563,1.00000000016932,0.461837340527528
9800.00000001812,310.444834756346,1.00000000018628,0.475309336355799
9900.00000001848,310.132725857197,1.00000000021155,0.500082573097299
10000.0000000188,309.711023213021,1.00000000023926,0.521594364228919
10100.0000000192,309.226202422536,1.000000000262,0.530559380473697
10200.0000000196,308.687844191816,1.00000000024715,0.522127686342911
10300.0000000199,308.063257942662,1.00000000021966,0.496030317674709
10400.0000000203,307.292648856733,1.00000000017477,0.458628852185523
10500.0000000207,306.321365535437,1.00000000012467,0.429262773073256
10600.000000021,305.142305908731,1.00000000012457,0.430819298227481
10700.0000000214,303.804279938238,1.00000000017065,0.461756548663289
10800.0000000218,302.384961307839,1.00000000022637,0.499197116736205
10900.0000000221,300.954994876897,1.00000000027136,0.527242809708491
11000.0000000225,299.55830652259,1.00000000030353,0.540865783187062
11100.0000000229,298.207365354418,1.00000000029852,0.537791779342503
11200.0000000232,296.876831090355,1.00000000027265,0.515619061453578
11300.0000000236,295.511537093591,1.00000000021102,0.473051936112118
11400.0000000239,294.043903112863,1.00000000014528,0.419638351748498
11500.0000000243,292.428876370642,1.00000000009738,0.3802696631213
11600.0000000247,290.669204672138,1.00000000009883,0.3819236107714
11700.000000025,288.810348684649,1.00000000014162,0.423358919747438
11800.0000000254,286.913073185777,1.00000000021625,0.473852564229605
11900.0000000258,285.031231303793,1.00000000029149,0.512821075962247
12000.0000000261,283.205312116532,1.00000000032142,0.53507527737601
12100.0000000265,281.458021206543,1.00000000032257,0.543632164419991
12200.0000000269,279.790546871884,1.00000000033756,0.540939121476152
12300.0000000272,278.179610649745,1.00000000029205,0.521684681489334
12400.0000000276,276.583123173216,1.00000000024971,0.480375315624659
12500.0000000279,274.952230552604,1.00000000018102,0.421946500846108
12600.0000000283,273.247335728431,1.00000000011079,0.362029051258343
12700.0000000287,271.45299106378,1.00000000007783,0.325949847100494
12800.000000029,269.582522730763,1.00000000009273,0.33522580070602
12900.0000000294,267.668386278975,1.00000000014393,0.382390552477029
13000.0000000298,265.746959985547,1.00000000020449,0.439658548715988
13100.0000000301,263.847672738776,1.0000000002784,0.485389716118906
13200.0000000305,261.991000639732,1.00000000033057,0.513444358889501
13300.0000000309,260.191299064722,1.00000000035478,0.528112590457393
13400.0000000312,258.457420197336,1.00000000034973,0.534462532344037
13500.0000000316,256.789953810591,1.00000000034295,0.534125480719227
13600.0000000319,255.178587178041,1.00000000031939,0.524724995652574
13700.0000000323,253.602974177289,1.00000000027804,0.500615384264988
13800.0000000327,252.036945721306,1.00000000023161,0.458933486640205
13900.000000033,250.455392874615,1.00000000017995,0.404366900588565
14000.0000000334,248.841446379002,1.0000000001324,0.349469343373462
14100.0000000338,247.191837843079,1.00000000009381,0.311548331078038
14200.0000000341,245.516860308055,1.00000000008552,0.304025742983493
14300.0000000345,243.834092715457,1.00000000010652,0.327183842420139
14400.0000000349,242.159781832463,1.00000000015429,0.374532457365135
14500.0000000352,240.503203133675,1.0000000002118,0.428117766013029
14600.0000000356,238.867331916795,1.00000000026528,0.47085984808489
14700.0000000359,237.253801899737,1.00000000029573,0.495131400536351
14800.0000000363,235.665866502333,1.00000000031684,0.504277454188091
14900.0000000367,234.107926323063,1.00000000031317,0.507559296568906
15000.000000037,232.583872829225,1.00000000032142,0.512951438106709
15100.0000000374,231.095821256977,1.00000000031586,0.521841111821156
15200.0000000378,229.642677767858,1.00000000030262,0.526232379977861
15300.0000000381,228.219083580441,1.00000000029407,0.518682520595073
15400.0000000385,226.815717248036,1.00000000024726,0.496550810373296
15500.0000000389,225.421969804394,1.00000000020641,0.461015059464559
15600.0000000392,224.029744035876,1.00000000017765,0.417761763849868
15700.0000000396,222.636664467941,1.00000000014429,0.375468485611398
15800.0000000399,221.247069539124,1.00000000012251,0.341072777665345
15900.0000000403,219.869903402209,1.00000000012291,0.320662332364607
16000.0000000407,218.515360096702,1.00000000012401,0.320694646026384
16100.000000041,217.191388230988,1.00000000012858,0.338266288136292
16200.0000000414,215.900649256173,1.00000000016045,0.365141880369524
16300.0000000418,214.639812248781,1.00000000018814,0.398561820610462
16400.0000000418,213.400742520546,1.00000000023225,0.436796018759559
16500.0000000404,212.174714353425,1.00000000025441,0.473317512971733
16600.0000000389,210.956203453526,1.00000000024895,0.496242931557088
16700.0000000375,209.743606374511,1.00000000026195,0.500792336005156
16800.000000036,208.537570452821,1.00000000024598,0.491635175877651
16900.0000000346,207.338482627518,1.00000000024703,0.479142209194068
17000.0000000331,206.1462233296,1.00000000027434,0.475530608419472
17100.0000000317,204.960556347661,1.00000000028574,0.486054105514443
17200.0000000302,203.782179827507,1.00000000031446,0.505976630525473
17300.0000000287,202.612955912089,1.00000000032045,0.524709418960961
17400.0000000273,201.455285207195,1.00000000031493,0.532460696628448
17500.0000000258,200.310711737969,1.00000000028566,0.526058401147118
17600.0000000244,199.179438056218,1.00000000025172,0.505524996847508
17700.0000000229,198.061307658186,1.00000000020626,0.472648936686248
17800.0000000215,196.958140465048,1.00000000015805,0.432086041485481
17900.00000002,195.87570351371,1.00000000012289,0.390519547606876
18000.0000000186,194.822745096619,1.00000000010797,0.356627227815175
18100.0000000171,193.808261178075,1.00000000011032,0.335319467143916
18200.0000000156,192.837749915717,1.00000000012866,0.327504900917559
18300.0000000142,191.912826643946,1.00000000015573,0.331731942655179
18400.0000000127,191.031490683156,1.00000000018058,0.349297476574426
18500.0000000113,190.190252264733,1.00000000019318,0.374372089489029
18600.0000000098,189.382144395003,1.00000000019981,0.400986499501245
18700.0000000084,188.598441015142,1.00000000021527,0.424790316378927
18800.0000000069,187.826526543943,1.00000000024689,0.445305401660594
18900.0000000055,187.054807876237,1.00000000026683,0.46534203702733
19000.000000004,186.274729393967,1.00000000027772,0.48359819896685
19100.0000000026,185.483724455654,1.00000000027264,0.498880416206028
19200.0000000011,184.685449702918,1.00000000024385,0.504410083284204
19299.9999999996,183.886632758835,1.00000000022175,0.497181666302239
19399.9999999982,183.094737252371,1.00000000019494,0.480040778054418
19499.9999999967,182.313503944674,1.00000000018026,0.461391350112752
19599.9999999953,181.542181600567,1.0000000001868,0.449116760713339
19699.9999999938,180.77398275584,1.00000000021969,0.447678343079916
19799.9999999924,179.999831016735,1.00000000027476,0.458638865625323
19899.9999999909,179.211944425326,1.00000000030589,0.47651895146767
19999.9999999895,178.407250058768,1.00000000032562,0.496636409561494
20099.999999988,177.587238150952,1.00000000031585,0.515312479462379
20199.9999999865,176.756992044936,1.0000000003118,0.527886327389731
20299.9999999851,175.922668965489,1.00000000032018,0.531899363562795
20399.9999999836,175.089645893442,1.00000000029584,0.5267443840923
20499.9999999822,174.262807420143,1.00000000026003,0.511524517809825
20599.9999999807,173.446845604056,1.00000000021809,0.487302055595863
20699.9999999793,172.647384607924,1.00000000018325,0.457714218735965
20799.9999999778,171.872036696626,1.00000000015645,0.426707550420144
20899.9999999764,171.130277423545,1.00000000013983,0.397245817845244
20999.9999999749,170.432867641929,1.00000000010932,0.369970399358371
21099.9999999734,169.789814342454,1.00000000010546,0.347496394403795
21199.999999972,169.206947071723,1.00000000011174,0.333379658303728
21299.9999999705,168.683804529687,1.00000000012701,0.331069900923867
21399.9999999691,168.213799454078,1.00000000015757,0.341637273094496
21499.9999999676,167.787095937165,1.00000000018952,0.36250192024245
21599.9999999662,167.392438115999,1.00000000021639,0.385749768082934
21699.9999999647,167.01996576737,1.00000000021746,0.407340550778888
21799.9999999633,166.663050842316,1.00000000022997,0.426211747862385
21899.9999999618,166.315562424412,1.00000000022865,0.442807414917718
21999.9999999603,165.972209540198,1.00000000023451,0.456257184918464
22099.9999999589,165.627568128238,1.00000000023486,0.46633166731904
22199.9999999574,165.274872584273,1.00000000024301,0.474110268163215
22299.999999956,164.908503043094,1.00000000025409,0.480564975891911
22399.9999999545,164.524562041231,1.00000000025511,0.487709398471087
22499.9999999531,164.120665353223,1.00000000025942,0.49538666255504
22599.9999999516,163.696786983151,1.00000000025769,0.503596667989032
22699.9999999502,163.255949458849,1.00000000025894,0.511161706698378
22799.9999999487,162.803079289337,1.00000000024532,0.51495999845905
22899.9999999473,162.345564719896,1.00000000022257,0.511147005994145
22999.9999999458,161.890791854613,1.00000000019618,0.500928021869444
23099.9999999443,161.444236680076,1.00000000018643,0.489523127146217
23199.9999999429,161.007836803204,1.00000000017779,0.481784161791144
23299.9999999414,160.579390085081,1.00000000018034,0.47838945772347
23399.99999994,160.153575945981,1.00000000020307,0.476431535081373
23499.9999999385,159.723026797004,1.00000000022286,0.473797221632392
23599.9999999371,159.282258630497,1.00000000024088,0.472190818999322
23699.9999999356,158.827238041123,1.00000000024543,0.474061963220128
23799.9999999342,158.356039293876,1.00000000026507,0.477859743697766
23899.9999999327,157.867137818793,1.00000000028756,0.485070583434776
23999.9999999312,157.359305812677,1.00000000029888,0.496823913237983
24099.9999999298,156.832667163321,1.00000000030994,0.511068219117698
24199.9999999283,156.288896311353,1.00000000031801,0.524510171350041
24299.9999999269,155.732083676372,1.00000000031735,0.534548377345571
24399.9999999254,155.16729603467,1.00000000030188,0.537854197990137
24499.999999924,154.60002643245,1.00000000026778,0.53299815281241
24599.9999999225,154.035731027616,1.00000000025409,0.520438478545795
24699.9999999211,153.480605398263,1.00000000021679,0.502004416420834
24799.9999999196,152.942079397068,1.00000000018604,0.478323777364868
24899.9999999181,152.428676873165,1.00000000015202,0.451255626433196
24999.9999999167,151.949960290261,1.00000000013061,0.424545092088278
25099.9999999152,151.515107105088,1.00000000011786,0.402961567498582
25199.9999999138,151.131741789951,1.0000000001163,0.386086629339851
25299.9999999123,150.804475253847,1.00000000012214,0.372756600936782
25399.9999999109,150.534549975894,1.00000000014035,0.362827879406417
25499.9999999094,150.321967970936,1.00000000014213,0.356429834645093
25599.999999908,150.166322324475,1.00000000014893,0.354530117135951
25699.9999999065,150.064972978439,1.00000000015756,0.357109501471281
25799.9999999051,150.011458231868,1.0000000001736,0.3655295179199
25899.9999999036,149.995094413178,1.00000000019127,0.379763876112433
25999.9999999021,150.002070918635,1.00000000021632,0.397345471755457
26099.9999999007,150.018012784529,1.00000000023964,0.41589676560422
26199.9999998992,150.030430415471,1.00000000025017,0.432598144145231
26299.9999998978,150.03082927574,1.00000000026639,0.44758385309895
26399.9999998963,150.015648498562,1.00000000026029,0.461347345358127
26499.9999998949,149.985680667457,1.00000000025863,0.473051486216048
26599.9999998934,149.944252495247,1.00000000024579,0.482479518764075
26699.999999892,149.89566754725,1.00000000023301,0.48876382961947
26799.9999998905,149.844460533876,1.00000000021146,0.491810285231495
26899.999999889,149.794812246455,1.00000000020736,0.491925865925633
26999.9999998876,149.749341594897,1.000000000193,0.491274632971838
27099.9999998861,149.708028311638,1.00000000019822,0.490242677398012
27199.9999998847,149.667298942151,1.00000000020324,0.489731009504091
27299.9999998832,149.620606737796,1.00000000021401,0.491695368225014
27399.9999998818,149.560206947013,1.00000000023923,0.496297499271508
27499.9999998803,149.479363852721,1.00000000026297,0.504194347657341
27599.9999998789,149.373243215438,1.00000000026277,0.510117045029755
27699.9999998774,149.239289292071,1.00000000026886,0.51245970467262
27799.9999998759,149.07724982847,1.00000000027494,0.511681550948733
27899.9999998745,148.888784637892,1.00000000026737,0.509156322639638
27999.999999873,148.676642551933,1.00000000026063,0.508783033770865
28099.9999998716,148.444316324777,1.00000000025008,0.513211277377214
28199.9999998701,148.195945440041,1.00000000024471,0.519252936488948
28299.9999998687,147.936499692962,1.00000000023097,0.521296224744756
28399.9999998672,147.671776523297,1.00000000021667,0.516718999274494
28499.9999998658,147.407508814281,1.00000000020628,0.508166427349301
28599.9999998643,147.148293153589,1.00000000018854,0.499673785829176
28699.9999998629,146.897055460383,1.0000000001825,0.494393518422563
28799.9999998614,146.655013941887,1.00000000017862,0.492723218260673
28899.9999998599,146.421682219651,1.00000000017572,0.493634459735336
