Time,AGPnorm,Energy,Entropy
0,0,1,5.12548240610384e-18
99.9999999999986,0.00515481390136557,0.999999999997127,0.0155287280233987
199.999999999993,0.0144177587373968,1.00000000000002,0.0449805699299343
300,0.0296219065362985,0.999999999997675,0.0883645161414223
400.000000000022,0.0455752954893661,1.00000000000197,0.144811245006326
500.000000000045,0.0617620656622102,1.00000000004009,0.224362818466207
600.000000000068,0.0970509637575507,1.00000000034155,0.328118750069948
700.000000000091,0.228357940935649,1.00000000091392,0.427570903570527
800.000000000113,0.798080627220453,1.00000000147099,0.496174703656114
900.000000000136,2.05295951123899,1.00000000190056,0.537926384729974
1000.00000000016,4.15833779903499,1.00000000209327,0.559324153732924
1100.0000000001,6.98797771692521,1.00000000191459,0.569586733259542
1200,10.3040525067848,1.00000000213432,0.569779614040376
1299.99999999991,13.7975925716198,1.00000000188579,0.568312611031745
1399.99999999982,17.2128953453949,1.00000000187933,0.560829993799589
1499.99999999973,20.3069124401216,1.00000000169575,0.551296330012881
1599.99999999964,22.9650854120346,1.00000000148707,0.546651410879779
1699.99999999955,25.0899503238684,1.00000000146061,0.534969751992758
1799.99999999946,26.6994219294993,1.00000000133791,0.54076471136508
1899.99999999937,27.7668694563167,1.00000000111398,0.511604829598913
1999.99999999928,28.3979539369971,1.00000000127325,0.547311259041169
2099.99999999919,28.6037886977693,1.00000000093726,0.476657837588823
2199.99999999909,28.4747419786168,1.0000000014016,0.558659285107159
2299.999999999,28.2139188838288,1.00000000102601,0.484949861870473
2399.99999999891,27.6352113059801,1.00000000096093,0.468898316445503
2499.99999999882,27.0446540627289,1.00000000166751,0.583064827968563
2599.99999999873,26.4625002162949,1.00000000088627,0.445403455570651
2699.99999999864,25.7022804857943,1.00000000074594,0.399263632124332
2799.99999999855,24.9379836136683,1.00000000174652,0.560635748987541
2899.99999999846,24.2925251267833,1.00000000165549,0.552519031548125
2999.99999999837,23.6412431759446,1.00000000068825,0.370235159984033
3099.99999999828,22.9373199696498,1.00000000081246,0.381432813624255
3199.99999999819,22.2410452225436,1.00000000150983,0.524480738727452
3299.99999999809,21.6019373126719,1.00000000161739,0.553921734821952
3399.999999998,21.0310134257485,1.00000000143009,0.536657224050597
3499.99999999791,20.4732502708599,1.00000000067729,0.369198449432845
3599.99999999782,19.9560479151508,1.00000000082532,0.360407245767897
3699.99999999773,19.4682647520103,1.00000000130654,0.486416489965118
3799.99999999764,18.9809267404863,1.00000000132966,0.531230615124949
3899.99999999755,18.5088837970991,1.00000000133994,0.505240714006599
3999.99999999746,18.0484200867897,1.00000000166016,0.573964141908912
4099.99999999738,17.6184405314218,1.00000000114708,0.52235494629321
4199.99999999775,17.2391931092698,1.00000000060475,0.375995491646685
4299.99999999811,16.963723512085,1.00000000073573,0.347153335575419
4399.99999999848,16.7487940468531,1.00000000113721,0.451446925236694
4499.99999999884,16.5137929519264,1.00000000154468,0.522769845564625
4599.9999999992,16.2403667693521,1.00000000140549,0.552661478794718
4699.99999999957,15.9728216604807,1.00000000090068,0.515345439533378
4799.99999999993,15.7149170225517,1.00000000117534,0.512916441301532
4900.00000000029,15.4332411991155,1.00000000160953,0.530969590459249
5000.00000000066,15.136378661226,1.00000000172072,0.576503006274393
5100.00000000102,14.8477642629339,1.00000000145401,0.556444678788572
5200.00000000139,14.6016662845516,1.0000000006713,0.440125848763573
5300.00000000175,14.4650465919154,1.00000000059537,0.360724233341089
5400.00000000211,14.459220429969,1.00000000090531,0.370966668397157
5500.00000000248,14.5074018626178,1.00000000130309,0.451562756154949
5600.00000000284,14.5137485888623,1.0000000014906,0.522935837503333
5700.00000000321,14.482129765446,1.00000000122085,0.538285412396289
5800.00000000357,14.4314377463195,1.00000000127676,0.538214868188072
5900.00000000393,14.3465026968419,1.0000000014353,0.557433855025893
6000.0000000043,14.2292284141849,1.00000000130107,0.543124533903971
6100.00000000466,14.103757197993,1.00000000118449,0.545731015001084
6200.00000000502,13.9771605357537,1.00000000118867,0.54712915423458
6300.00000000539,13.8556891507595,1.0000000011145,0.546243401646913
6400.00000000575,13.7238944147575,1.00000000124741,0.54746443256064
6500.00000000612,13.5688992367526,1.00000000138074,0.557563393314724
6600.00000000648,13.3931077168634,1.00000000173502,0.565338503808898
6700.00000000684,13.2052530223885,1.00000000163262,0.587642228987488
6800.00000000721,13.0192428931415,1.00000000132272,0.564932464304864
6900.00000000757,12.8581449713399,1.00000000087819,0.487086285475362
7000.00000000793,12.7764182549231,1.00000000062718,0.405910384405487
7100.0000000083,12.8270878839655,1.00000000066975,0.373748412349615
7200.00000000866,13.0086747632687,1.00000000083894,0.387909310060869
7300.00000000903,13.2502909075959,1.00000000124729,0.436715073672342
7400.00000000939,13.4757949995743,1.00000000141145,0.49183091926633
7500.00000000975,13.6617645931212,1.00000000145982,0.531598628610665
7600.00000001012,13.7980740592546,1.00000000130119,0.551571828907632
7700.00000001048,13.9009329128264,1.00000000127449,0.556866203040796
7800.00000001084,13.9709875189503,1.00000000123345,0.577089440774825
7900.00000001121,13.9973619156698,1.0000000014885,0.589816596109978
8000.00000001157,13.9903829292484,1.00000000119767,0.57935469118374
8100.00000001194,13.9646744647786,1.00000000125848,0.565954122437578
8200.0000000123,13.9288086137872,1.0000000011962,0.561529520009704
8300.00000001266,13.8815826823919,1.00000000133089,0.554664456605338
8400.00000001303,13.8216250982519,1.00000000123232,0.550187686745154
8500.00000001339,13.7630841503406,1.00000000114564,0.553834214136059
8600.00000001376,13.7089315762046,1.00000000120109,0.554617849733379
8700.00000001412,13.6523340043138,1.00000000122633,0.557048644599018
8800.00000001448,13.593394635048,1.00000000126448,0.562109040528275
8900.00000001485,13.534752706062,1.00000000121178,0.560853121211645
9000.00000001521,13.4704892611834,1.00000000125019,0.559177883372085
9100.00000001557,13.3964169084297,1.00000000145682,0.560450267793987
9200.00000001594,13.3090251378553,1.00000000134283,0.583013518168509
9300.0000000163,13.2136452940096,1.00000000125345,0.599310043180514
9400.00000001667,13.1184840521306,1.00000000105283,0.582401549534554
9500.00000001703,13.0239289356932,1.00000000117178,0.590145498307924
9600.00000001739,12.923603773314,1.00000000127216,0.588147290658218
9700.00000001776,12.8156170315261,1.00000000146094,0.59136944471821
9800.00000001812,12.7015189239058,1.00000000155297,0.600781747732268
9900.00000001848,12.587441320502,1.00000000161499,0.595488564829502
10000.0000000188,12.477709455354,1.0000000019502,0.600324454343696
10100.0000000192,12.3696295585524,1.00000000161792,0.593381754351508
10200.0000000196,12.2570296754562,1.00000000126742,0.577627024285913
10300.0000000199,12.1406264197035,1.00000000090708,0.527772207362678
10400.0000000203,12.0427540832346,1.00000000077721,0.470809702662571
10500.0000000207,12.0033719030489,1.00000000062956,0.420396271774334
10600.000000021,12.0654602735443,1.00000000072782,0.388509741631431
10700.0000000214,12.2477946640259,1.00000000066201,0.387087605792772
10800.0000000218,12.5461974019275,1.00000000095157,0.403885976268887
10900.0000000221,12.9021255099358,1.00000000120386,0.432036126965249
11000.0000000225,13.2805416508151,1.00000000134163,0.462208789560535
11100.0000000229,13.6307624887419,1.00000000143306,0.496935974280233
11200.0000000232,13.9516874893505,1.00000000131741,0.511965085916375
11300.0000000236,14.2377483077122,1.00000000142853,0.543378869364471
11400.0000000239,14.4872756001465,1.0000000013738,0.559800464846736
11500.0000000243,14.7046787902246,1.00000000133449,0.567670257591721
11600.0000000247,14.8874489724489,1.00000000137807,0.575654225907056
11700.000000025,15.0381837674121,1.0000000012742,0.593851241825977
11800.0000000254,15.1576302184947,1.0000000014221,0.605002732667087
11900.0000000258,15.2475130296891,1.00000000144394,0.605868604752498
12000.0000000261,15.3069066244744,1.00000000140682,0.609509304067681
12100.0000000265,15.3451624208724,1.00000000132595,0.614095927932787
12200.0000000269,15.3645554421984,1.00000000144532,0.611954147436491
12300.0000000272,15.3693028638588,1.00000000124234,0.596496477757375
12400.0000000276,15.3686282896792,1.00000000135113,0.591973052801987
12500.0000000279,15.3505301644027,1.00000000146831,0.59641762837241
12600.0000000283,15.3226171031123,1.00000000122524,0.582577743650723
12700.0000000287,15.2904851170075,1.0000000013613,0.590354746564653
12800.000000029,15.244278773618,1.00000000146898,0.592840702796277
12900.0000000294,15.1909926009997,1.0000000013336,0.597424679355034
13000.0000000298,15.1313008612641,1.00000000135424,0.600218493669463
13100.0000000301,15.0649481325735,1.00000000146952,0.6084203502946
13200.0000000305,14.991950773872,1.00000000139994,0.613771258888858
13300.0000000309,14.9189465821673,1.00000000128524,0.603492446534851
13400.0000000312,14.8511408195215,1.00000000125975,0.587810362860694
13500.0000000316,14.7903495373699,1.00000000126931,0.568284693300348
13600.0000000319,14.7382114097197,1.00000000128368,0.564089144647822
13700.0000000323,14.6866656938896,1.00000000148782,0.579137080114347
13800.0000000327,14.6369915887019,1.00000000134257,0.579896660977247
13900.000000033,14.5861274471101,1.0000000013518,0.574644250990721
14000.0000000334,14.5351535719143,1.0000000014396,0.583945821479851
14100.0000000338,14.4879517685194,1.00000000126187,0.59120543157689
14200.0000000341,14.4462541221293,1.00000000137664,0.588355892959056
14300.0000000345,14.4025278285657,1.00000000145792,0.580112167826995
14400.0000000349,14.3594893252785,1.00000000121565,0.58834147436197
14500.0000000352,14.3223026042952,1.00000000131728,0.576195564052943
14600.0000000356,14.2899327535114,1.00000000139058,0.558237823544018
14700.0000000359,14.255252422182,1.00000000149477,0.558072439086206
14800.0000000363,14.2198470752842,1.00000000135486,0.563609641639454
14900.0000000367,14.1908557774464,1.00000000126264,0.572535619542873
15000.000000037,14.1628600147731,1.00000000148204,0.60206768722349
15100.0000000374,14.1322389130889,1.00000000133087,0.61112834864911
15200.0000000378,14.1028665577786,1.00000000142553,0.600993712197204
15300.0000000381,14.072320693965,1.00000000141519,0.585636666889722
15400.0000000385,14.0375671304084,1.00000000156649,0.596464603988257
15500.0000000389,14.0062586192654,1.00000000123039,0.593880377794882
15600.0000000392,13.9775013514646,1.00000000140236,0.610090927362685
15700.0000000396,13.9441776879309,1.000000001486,0.613461038192597
15800.0000000399,13.9093117454367,1.00000000131844,0.610639344645913
15900.0000000403,13.8730005750611,1.00000000146173,0.616259071128123
16000.0000000407,13.8306399629155,1.00000000152267,0.626216558091155
16100.000000041,13.7834273739352,1.0000000014011,0.617482377472165
16200.0000000414,13.733914730468,1.00000000152003,0.612930294769477
16300.0000000418,13.6814851851752,1.00000000148451,0.617877464934358
16400.0000000418,13.6309058718169,1.00000000133621,0.621776821842378
16500.0000000404,13.5866727600179,1.00000000133739,0.615347877377895
16600.0000000389,13.5442834357606,1.00000000138375,0.619139294842883
16700.0000000375,13.4950230916938,1.00000000150532,0.613503727248046
16800.000000036,13.4417909566678,1.00000000144714,0.614388886612225
16900.0000000346,13.3924489350906,1.0000000012165,0.621173847130961
17000.0000000331,13.342761311067,1.00000000143045,0.627514381424162
17100.0000000317,13.2905077525743,1.00000000142832,0.617482158922637
17200.0000000302,13.2417554749834,1.00000000124599,0.606501018575772
17300.0000000287,13.1953950271557,1.00000000142652,0.613660596128639
17400.0000000273,13.1453838793981,1.00000000154172,0.611646910463536
17500.0000000258,13.0933547335782,1.00000000141478,0.621776040854198
17600.0000000244,13.0382871584961,1.00000000148934,0.628956100626244
17700.0000000229,12.9808722497749,1.00000000137806,0.619298505208909
17800.0000000215,12.9222882743256,1.00000000148911,0.621242174361418
17900.00000002,12.8603670427534,1.00000000149722,0.636296840238177
18000.0000000186,12.7959375652723,1.00000000152202,0.633968396629881
18100.0000000171,12.7324544020873,1.00000000136825,0.626968001975416
18200.0000000156,12.6700748638693,1.00000000166422,0.639199559825264
18300.0000000142,12.6045426425167,1.00000000159647,0.642170165263888
18400.0000000127,12.5374252763707,1.00000000147242,0.640082810496775
18500.0000000113,12.4707554649298,1.00000000142124,0.632572042607355
18600.0000000098,12.4045246065103,1.00000000132534,0.617776404407367
18700.0000000084,12.3387479833386,1.00000000144639,0.64311409119234
18800.0000000069,12.273673322466,1.00000000125061,0.636054181567293
18900.0000000055,12.2095158973611,1.00000000127526,0.631770404571802
19000.000000004,12.1464297924572,1.00000000135861,0.628199133416161
19100.0000000026,12.085576438514,1.00000000132159,0.637077842791436
19200.0000000011,12.0271974698685,1.00000000153605,0.636169913950557
19299.9999999996,11.9734174478114,1.00000000148334,0.630013477299787
19399.9999999982,11.926389757488,1.00000000166301,0.643827673499853
19499.9999999967,11.8876507019794,1.00000000162751,0.640471476850416
19599.9999999953,11.8638067489072,1.00000000171896,0.64936142118738
19699.9999999938,11.8510485426484,1.00000000180937,0.649831136431197
19799.9999999924,11.8637991108445,1.00000000179585,0.645219095703768
19899.9999999909,11.8878521904004,1.00000000190842,0.645138832361521
19999.9999999895,11.941908227498,1.0000000019447,0.625968636795515
20099.999999988,11.999210529544,1.00000000195408,0.618992368781552
20199.9999999865,12.0759946875336,1.00000000186955,0.609063130539267
20299.9999999851,12.1392593859007,1.00000000171046,0.595546780964506
20399.9999999836,12.1916260528182,1.00000000160622,0.591077323809166
20499.9999999822,12.213413962538,1.00000000143633,0.569168499756323
20599.9999999807,12.2040679666227,1.00000000121775,0.540102093384829
20699.9999999793,12.168636035164,1.00000000105672,0.508316861463624
20799.9999999778,12.1175547603419,1.00000000094517,0.482148825720149
20899.9999999764,12.0726878308233,1.00000000075911,0.454475590450805
20999.9999999749,12.0569127488041,1.00000000084259,0.432121317541503
21099.9999999734,12.0960739905377,1.00000000080695,0.415563903682907
21199.999999972,12.2109664156087,1.00000000074899,0.399857392492199
21299.9999999705,12.4293469776371,1.00000000078238,0.398005049236445
21399.9999999691,12.7418971491401,1.00000000092907,0.401454742324932
21499.9999999676,13.1746680452817,1.00000000102791,0.408499916365304
21599.9999999662,13.6729570704873,1.00000000121202,0.41652739446902
21699.9999999647,14.261434006299,1.0000000013028,0.434312152367371
21799.9999999633,14.87168977457,1.00000000148781,0.441969551367774
21899.9999999618,15.5187854408345,1.00000000141493,0.452624197494509
21999.9999999603,16.1670740075271,1.00000000156327,0.464822655293159
22099.9999999589,16.8003940021231,1.0000000015885,0.482433937909531
22199.9999999574,17.428105356353,1.00000000153617,0.493517582752226
22299.999999956,18.0161439616325,1.00000000155887,0.503920392709288
22399.9999999545,18.5980417171434,1.00000000156133,0.522119641776821
22499.9999999531,19.1466876321012,1.00000000158359,0.527577138157604
22599.9999999516,19.6771430943933,1.00000000141682,0.533805235022513
22699.9999999502,20.1801464567344,1.00000000145476,0.547543946459586
22799.9999999487,20.6613364709923,1.00000000153608,0.559045608753405
22899.9999999473,21.123182669785,1.00000000146078,0.564321637717135
22999.9999999458,21.5433050828593,1.00000000152074,0.571800017917899
23099.9999999443,21.9484957133985,1.00000000146823,0.592382951968076
23199.9999999429,22.3144806706792,1.0000000014807,0.594222957209345
23299.9999999414,22.6587116173787,1.00000000174686,0.600992214059907
23399.99999994,22.9678254191063,1.00000000145822,0.60998301586606
23499.9999999385,23.2509482454759,1.00000000164855,0.625497713377169
23599.9999999371,23.5095024758174,1.00000000152526,0.628442922990333
23699.9999999356,23.7380624530758,1.00000000158056,0.621950843594597
23799.9999999342,23.9477031117566,1.00000000153036,0.636229935125976
23899.9999999327,24.1219387532146,1.00000000156518,0.642262513064058
23999.9999999312,24.2802011488787,1.00000000157135,0.642552712455178
24099.9999999298,24.4163855072686,1.00000000148226,0.630813852763351
24199.9999999283,24.540356066804,1.000000001523,0.628377399683921
24299.9999999269,24.6443667122439,1.0000000014908,0.639760091751818
24399.9999999254,24.7248653628456,1.00000000177828,0.638258952581421
24499.999999924,24.788739576356,1.00000000158132,0.641636517654005
24599.9999999225,24.8407807327443,1.00000000154714,0.631518571090066
24699.9999999211,24.890973821965,1.00000000154405,0.62657493826757
24799.9999999196,24.9331931258816,1.00000000145334,0.615835896445156
24899.9999999181,24.9666768170236,1.00000000174119,0.628677955146646
24999.9999999167,24.9765127683752,1.00000000177635,0.654903625325241
25099.9999999152,24.9715046850079,1.00000000143543,0.639119654021081
25199.9999999138,24.9651263592728,1.00000000157724,0.633147512462357
25299.9999999123,24.9568957206959,1.00000000132601,0.620707937140206
25399.9999999109,24.9479187534611,1.00000000153103,0.621021764982053
25499.9999999094,24.9316015438778,1.00000000163548,0.600098403389271
25599.999999908,24.915180222735,1.00000000151853,0.615066728906855
25699.9999999065,24.8924164029472,1.00000000154534,0.631852521383853
25799.9999999051,24.8666718407646,1.00000000137712,0.635944431461545
25899.9999999036,24.8353668716658,1.00000000147913,0.638223513302099
25999.9999999021,24.8044605735318,1.00000000140077,0.608565175103258
26099.9999999007,24.7771342175334,1.00000000159691,0.61071201667709
26199.9999998992,24.7467087325823,1.00000000144734,0.607712762780977
26299.9999998978,24.7075982204356,1.00000000166141,0.611939909315413
26399.9999998963,24.657413003638,1.00000000162482,0.615539977123047
26499.9999998949,24.6073216469169,1.00000000148652,0.603674246304233
26599.9999998934,24.5616737266799,1.00000000143535,0.613873354675399
26699.999999892,24.5165374785035,1.00000000158322,0.629545187421964
26799.9999998905,24.4647723932548,1.0000000018477,0.632532542874086
26899.999999889,24.4079373311702,1.00000000150127,0.627671063585933
26999.9999998876,24.3538312835986,1.00000000160219,0.628868739836674
27099.9999998861,24.3023967098216,1.00000000161552,0.624824575232482
27199.9999998847,24.2558092603579,1.00000000155487,0.627514602400823
27299.9999998832,24.2099001031406,1.00000000148629,0.621740849709884
27399.9999998818,24.1659361724854,1.00000000146666,0.610217413407007
27499.9999998803,24.1307917112395,1.00000000131201,0.599292079223757
27599.9999998789,24.0989859819406,1.00000000167525,0.613376029207118
27699.9999998774,24.0602992153365,1.00000000183277,0.632183130217631
27799.9999998759,24.0105602833982,1.00000000174403,0.630322117365241
27899.9999998745,23.9593113730161,1.00000000163364,0.608101923320999
27999.999999873,23.9139433046838,1.00000000142457,0.599783148660806
28099.9999998716,23.8721225343727,1.00000000170183,0.636557709136629
28199.9999998701,23.8262634879581,1.00000000184489,0.640108147055967
28299.9999998687,23.7749736599341,1.0000000014857,0.630362333782796
28399.9999998672,23.7230568500703,1.0000000015307,0.616339512161369
28499.9999998658,23.6760087717289,1.00000000144005,0.612786092590097
28599.9999998643,23.6350709704044,1.00000000166719,0.618721005240232
28699.9999998629,23.5937576694373,1.000000001715,0.623658838065413
28799.9999998614,23.5474250058015,1.00000000165777,0.618652318799298
28899.9999998599,23.5004068692722,1.0000000015568,0.612992716999791
28999.9999998585,23.4545880848211,1.00000000177724,0.623943233621453
