Time,AGPnorm,Energy,Entropy
0,0,1,-7.40677970917788e-17
99.9999999999986,0.000388094133855495,0.999999999999975,0.00151981563783433
199.999999999993,0.00262653144720579,0.999999999998234,0.00453364245204968
300,0.00545271890838272,0.999999999997777,0.00841182738120652
400.000000000022,0.00847605010500799,0.999999999999401,0.0132576267039157
500.000000000045,0.011877425300439,1.00000000000014,0.019254989358727
600.000000000068,0.0167514982320378,0.999999999998994,0.0261432060396299
700.000000000091,0.0221024930760842,0.999999999997705,0.0335419132518395
800.000000000113,0.0278899284014693,0.999999999998748,0.0415275179442045
900.000000000136,0.0340155954559013,1.00000000000002,0.0504054927010466
1000.00000000016,0.0407607489710809,0.999999999999481,0.0600764307564046
1100.0000000001,0.0484713975055092,0.999999999998185,0.0704342581147774
1200,0.0557293216258753,0.999999999998122,0.0813500447241142
1299.99999999991,0.0639431876085137,0.999999999999785,0.0932447323817686
1399.99999999982,0.071590543625538,0.999999999999677,0.106196150298923
1499.99999999973,0.0804721366536575,0.999999999998945,0.120214647868225
1599.99999999964,0.0887375427762795,0.999999999998153,0.135380257278511
1699.99999999955,0.09756674074257,0.999999999999983,0.151981047461765
1799.99999999946,0.10578739827032,1.00000000000192,0.170731649161181
1899.99999999937,0.114011105470462,1.00000000000493,0.191588778071548
1999.99999999928,0.123845844774589,1.00000000001261,0.214884932303362
2099.99999999919,0.136605371156721,1.00000000002919,0.240005178171201
2199.99999999909,0.152450143549734,1.00000000005461,0.266855800838534
2299.999999999,0.173985332574658,1.00000000009103,0.294097797059552
2399.99999999891,0.224926981298269,1.0000000001298,0.320710179859745
2499.99999999882,0.332362542890235,1.00000000018175,0.345693899764808
2599.99999999873,0.513691073090698,1.00000000021959,0.368975751990218
2699.99999999864,0.797803156992877,1.0000000002798,0.390478007531168
2799.99999999855,1.24855064638119,1.00000000031649,0.40986754648042
2899.99999999846,1.93409258813021,1.00000000039212,0.427083156115805
2999.99999999837,2.88601830738116,1.00000000040639,0.442614191787136
3099.99999999828,4.13424608849883,1.00000000042361,0.456859617888771
3199.99999999819,5.74148778398692,1.00000000046035,0.469444643114012
3299.99999999809,7.76623025198292,1.00000000048057,0.480420536484958
3399.999999998,10.2249216621149,1.00000000052752,0.48991156695275
3499.99999999791,13.1085739441129,1.00000000053724,0.498745332582882
3599.99999999782,16.4400742462721,1.00000000056559,0.506543004896334
3699.99999999773,20.2404848319202,1.00000000057913,0.512988879778034
3799.99999999764,24.4962200576727,1.00000000056597,0.518300939617854
3899.99999999755,29.1628812088575,1.000000000572,0.523570825035158
3999.99999999746,34.2186548728759,1.00000000059257,0.528099723385869
4099.99999999738,39.6562348923227,1.00000000056512,0.531219962967425
4199.99999999775,45.4395230134996,1.00000000058045,0.533721825922505
4299.99999999811,51.5095860418836,1.00000000059168,0.536796421337305
4399.99999999848,57.8173620893593,1.00000000056448,0.538611324564536
4499.99999999884,64.3431340422164,1.00000000056269,0.539581966923982
4599.9999999992,71.0454800995055,1.00000000056879,0.540594659718077
4699.99999999957,77.8654377312034,1.00000000055902,0.541521422736866
4799.99999999993,84.7542511932707,1.00000000054179,0.541618768402615
4900.00000000029,91.681720585729,1.00000000054191,0.541794633720747
5000.00000000066,98.6180957501016,1.00000000054963,0.541673640969888
5100.00000000102,105.515560127983,1.0000000005493,0.540255606245275
5200.00000000139,112.332668469589,1.00000000053073,0.540748578235118
5300.00000000175,119.040646687318,1.00000000049755,0.540580202283974
5400.00000000211,125.622046926566,1.00000000050602,0.538750229481201
5500.00000000248,132.046570781193,1.00000000052287,0.537777747545973
5600.00000000284,138.282345347395,1.00000000048287,0.537478518039172
5700.00000000321,144.30798631131,1.0000000004744,0.535919477819719
5800.00000000357,150.111231362805,1.0000000004735,0.533682442701261
5900.00000000393,155.680883573905,1.00000000046455,0.532792183865329
6000.0000000043,160.995328753601,1.00000000044095,0.531828235839927
6100.00000000466,166.038266449359,1.00000000042326,0.529836801662786
6200.00000000502,170.804413543975,1.0000000004111,0.527914349480708
6300.00000000539,175.293475434641,1.00000000043037,0.52724128206097
6400.00000000575,179.498827825964,1.00000000043272,0.526306642906155
6500.00000000612,183.408213352748,1.00000000041519,0.523778155522389
6600.00000000648,187.022006863008,1.0000000003917,0.521346194863349
6700.00000000684,190.346957168256,1.00000000038901,0.521520372366621
6800.00000000721,193.389136774629,1.00000000037486,0.523070667051418
6900.00000000757,196.1489842592,1.00000000036608,0.520390609314592
7000.00000000793,198.622058918084,1.00000000036541,0.514097744945709
7100.0000000083,200.809354146244,1.00000000035932,0.511527991485965
7200.00000000866,202.728150184226,1.00000000035631,0.518124198396262
7300.00000000903,204.403352780899,1.00000000035442,0.525029281005478
7400.00000000939,205.844210174649,1.00000000035983,0.520554942637313
7500.00000000975,207.038453761788,1.0000000003119,0.506319506068113
7600.00000001012,207.968909130378,1.00000000030599,0.496638193310229
7700.00000001048,208.650532945913,1.00000000031458,0.507588522170473
7800.00000001084,209.133793058288,1.00000000034476,0.527539185307772
7900.00000001121,209.467562531693,1.0000000003593,0.534576623350216
8000.00000001157,209.654833664269,1.00000000034198,0.518857738814234
8100.00000001194,209.649236954299,1.00000000025957,0.48846635934691
8200.0000000123,209.411252676447,1.00000000021674,0.474221752607185
8300.00000001266,208.964905867701,1.00000000027389,0.497743449890486
8400.00000001303,208.394483927991,1.0000000003535,0.531668041372428
8500.00000001339,207.778088704268,1.00000000039233,0.547668903609036
8600.00000001376,207.130738691688,1.00000000038375,0.536109047793955
8700.00000001412,206.399857902856,1.00000000029746,0.495541867144277
8800.00000001448,205.50712976718,1.00000000020815,0.450532901833872
8900.00000001485,204.426321777876,1.00000000019508,0.447623221111997
9000.00000001521,203.21729831311,1.00000000028971,0.491488983189878
9100.00000001557,201.97350196193,1.00000000039639,0.535159522720107
9200.00000001594,200.763307789003,1.0000000004591,0.555547513383094
9300.0000000163,199.602145404541,1.00000000042514,0.547731535525509
9400.00000001667,198.446290543342,1.00000000034584,0.508697522950778
9500.00000001703,197.218785294771,1.00000000023178,0.444267395632394
9600.00000001739,195.862076372192,1.00000000014487,0.398280431390091
9700.00000001776,194.382410113075,1.00000000016942,0.418615708498856
9800.00000001812,192.843369341778,1.00000000031182,0.481013322917936
9900.00000001848,191.317620128375,1.00000000041862,0.529769891204416
10000.0000000188,189.853942172305,1.00000000048572,0.552377170398559
10100.0000000192,188.466709482143,1.00000000049001,0.553943781211574
10200.0000000196,187.135502939107,1.00000000040681,0.529838438333469
10300.0000000199,185.808537858806,1.00000000030742,0.473165922467278
10400.0000000203,184.428856292928,1.00000000019683,0.399254374838223
10500.0000000207,182.967935393661,1.00000000012796,0.353953028742775
10600.000000021,181.439651978924,1.00000000016072,0.376431631966311
10700.0000000214,179.885201558264,1.00000000028205,0.444081875928435
10800.0000000218,178.34616667299,1.00000000040047,0.503595928354272
10900.0000000221,176.852266523063,1.00000000048052,0.534861866414843
11000.0000000225,175.419881907779,1.00000000050834,0.545849130384712
11100.0000000229,174.051302464635,1.0000000004728,0.544888907915945
11200.0000000232,172.732043662366,1.00000000041706,0.525991864106397
11300.0000000236,171.433060686881,1.00000000035857,0.482032328643604
11400.0000000239,170.121810756941,1.00000000025878,0.416869294054457
11500.0000000243,168.777928267166,1.00000000016617,0.356090937731558
11600.0000000247,167.40242029212,1.00000000014185,0.336191217357782
11700.000000025,166.013041733558,1.00000000017818,0.364171328814816
11800.0000000254,164.629715935136,1.00000000029342,0.423003717390374
11900.0000000258,163.264052490124,1.00000000036329,0.481017510560611
12000.0000000261,161.922875158344,1.00000000041635,0.513260830318175
12100.0000000265,160.612976580635,1.00000000046546,0.52516626524628
12200.0000000269,159.339991888436,1.00000000048926,0.530612197163883
12300.0000000272,158.104732620018,1.00000000043471,0.533982131427117
12400.0000000276,156.90127324577,1.00000000038249,0.52499652245088
12500.0000000279,155.717733239339,1.00000000034535,0.495695950409016
12600.0000000283,154.541322118206,1.00000000029781,0.450609839038998
12700.0000000287,153.3650431223,1.00000000024477,0.402801886764811
12800.000000029,152.191077339365,1.00000000020411,0.365410162278094
12900.0000000294,151.028048887756,1.00000000018586,0.351454667328333
13000.0000000298,149.884621021841,1.00000000020458,0.369084755998832
13100.0000000301,148.764824262771,1.00000000025923,0.402550457965883
13200.0000000305,147.666620608697,1.0000000003081,0.444794394492577
13300.0000000309,146.584407290842,1.00000000035268,0.485896961900233
13400.0000000312,145.514125203426,1.00000000037694,0.506158946043409
13500.0000000316,144.454722405066,1.00000000039016,0.505338180811877
13600.0000000319,143.406352144397,1.00000000039354,0.501941175884901
13700.0000000323,142.369324491746,1.00000000042671,0.510038665074223
13800.0000000327,141.345066473377,1.0000000004359,0.527660290020684
13900.000000033,140.335565857966,1.00000000041973,0.535728508553905
14000.0000000334,139.341281452066,1.00000000038243,0.521519606538102
14100.0000000338,138.361210680863,1.00000000030286,0.485743685551101
14200.0000000341,137.396217225717,1.00000000023126,0.440020858489597
14300.0000000345,136.451655367813,1.00000000019181,0.399602054680813
14400.0000000349,135.535051708797,1.00000000020656,0.374223772741528
14500.0000000352,134.651480353034,1.00000000023316,0.368299362850743
14600.0000000356,133.802377982625,1.00000000027533,0.379048506352401
14700.0000000359,132.985811426948,1.00000000027277,0.406910457452874
14800.0000000363,132.195806733315,1.00000000029996,0.433200156786625
14900.0000000367,131.422759484165,1.00000000032957,0.456091666750393
15000.000000037,130.657688591641,1.0000000003657,0.478530632038425
15100.0000000374,129.895882486895,1.00000000035687,0.498158750677738
15200.0000000378,129.138656104306,1.00000000031599,0.503486542481821
15300.0000000381,128.39075808216,1.0000000002989,0.491509216937716
15400.0000000385,127.653039619757,1.0000000002856,0.477563970950898
15500.0000000389,126.91988845995,1.00000000034993,0.478588491500208
15600.0000000392,126.182501291841,1.00000000044555,0.493406340616417
15700.0000000396,125.43588535613,1.00000000045621,0.515187963434307
15800.0000000399,124.68203672435,1.00000000046918,0.533197076004324
15900.0000000403,123.926626418377,1.00000000043169,0.537250716986496
16000.0000000407,123.175764332894,1.00000000039967,0.524568026102492
16100.000000041,122.43589119726,1.00000000033817,0.495504503056405
16200.0000000414,121.715030140742,1.00000000024275,0.456214253031726
16300.0000000418,121.023781633555,1.00000000019711,0.416836584055101
16400.0000000418,120.373261439447,1.00000000016583,0.387185423841562
16500.0000000404,119.769841946474,1.00000000018658,0.370437178862049
16600.0000000389,119.211431446837,1.00000000024109,0.372114311419796
16700.0000000375,118.68941615171,1.00000000028228,0.387208457179142
16800.000000036,118.19370843539,1.00000000031373,0.408915755870588
16900.0000000346,117.716536196933,1.00000000033493,0.432522947089459
17000.0000000331,117.250967668714,1.00000000034534,0.454520255784953
17100.0000000317,116.790133585184,1.00000000036516,0.470832066751833
17200.0000000302,116.327889148391,1.00000000038415,0.482077585882094
17300.0000000287,115.859989146919,1.0000000003722,0.493157155241525
17400.0000000273,115.385922268511,1.00000000035871,0.501886175611335
17500.0000000258,114.90855709358,1.00000000033032,0.507006261585736
17600.0000000244,114.434485975643,1.00000000027929,0.505163601730026
17700.0000000229,113.969371394753,1.00000000026781,0.497442563365227
17800.0000000215,113.514773546405,1.00000000028591,0.489300051262946
17900.00000002,113.066222347804,1.00000000030345,0.485009560070237
18000.0000000186,112.614817020404,1.00000000034469,0.481221810797222
18100.0000000171,112.151870642637,1.00000000037703,0.485744418575293
18200.0000000156,111.672206168247,1.00000000044282,0.495627737787478
18300.0000000142,111.174294418537,1.00000000044866,0.509237834351372
18400.0000000127,110.660391260471,1.00000000043559,0.52539924805517
18500.0000000113,110.135976240661,1.000000000414,0.537050503197479
18600.0000000098,109.608110333624,1.00000000038995,0.536121299108769
18700.0000000084,109.084706461896,1.00000000036055,0.521657962152493
18800.0000000069,108.574744289598,1.00000000029422,0.496158585196254
18900.0000000055,108.088083698247,1.00000000025441,0.463548877652515
19000.000000004,107.63466107444,1.00000000021063,0.434062694820229
19100.0000000026,107.222358453065,1.00000000021275,0.414730649311322
19200.0000000011,106.85615780288,1.00000000022084,0.40162192294478
19299.9999999996,106.538262782742,1.00000000021193,0.393399806616522
19399.9999999982,106.266444708087,1.0000000002306,0.390271301237392
19499.9999999967,106.032930500344,1.00000000025876,0.394482994112231
19599.9999999953,105.825200789628,1.00000000030165,0.412346059608875
19699.9999999938,105.629198085381,1.00000000034057,0.435394072779399
19799.9999999924,105.435145384133,1.00000000038283,0.456735371549247
19899.9999999909,105.24051919942,1.00000000036223,0.46963226966502
19999.9999999895,105.048012764341,1.00000000032733,0.476529303218559
20099.999999988,104.862548957781,1.00000000030793,0.478894485162095
20199.9999999865,104.686712365284,1.00000000028808,0.478997211880966
20299.9999999851,104.518552698533,1.00000000029503,0.482846392703427
20399.9999999836,104.350065974974,1.00000000033882,0.492282469648365
20499.9999999822,104.170645743614,1.00000000036717,0.504771311480454
20599.9999999807,103.971203762675,1.0000000004029,0.516502187317897
20699.9999999793,103.747195533795,1.00000000040125,0.52524734003157
20799.9999999778,103.500408289232,1.00000000038669,0.530233448593321
20899.9999999764,103.237072623588,1.0000000003525,0.531688382466575
20999.9999999749,102.965596457225,1.00000000031979,0.530263403945652
21099.9999999734,102.69364591353,1.00000000030196,0.52375650301066
21199.999999972,102.426098001882,1.0000000002939,0.513775289036316
21299.9999999705,102.164506016554,1.00000000027055,0.505163153599268
21399.9999999691,101.908260016252,1.00000000027128,0.498716438188338
21499.9999999676,101.65479997245,1.00000000029531,0.492703484567957
21599.9999999662,101.399764997261,1.00000000032103,0.487969075095636
21699.9999999647,101.138200303382,1.00000000035355,0.489298830396772
21799.9999999633,100.864232004368,1.00000000039629,0.497561994914888
21899.9999999618,100.573253203733,1.00000000044161,0.509747009341651
21999.9999999603,100.261982483366,1.00000000045202,0.52210612177054
22099.9999999589,99.9311318660944,1.00000000043243,0.533242241523594
22199.9999999574,99.5856799298168,1.00000000042246,0.542022029771035
22299.999999956,99.2327715323759,1.00000000041779,0.542645393693353
22399.9999999545,98.8800225033871,1.00000000035466,0.53512558757688
22499.9999999531,98.5348480671776,1.00000000031392,0.518632686238558
22599.9999999516,98.2057726778834,1.00000000027461,0.494520302957815
22699.9999999502,97.9018718077007,1.0000000002386,0.472128250477246
22799.9999999487,97.631827345949,1.00000000022871,0.450052317374806
22899.9999999473,97.403081883946,1.00000000021474,0.430823992892491
22999.9999999458,97.2203518945373,1.00000000020104,0.418275257782176
23099.9999999443,97.0844875728937,1.00000000021132,0.409452500841449
23199.9999999429,96.9924121849279,1.00000000025235,0.404124273580647
23299.9999999414,96.9375479426193,1.00000000026661,0.403315059048633
23399.99999994,96.9116208999515,1.00000000028267,0.407810780306601
23499.9999999385,96.9075226736672,1.00000000031585,0.415280869467333
23599.9999999371,96.918536531097,1.0000000003235,0.422176751754604
23699.9999999356,96.9386633826469,1.00000000033008,0.430743156140954
23799.9999999342,96.962755819213,1.00000000034283,0.442588200645889
23899.9999999327,96.9862634181118,1.0000000003323,0.457901337831262
23999.9999999312,97.0057254229684,1.00000000034255,0.470434517777125
24099.9999999298,97.0200938479497,1.00000000035849,0.479362737090637
24199.9999999283,97.0288711328714,1.00000000033031,0.488117947428376
24299.9999999269,97.0321368377927,1.00000000036032,0.499499002696174
24399.9999999254,97.031226086597,1.00000000033001,0.510291825298133
24499.999999924,97.0283695435136,1.00000000031738,0.517171258830087
24599.9999999225,97.0265636704331,1.00000000030545,0.518929529214155
24699.9999999211,97.0270915626235,1.00000000029662,0.519401139550134
24799.9999999196,97.0286005624334,1.00000000030773,0.520284935007955
24899.9999999181,97.0268357172758,1.00000000032545,0.522617327578059
24999.9999999167,97.0166214327478,1.00000000033381,0.526381302988216
25099.9999999152,96.9925296467745,1.00000000035168,0.527733626211231
25199.9999999138,96.9507184976289,1.00000000036355,0.527960264486385
25299.9999999123,96.8900078468611,1.00000000036592,0.526866035008232
25399.9999999109,96.810818066339,1.00000000035308,0.52327300221327
25499.9999999094,96.7131129618578,1.00000000036765,0.518440983141573
25599.999999908,96.59683489713,1.00000000037912,0.515062969982664
25699.9999999065,96.4624070852303,1.00000000036244,0.517983280740503
25799.9999999051,96.3121257677131,1.00000000035234,0.527539461402819
25899.9999999036,96.1504997820141,1.00000000033294,0.533156228073635
25999.9999999021,95.9830361334967,1.00000000032832,0.532102872087125
26099.9999999007,95.8147295160779,1.00000000032693,0.528383025674969
26199.9999998992,95.6489525125197,1.00000000030378,0.524969525861767
26299.9999998978,95.4874920403477,1.00000000029315,0.52327297603129
26399.9999998963,95.3311662159924,1.00000000028977,0.522898534289669
26499.9999998949,95.1799858816695,1.00000000028073,0.524886475820996
26599.9999998934,95.0327045396132,1.00000000028983,0.527531620743302
26699.999999892,94.8866215616587,1.0000000002867,0.528666849711034
26799.9999998905,94.7389046886828,1.00000000030689,0.527953873167548
26899.999999889,94.5875793363068,1.00000000030554,0.527145240282482
26999.9999998876,94.431168455645,1.00000000033495,0.526062814953755
27099.9999998861,94.2678361974365,1.00000000035008,0.524378255485074
27199.9999998847,94.095148623539,1.00000000036794,0.522051225425444
27299.9999998832,93.9109502616015,1.000000000395,0.520310838082998
27399.9999998818,93.7138615361376,1.00000000042731,0.520911977947503
27499.9999998803,93.5027380782373,1.00000000044036,0.524608061550456
27599.9999998789,93.2770097730088,1.00000000043624,0.529881307798481
27699.9999998774,93.0382366908673,1.00000000042421,0.536537026228139
27799.9999998759,92.7902590783779,1.00000000043146,0.541772859584205
27899.9999998745,92.5379290825348,1.00000000038028,0.542381282020359
27999.999999873,92.286261872158,1.00000000035289,0.53873832633722
28099.9999998716,92.040582940463,1.000000000325,0.529572920489937
28199.9999998701,91.8068412939205,1.00000000028493,0.515011541807453
28299.9999998687,91.5912149974762,1.00000000026303,0.499002624817258
28399.9999998672,91.3998505436856,1.0000000002411,0.482558126159391
28499.9999998658,91.2387660330138,1.00000000021037,0.467299442447694
28599.9999998643,91.1127696107034,1.00000000021155,0.454514242009584
28699.9999998629,91.0255509009642,1.00000000021293,0.441971855876447
28799.9999998614,90.978656919953,1.00000000022475,0.429233365211858
28899.9999998599,90.9711920244967,1.00000000022231,0.423327558266318
28999.9999998585,91.0005292855673,1.00000000025362,0.422213959567455
