Time,AGPnorm,Energy,Entropy
0,0,1,-1.25534276118246e-17
99.9999999999986,4.4810000924513e-05,1.00000000000243,0.00164514312172305
199.999999999993,0.00374838160402055,0.999999999998218,0.00264549493272724
300,0.00938412450666056,1.00000000000233,0.00475087165707512
400.000000000022,0.0126614822859812,1.00000000000028,0.00794752279399516
500.000000000045,0.0156520998634562,0.99999999999923,0.0109218118056805
600.000000000068,0.0228327611549139,1.00000000000291,0.0149615607249446
700.000000000091,0.0285994009569836,0.999999999998264,0.0191449839329895
800.000000000113,0.0356480770618343,1.00000000000172,0.0237935689254376
900.000000000136,0.0442320562064212,1.00000000000113,0.0289204593593107
1000.00000000016,0.0522773808806481,0.999999999998606,0.0342784519249185
1100.0000000001,0.0620645732274972,1.0000000000031,0.0401052998529682
1200,0.0721068283718926,0.999999999998602,0.0462249856010661
1299.99999999991,0.082095244063013,1.00000000000089,0.0528502674774519
1399.99999999982,0.0940401832429257,1.000000000002,0.0596880037882844
1499.99999999973,0.106097896350408,0.999999999998229,0.067060754573404
1599.99999999964,0.117447167116797,1.00000000000287,0.0748666430456219
1699.99999999955,0.12943771028061,0.999999999999238,0.0829525235398582
1799.99999999946,0.14179894181325,1.00000000000012,0.0918230385267
1899.99999999937,0.155551796730689,1.00000000000272,0.101018626500226
1999.99999999928,0.169346096270157,0.999999999998042,0.111019739506795
2099.99999999919,0.181285174113913,1.00000000000224,0.121768726201599
2199.99999999909,0.194186784385683,1.00000000000025,0.13311171777509
2299.999999999,0.20797212096045,1.00000000000004,0.1460029149262
2399.99999999891,0.221851791208286,1.00000000000486,0.160110337633579
2499.99999999882,0.234576701717147,1.00000000000468,0.17600509061822
2599.99999999873,0.246849259068832,1.00000000001993,0.193859602219931
2699.99999999864,0.260133644998681,1.00000000004407,0.213037595789123
2799.99999999855,0.273003857659271,1.00000000008161,0.233688682228235
2899.99999999846,0.292618295469108,1.00000000013782,0.254573539454944
2999.99999999837,0.307593246232287,1.00000000020701,0.274971510777195
3099.99999999828,0.338500814623667,1.00000000028995,0.29543703614816
3199.99999999819,0.390134367338869,1.00000000037521,0.314995680104736
3299.99999999809,0.460358699840772,1.00000000044635,0.334615834787789
3399.999999998,0.583357789728277,1.00000000053788,0.353163660884808
3499.99999999791,0.755267710552204,1.00000000062859,0.370407255627486
3599.99999999782,1.00432566537139,1.00000000071645,0.387768625684877
3699.99999999773,1.35426241027014,1.00000000077847,0.403737324517525
3799.99999999764,1.81491013532421,1.00000000087265,0.419177564197925
3899.99999999755,2.40893709672851,1.00000000097123,0.433770969606333
3999.99999999746,3.1616152908334,1.00000000100073,0.446915687073856
4099.99999999738,4.0841751490762,1.00000000106023,0.460304839684782
4199.99999999775,5.18584270273577,1.00000000110814,0.472234504867594
4299.99999999811,6.50639030854411,1.00000000116605,0.482942320910954
4399.99999999848,8.0173753561663,1.00000000117616,0.493959228988737
4499.99999999884,9.75163401409062,1.0000000011744,0.503119012224996
4599.9999999992,11.7227375838112,1.00000000124592,0.512451184493166
4699.99999999957,13.8855125580807,1.00000000126306,0.520908137514999
4799.99999999993,16.3087504119342,1.00000000132502,0.527782260548697
4900.00000000029,18.9298545284524,1.0000000013345,0.53558264684743
5000.00000000066,21.7517813512706,1.00000000126024,0.542075938997336
5100.00000000102,24.8183807008859,1.00000000133211,0.547700543530224
5200.00000000139,28.0307516785295,1.00000000131041,0.553843193389451
5300.00000000175,31.4617014358152,1.00000000133991,0.558113670640376
5400.00000000211,35.0578128557748,1.00000000132448,0.563301097754764
5500.00000000248,38.7744790617693,1.00000000133029,0.567687866073508
5600.00000000284,42.6865446190401,1.00000000129215,0.570727804604301
5700.00000000321,46.6750398706614,1.00000000131863,0.574921848482405
5800.00000000357,50.7889260059186,1.00000000132796,0.577520825674173
5900.00000000393,55.0124999175986,1.00000000127241,0.580673443546491
6000.0000000043,59.2620458829346,1.00000000127014,0.583711326784164
6100.00000000466,63.6245400265226,1.00000000134534,0.58486084980034
6200.00000000502,67.9966742296612,1.00000000130919,0.587592621697608
6300.00000000539,72.3909408795795,1.00000000130275,0.589269093542333
6400.00000000575,76.8299677537813,1.00000000121265,0.590612941386594
6500.00000000612,81.2155998694636,1.00000000123027,0.592510630128045
6600.00000000648,85.6257788278614,1.00000000122524,0.592789675885664
6700.00000000684,89.9900923923467,1.00000000117863,0.594393475487692
6800.00000000721,94.2915824804266,1.00000000118684,0.595411647928797
6900.00000000757,98.5747034586725,1.00000000119681,0.595170771351655
7000.00000000793,102.749891475822,1.00000000113649,0.596650216442987
7100.0000000083,106.874818451521,1.00000000114431,0.596316907651293
7200.00000000866,110.913007864468,1.0000000011428,0.596879465569942
7300.00000000903,114.830271136424,1.00000000114113,0.597458886107384
7400.00000000939,118.678698579782,1.00000000110659,0.596602261249657
7500.00000000975,122.387400774128,1.00000000107035,0.59746921125771
7600.00000001012,125.993854679113,1.00000000105129,0.597183655622977
7700.00000001048,129.48661078965,1.00000000104809,0.596745530637622
7800.00000001084,132.826005699224,1.00000000105217,0.597393690925141
7900.00000001121,136.064593475448,1.00000000101505,0.595825702328365
8000.00000001157,139.148140589335,1.00000000102013,0.596800039460401
8100.00000001194,142.102770350859,1.00000000098812,0.595872714750461
8200.0000000123,144.927845746117,1.00000000097737,0.59555983751414
8300.00000001266,147.591997663446,1.00000000096215,0.595424344043382
8400.00000001303,150.135031485294,1.00000000096589,0.594841179869286
8500.00000001339,152.526520542271,1.00000000094134,0.593933359385988
8600.00000001376,154.773846695186,1.00000000095968,0.594389384260743
8700.00000001412,156.893292930367,1.00000000090694,0.592690269955076
8800.00000001448,158.850528262894,1.000000000879,0.593790063747179
8900.00000001485,160.687227917303,1.00000000084506,0.592241589697635
9000.00000001521,162.376286254688,1.00000000084472,0.591979256413462
9100.00000001557,163.927729260713,1.00000000083533,0.592168043028581
9200.00000001594,165.353341176976,1.00000000083488,0.590406580152992
9300.0000000163,166.6335820526,1.00000000082526,0.592055673209121
9400.00000001667,167.795365571282,1.00000000078369,0.589441136922118
9500.00000001703,168.826810665261,1.00000000082654,0.590623035761868
9600.00000001739,169.730843201581,1.0000000007814,0.589952237709377
9700.00000001776,170.522147759933,1.00000000078177,0.588743714637485
9800.00000001812,171.187031017204,1.00000000076768,0.590390325745476
9900.00000001848,171.747770128136,1.00000000074074,0.58779950446301
10000.0000000188,172.196829187663,1.00000000074834,0.58718905513894
10100.0000000192,172.53796016934,1.00000000074968,0.589739317742596
10200.0000000196,172.788639067077,1.00000000071519,0.5859570855491
10300.0000000199,172.933016867566,1.000000000707,0.585656876600337
10400.0000000203,172.994114683709,1.00000000076144,0.589518788134989
10500.0000000207,172.973870221775,1.0000000007154,0.584905415725637
10600.000000021,172.863267817156,1.00000000065393,0.581724837055071
10700.0000000214,172.682596747373,1.00000000074475,0.588991448241286
10800.0000000218,172.43284010628,1.00000000073355,0.585321253420847
10900.0000000221,172.115232909381,1.00000000065824,0.5747122388928
11000.0000000225,171.729281286448,1.0000000007453,0.585761041966566
11100.0000000229,171.293017392609,1.00000000076228,0.587891796784741
11200.0000000232,170.808882152836,1.00000000067825,0.570971658612385
11300.0000000236,170.258068222314,1.00000000069474,0.575136117150363
11400.0000000239,169.672274690683,1.00000000079881,0.588573173941787
11500.0000000243,169.057767174697,1.00000000072565,0.576922120048932
11600.0000000247,168.392032700345,1.00000000062105,0.560903378385877
11700.000000025,167.687435045328,1.00000000078185,0.580708587964796
11800.0000000254,166.961719131436,1.00000000081717,0.583975252736119
11900.0000000258,166.216019478989,1.00000000073158,0.568815714092706
12000.0000000261,165.430304288963,1.00000000062449,0.55567853712377
12100.0000000265,164.614492471237,1.00000000079956,0.581356325881906
12200.0000000269,163.795901471742,1.00000000080671,0.580277087706106
12300.0000000272,162.962212854967,1.00000000070967,0.564186731203018
12400.0000000276,162.101805508607,1.00000000064945,0.550407846862426
12500.0000000279,161.219563606046,1.00000000076765,0.573273422812087
12600.0000000283,160.33562292361,1.00000000089691,0.581565389184082
12700.0000000287,159.45272390475,1.00000000075745,0.562210321918606
12800.000000029,158.550585008552,1.00000000063268,0.548796824243183
12900.0000000294,157.630475081731,1.00000000070434,0.554101826191188
13000.0000000298,156.709974396881,1.00000000089904,0.583641634050231
13100.0000000301,155.795058145717,1.00000000081534,0.562443654339359
13200.0000000305,154.87883184502,1.00000000071675,0.553271757391427
13300.0000000309,153.948477220738,1.00000000067192,0.541757410382344
13400.0000000312,153.010512776841,1.00000000081099,0.561407793256819
13500.0000000316,152.081787299694,1.00000000090131,0.577793854709478
13600.0000000319,151.158267553859,1.00000000079531,0.551522658080325
13700.0000000323,150.23682570526,1.00000000075127,0.54859041978983
13800.0000000327,149.308021475998,1.00000000067601,0.542209048443912
13900.000000033,148.377283622034,1.00000000080816,0.556494059538418
14000.0000000334,147.456039519992,1.00000000086478,0.571261050616683
14100.0000000338,146.54179219032,1.00000000081234,0.549734001270494
14200.0000000341,145.63278074489,1.00000000075353,0.541679643975699
14300.0000000345,144.723141420606,1.00000000071376,0.546747192368542
14400.0000000349,143.814486609697,1.00000000077389,0.548712326767672
14500.0000000352,142.912539501066,1.00000000081624,0.555951987067633
14600.0000000356,142.018528866877,1.00000000086894,0.557624558631911
14700.0000000359,141.132349805113,1.00000000074027,0.535168430041961
14800.0000000363,140.250640061656,1.00000000076768,0.541666744104095
14900.0000000367,139.373197721155,1.00000000073148,0.551708727232254
15000.000000037,138.501563409268,1.00000000078868,0.547857990640291
15100.0000000374,137.635567896634,1.00000000078097,0.545914230355171
15200.0000000378,136.778214379817,1.00000000081406,0.547511264025911
15300.0000000381,135.928538904162,1.00000000079157,0.535935526197795
15400.0000000385,135.084847990992,1.00000000078317,0.536371993196026
15500.0000000389,134.248765879337,1.0000000007798,0.550719870410327
15600.0000000392,133.418752543936,1.00000000084209,0.551547440591368
15700.0000000396,132.59639660657,1.00000000078622,0.540873869331362
15800.0000000399,131.781343379871,1.00000000076475,0.536022657270995
15900.0000000403,130.973118115615,1.00000000078253,0.542802277651916
16000.0000000407,130.173402964997,1.00000000075464,0.537602057956838
16100.000000041,129.381197272423,1.00000000074302,0.538503597214963
16200.0000000414,128.597281403245,1.00000000077561,0.553474394045256
16300.0000000418,127.821209752966,1.00000000077836,0.550332668206208
16400.0000000418,127.052399848431,1.00000000075221,0.538652316119337
16500.0000000404,126.291613923064,1.00000000075093,0.532051807490366
16600.0000000389,125.538449108661,1.00000000073807,0.536745492613251
16700.0000000375,124.793290327261,1.0000000007741,0.543471561717409
16800.000000036,124.056664854263,1.00000000077244,0.541390898032538
16900.0000000346,123.328198917123,1.00000000080063,0.547245554317274
17000.0000000331,122.60841844509,1.00000000075548,0.554049725423403
17100.0000000317,121.896589164121,1.0000000007243,0.543469675334473
17200.0000000302,121.192945612131,1.00000000073675,0.535383754219786
17300.0000000287,120.497802684114,1.00000000074223,0.531224656764057
17400.0000000273,119.811111761864,1.00000000071378,0.53664051427637
17500.0000000258,119.132724660371,1.00000000079279,0.548168628654637
17600.0000000244,118.462233680979,1.00000000076263,0.548618890812719
17700.0000000229,117.79987261829,1.00000000077067,0.546122390565325
17800.0000000215,117.14569877598,1.00000000080568,0.553217963136156
17900.00000002,116.50029818478,1.00000000070929,0.545924634309159
18000.0000000186,115.864070357927,1.00000000068774,0.533292929670088
18100.0000000171,115.236862203526,1.00000000075213,0.531441672738499
18200.0000000156,114.618352774624,1.00000000075861,0.533545851320586
18300.0000000142,114.008297764251,1.00000000078037,0.539857529658966
18400.0000000127,113.405535869677,1.00000000077992,0.551095945049323
18500.0000000113,112.809681060022,1.00000000077054,0.552789949588778
18600.0000000098,112.221215488945,1.00000000079204,0.54896664924528
18700.0000000084,111.639908324345,1.00000000079561,0.551655361493256
18800.0000000069,111.067239434378,1.00000000070964,0.545207233029853
18900.0000000055,110.504981322526,1.00000000065422,0.53075766835291
19000.000000004,109.95319816458,1.0000000006909,0.525510063532942
19100.0000000026,109.410388892419,1.00000000079326,0.532027721621146
19200.0000000011,108.874421009583,1.00000000083571,0.538147139586093
19299.9999999996,108.345610429754,1.00000000074856,0.536973918642895
19399.9999999982,107.823025219909,1.00000000081439,0.548651172480417
19499.9999999967,107.305223370533,1.00000000082142,0.559034607663611
19599.9999999953,106.792951907251,1.00000000080914,0.552072635539765
19699.9999999938,106.286695747533,1.00000000082768,0.548927325687619
19799.9999999924,105.788878511302,1.00000000070701,0.540644486322743
19899.9999999909,105.302220354929,1.00000000066957,0.530512894264748
19999.9999999895,104.826838007253,1.00000000070319,0.5276893374057
20099.999999988,104.360832434678,1.00000000076261,0.527444098240145
20199.9999999865,103.901442606142,1.00000000078692,0.534486727297392
20299.9999999851,103.447472143384,1.00000000078736,0.53176129322806
20399.9999999836,102.999577827868,1.00000000078051,0.53607121159488
20499.9999999822,102.555192213043,1.00000000083408,0.546068034693576
20599.9999999807,102.112896311247,1.0000000008414,0.557909697961413
20699.9999999793,101.673770608755,1.00000000080459,0.555985194978564
20799.9999999778,101.23994788175,1.00000000074987,0.539704024416565
20899.9999999764,100.813913138819,1.00000000074875,0.538669766591653
20999.9999999749,100.398203566765,1.0000000006962,0.533223543104929
21099.9999999734,99.993341229967,1.00000000071874,0.531317806973715
21199.999999972,99.5980856242936,1.00000000072687,0.531155651719921
21299.9999999705,99.2102608958539,1.00000000075763,0.527668153707383
21399.9999999691,98.8286715340587,1.00000000076592,0.528419708822181
21499.9999999676,98.4513229550898,1.00000000075727,0.529413123226676
21599.9999999662,98.0785549378918,1.00000000078671,0.534364083033059
21699.9999999647,97.7078889749354,1.00000000083633,0.541497458860422
21799.9999999633,97.3363604380848,1.00000000086709,0.548400000081199
21899.9999999618,96.9656828763709,1.00000000080349,0.554482091261857
21999.9999999603,96.5988406373987,1.00000000076331,0.548973267130163
22099.9999999589,96.238581143154,1.00000000072611,0.53553020775973
22199.9999999574,95.8866902509069,1.00000000073354,0.537702308098779
22299.999999956,95.5432494021294,1.00000000071031,0.54042870372861
22399.9999999545,95.2093925990123,1.00000000073134,0.537051712760964
22499.9999999531,94.8838789723776,1.00000000073331,0.539021962175602
22599.9999999516,94.5656733573339,1.00000000075829,0.534339143227128
22699.9999999502,94.254574500749,1.00000000075616,0.530729605249958
22799.9999999487,93.9477202393186,1.0000000007852,0.534080722153693
22899.9999999473,93.6444388425847,1.00000000075891,0.533744609395509
22999.9999999458,93.3438815362229,1.00000000080254,0.540187436663724
23099.9999999443,93.0436374716538,1.00000000082082,0.541581312450542
23199.9999999429,92.7427688296768,1.00000000083069,0.543641387224673
23299.9999999414,92.4411078109268,1.0000000008224,0.552829434345417
23399.99999994,92.1417709462485,1.00000000077052,0.555134775166702
23499.9999999385,91.8479745125531,1.0000000007307,0.548348739436277
23599.9999999371,91.5609915725827,1.0000000007324,0.542247095094791
23699.9999999356,91.2819089801353,1.00000000073174,0.543375101754908
23799.9999999342,91.010221957562,1.00000000073828,0.548192217842019
23899.9999999327,90.7468033111916,1.0000000007423,0.54392857672444
23999.9999999312,90.4917574710935,1.00000000072333,0.541550984811775
24099.9999999298,90.2430799979936,1.00000000075833,0.545222261742382
24199.9999999283,89.9993928650343,1.00000000077547,0.543471017972575
24299.9999999269,89.7599195816343,1.00000000076056,0.539979770678318
24399.9999999254,89.5244562842428,1.0000000007914,0.540345406446509
24499.999999924,89.2919814486268,1.00000000074984,0.53984850627126
24599.9999999225,89.0624143355041,1.00000000075176,0.542329835167352
24699.9999999211,88.8339837242498,1.00000000079592,0.546345137958798
24799.9999999196,88.603301897635,1.00000000085561,0.54634346132905
24899.9999999181,88.3708738341962,1.00000000080898,0.549078299583782
24999.9999999167,88.1383355463145,1.00000000077726,0.56071753029523
25099.9999999152,87.907985018337,1.00000000075317,0.561132521970741
25199.9999999138,87.6823816301211,1.0000000007442,0.554273176508482
25299.9999999123,87.4625832498235,1.00000000075925,0.552802606381193
25399.9999999109,87.2492114946841,1.00000000075794,0.552332434697127
25499.9999999094,87.0432449994076,1.00000000072739,0.549728608935923
25599.999999908,86.8452134775667,1.00000000070711,0.547822104198782
25699.9999999065,86.6555220469028,1.00000000075532,0.545620984905077
25799.9999999051,86.47123494854,1.00000000077176,0.551088494541589
25899.9999999036,86.2894057962659,1.00000000081907,0.554915290962385
25999.9999999021,86.108938825733,1.00000000080612,0.551269935742964
26099.9999999007,85.9311020076628,1.0000000007431,0.546098660647495
26199.9999998992,85.7579228751859,1.00000000074661,0.54464632003567
26299.9999998978,85.5880291977869,1.00000000075462,0.546046702538037
26399.9999998963,85.4206962584565,1.00000000075315,0.550278305773732
26499.9999998949,85.2551005388031,1.00000000079355,0.551884626839437
26599.9999998934,85.0874978883997,1.00000000085284,0.552538597836129
26699.999999892,84.9175129398853,1.00000000083141,0.551232088971004
26799.9999998905,84.7458677675978,1.00000000080403,0.558461843810692
26899.999999889,84.5724345203975,1.00000000079835,0.567506303011849
26999.9999998876,84.3992323485514,1.00000000081418,0.570852993960036
27099.9999998861,84.2274576574795,1.00000000076506,0.567482959508918
27199.9999998847,84.0598838289963,1.00000000076292,0.559218528230973
27299.9999998832,83.8982737720311,1.00000000072475,0.554900135120772
27399.9999998818,83.743315765516,1.00000000076361,0.555175545740215
27499.9999998803,83.5960713267744,1.0000000007333,0.55238796362375
27599.9999998789,83.4551337926093,1.00000000075163,0.554298420487447
27699.9999998774,83.3194604088651,1.00000000077242,0.555608788015991
27799.9999998759,83.1878861490329,1.00000000074545,0.558731707043523
27899.9999998745,83.0576397589337,1.000000000817,0.559066533125411
27999.999999873,82.9281326643952,1.00000000082897,0.557565136569193
28099.9999998716,82.7995268060876,1.00000000079237,0.553134563987257
28199.9999998701,82.6747507106076,1.00000000074478,0.550009875293156
28299.9999998687,82.553130241358,1.00000000079771,0.553387640236915
28399.9999998672,82.4328573465325,1.00000000079402,0.55659902317499
28499.9999998658,82.3128929654021,1.00000000080305,0.561905918419018
28599.9999998643,82.1936542513555,1.0000000007756,0.561751327647759
28699.9999998629,82.0754126894508,1.00000000075961,0.56084164836995
28799.9999998614,81.9558199450541,1.00000000083971,0.564038429432527
28899.9999998599,81.8331145123829,1.00000000082844,0.570217355935471
28999.9999998585,81.7077005215585,1.00000000084106,0.573064169546888
