Time,AGPnorm,Energy,Entropy
0,0,1,-7.14364110350737e-17
99.9999999999986,0.00182575749991871,0.999999999998822,0.00568811448651031
199.999999999993,0.012669915858366,0.999999999997712,0.0163841137348984
300,0.0252049241749265,0.999999999998829,0.030098496666902
400.000000000022,0.03721062513639,1.00000000000029,0.0476603417731941
500.000000000045,0.0520942700531123,0.999999999998909,0.0691771386251148
600.000000000068,0.0714161258204096,0.999999999997761,0.0942706438093601
700.000000000091,0.089426102150866,0.999999999998583,0.123616981897977
800.000000000113,0.10691536103679,1.00000000000244,0.159410023151419
900.000000000136,0.124521644608504,1.00000000003478,0.206237296420357
1000.00000000016,0.139082287151994,1.00000000020272,0.26417040069166
1100.0000000001,0.17413106885584,1.00000000053272,0.324895932197618
1200,0.272799936132559,1.00000000103625,0.379229453117288
1299.99999999991,0.479946433740906,1.00000000144975,0.426566123994517
1399.99999999982,0.911804113027292,1.00000000178603,0.465941703471751
1499.99999999973,1.70198388580519,1.00000000211007,0.497327863181272
1599.99999999964,2.88979663494422,1.00000000236406,0.522968091627161
1699.99999999955,4.47540433503605,1.00000000241808,0.544289079787597
1799.99999999946,6.48699110856474,1.00000000252511,0.560193580665767
1899.99999999937,8.89193540218883,1.00000000253208,0.571512634030662
1999.99999999928,11.57819930711,1.00000000255616,0.580639628987918
2099.99999999919,14.4582638074255,1.00000000248607,0.587439867811556
2199.99999999909,17.4822015710483,1.00000000237223,0.591514863109984
2299.999999999,20.5735019638564,1.00000000235608,0.592741667300465
2399.99999999891,23.6194861525129,1.0000000024195,0.593365112656052
2499.99999999882,26.5429710391688,1.00000000222762,0.594267673697407
2599.99999999873,29.3134661059384,1.00000000207333,0.593317782316013
2699.99999999864,31.9004869359637,1.00000000207242,0.590728863292298
2799.99999999855,34.2581081763333,1.00000000208986,0.588485877021588
2899.99999999846,36.3470261600849,1.00000000193174,0.58760830188538
2999.99999999837,38.159187660882,1.00000000184225,0.58608345397841
3099.99999999828,39.7052275072665,1.00000000175917,0.582510049844767
3199.99999999819,40.9887123493354,1.00000000168635,0.579298063264596
3299.99999999809,42.0070914196266,1.00000000167321,0.579116901456509
3399.999999998,42.7685307636459,1.00000000150154,0.574302632709743
3499.99999999791,43.2979841071659,1.00000000151399,0.578317452739881
3599.99999999782,43.6069274319283,1.00000000151207,0.5755027068407
3699.99999999773,43.7393241086067,1.00000000136574,0.567278337998526
3799.99999999764,43.6934637364235,1.00000000151697,0.57707208979065
3899.99999999755,43.5161477304131,1.00000000135713,0.564800095827783
3999.99999999746,43.2042721437977,1.00000000146027,0.569750580851648
4099.99999999738,42.8256563948253,1.00000000138289,0.560628120088209
4199.99999999775,42.3456563412322,1.00000000129003,0.5492862558283
4299.99999999811,41.8348905278529,1.00000000159585,0.566996251542034
4399.99999999848,41.2644088119159,1.00000000117936,0.523945814292211
4499.99999999884,40.6610592877022,1.00000000180132,0.583017138770032
4599.9999999992,40.0637579091349,1.00000000135076,0.533135136929264
4699.99999999957,39.4197249729871,1.00000000133571,0.520616775979744
4799.99999999993,38.7865692655303,1.00000000187795,0.572253669165076
4900.00000000029,38.1629671557377,1.00000000118886,0.509371535508806
5000.00000000066,37.513361744335,1.00000000139681,0.514394167011284
5100.00000000102,36.8811795551948,1.00000000187906,0.565483029629485
5200.00000000139,36.2704968255443,1.00000000137682,0.504428047731641
5300.00000000175,35.6535427027074,1.00000000127361,0.505857183536311
5400.00000000211,35.0400814402579,1.0000000016832,0.536675244946062
5500.00000000248,34.4515794080043,1.00000000174645,0.530650921798925
5600.00000000284,33.8767363430404,1.00000000132262,0.498590179115243
5700.00000000321,33.3089583589243,1.00000000129746,0.51782600145045
5800.00000000357,32.7516637421241,1.00000000162307,0.52443611957848
5900.00000000393,32.2127547588334,1.00000000168113,0.529765995594592
6000.0000000043,31.6901429591866,1.00000000140009,0.501371182032524
6100.00000000466,31.1834512047943,1.00000000142112,0.522713468724152
6200.00000000502,30.6902196633497,1.00000000154991,0.533768834014262
6300.00000000539,30.2129281684412,1.00000000150769,0.516525607036141
6400.00000000575,29.7508854780711,1.00000000167536,0.525815719132531
6500.00000000612,29.3041133620748,1.00000000142935,0.507550698342424
6600.00000000648,28.8775016516103,1.00000000141733,0.51959621116219
6700.00000000684,28.4631860057963,1.00000000171237,0.544293195761896
6800.00000000721,28.0649195660747,1.00000000124216,0.50891022248989
6900.00000000757,27.6853989071987,1.00000000153287,0.513419627006994
7000.00000000793,27.3156685571702,1.00000000172497,0.517009837289769
7100.0000000083,26.9592593919608,1.00000000131737,0.504493846481855
7200.00000000866,26.6223388856148,1.00000000134118,0.519561218116609
7300.00000000903,26.2941782525361,1.0000000017091,0.539071972057446
7400.00000000939,25.9751363505097,1.00000000148373,0.528499050320503
7500.00000000975,25.6758563887011,1.00000000129536,0.502524985799875
7600.00000001012,25.3898354898028,1.00000000159284,0.521938767880688
7700.00000001048,25.1109678767085,1.00000000158431,0.519994792350579
7800.00000001084,24.8437856668606,1.00000000154697,0.510967758155119
7900.00000001121,24.5906251183099,1.00000000149662,0.525420547038901
8000.00000001157,24.3474041021015,1.00000000154597,0.537478616622344
8100.00000001194,24.1077023851443,1.00000000166038,0.529268871900305
8200.0000000123,23.8769684977671,1.00000000146322,0.532191894013011
8300.00000001266,23.6586973527193,1.00000000150054,0.526506271237639
8400.00000001303,23.4515916002672,1.00000000152121,0.514578007663647
8500.00000001339,23.2549944710229,1.00000000157315,0.53232885520066
8600.00000001376,23.066218595292,1.00000000147691,0.530193121879482
8700.00000001412,22.8889634896999,1.00000000141047,0.522918687275649
8800.00000001448,22.7202430807821,1.00000000161228,0.54398368303023
8900.00000001485,22.5548640873902,1.00000000145221,0.543542338401395
9000.00000001521,22.40117402315,1.00000000148174,0.530390245283166
9100.00000001557,22.2538373875374,1.00000000165355,0.53361690355473
9200.00000001594,22.104126735596,1.00000000173857,0.556534753502264
9300.0000000163,21.9555019850811,1.00000000152116,0.547619222856234
9400.00000001667,21.8174665393208,1.00000000142134,0.526287986344765
9500.00000001703,21.6915630963384,1.00000000153952,0.538896261941507
9600.00000001739,21.5733226898445,1.00000000158553,0.546705481803146
9700.00000001776,21.4599571527515,1.00000000153392,0.539220689268449
9800.00000001812,21.3554756958445,1.000000001456,0.543320792541303
9900.00000001848,21.2579108264085,1.00000000162957,0.550114051641361
10000.0000000188,21.1580060071194,1.00000000165224,0.553137397543284
10100.0000000192,21.0623481041363,1.00000000146278,0.543621577579561
10200.0000000196,20.9820227348619,1.00000000133077,0.531249644675471
10300.0000000199,20.9051847465599,1.00000000165836,0.554587634531339
10400.0000000203,20.8216625644855,1.00000000170719,0.552726828140206
10500.0000000207,20.7316804715358,1.00000000168921,0.561354481054542
10600.000000021,20.6401620793503,1.00000000148669,0.56706179181055
10700.0000000214,20.5551976105317,1.00000000148962,0.562779215504681
10800.0000000218,20.4749104631956,1.00000000155615,0.565313211870609
10900.0000000221,20.4023686549065,1.00000000165513,0.561602188546858
11000.0000000225,20.3371605374972,1.00000000153789,0.549959662346146
11100.0000000229,20.28096335721,1.00000000153109,0.551094704012289
11200.0000000232,20.231226267892,1.00000000163756,0.560443611364911
11300.0000000236,20.1838938828702,1.00000000173812,0.573160841135748
11400.0000000239,20.1369841385495,1.00000000158981,0.563536265788949
11500.0000000243,20.0963380819305,1.00000000160068,0.562973515544387
11600.0000000247,20.0569671794947,1.00000000158034,0.566367260826389
11700.000000025,20.0210244778828,1.00000000147645,0.560914420149665
11800.0000000254,19.9896672433003,1.00000000151308,0.562834838391362
11900.0000000258,19.9559168433735,1.00000000162056,0.579192652760643
12000.0000000261,19.920063518823,1.00000000153333,0.578157430208211
12100.0000000265,19.8857463594299,1.00000000153736,0.575786243875988
12200.0000000269,19.848255826604,1.0000000016041,0.581819999939541
12300.0000000272,19.8040090272827,1.00000000175577,0.600644503821644
12400.0000000276,19.7505250635143,1.00000000169926,0.613261387237162
12500.0000000279,19.6948136717666,1.00000000164326,0.607385381870624
12600.0000000283,19.6443555112749,1.00000000158061,0.595387722126447
12700.0000000287,19.6027496382046,1.00000000163149,0.592194900554048
12800.000000029,19.5705266996351,1.00000000161227,0.581399816030518
12900.0000000294,19.5483468283477,1.00000000159866,0.570116251696323
13000.0000000298,19.5312247312381,1.00000000158002,0.577974129488068
13100.0000000301,19.5179377040389,1.00000000162004,0.586376041519513
13200.0000000305,19.5074686757419,1.00000000162856,0.594822430270168
13300.0000000309,19.4965025711549,1.0000000017231,0.595736575237256
13400.0000000312,19.484545303838,1.00000000163355,0.589093731917816
13500.0000000316,19.4801591857893,1.00000000143677,0.57925337413867
13600.0000000319,19.4826367868206,1.00000000170367,0.585621736078472
13700.0000000323,19.48069851467,1.00000000174384,0.590403962086801
13800.0000000327,19.4769815915197,1.00000000161277,0.592233188289058
13900.000000033,19.4773640434062,1.00000000152267,0.593166570394233
14000.0000000334,19.4796120312319,1.00000000165684,0.606381297723988
14100.0000000338,19.4757742293948,1.00000000188581,0.620058361365942
14200.0000000341,19.4649069822592,1.0000000017226,0.614105516623585
14300.0000000345,19.4524370784804,1.00000000149168,0.61198483982479
14400.0000000349,19.4423509677126,1.00000000158311,0.612467011254519
14500.0000000352,19.4309604063378,1.00000000167507,0.614846848465822
14600.0000000356,19.4142253599717,1.00000000172088,0.619756464940584
14700.0000000359,19.3906732297838,1.00000000184094,0.61877624654672
14800.0000000363,19.3576087060943,1.00000000173605,0.61383795725783
14900.0000000367,19.3162427782228,1.00000000173736,0.623640148535737
15000.000000037,19.2736301293357,1.00000000163863,0.620027566655485
15100.0000000374,19.2367268758649,1.00000000147136,0.606697373471763
15200.0000000378,19.2075728188968,1.0000000016589,0.601500912672616
15300.0000000381,19.1879635197959,1.00000000169933,0.599033103997168
15400.0000000385,19.1760311320634,1.00000000157601,0.589775725405655
15500.0000000389,19.1732576772056,1.00000000155912,0.59105068412682
15600.0000000392,19.1764855093568,1.0000000016488,0.59207945813186
15700.0000000396,19.1831106960723,1.00000000168697,0.601417679589731
15800.0000000399,19.1899967052363,1.00000000175685,0.602054770970269
15900.0000000403,19.1985204722201,1.00000000171271,0.606929279424693
16000.0000000407,19.2073691432681,1.00000000168803,0.602465287815844
16100.000000041,19.218957544029,1.00000000154625,0.595742738876069
16200.0000000414,19.2379768796242,1.00000000155054,0.588363196324205
16300.0000000418,19.2568136720639,1.00000000180879,0.596728956807668
16400.0000000418,19.2738068271356,1.00000000173145,0.609907454974415
16500.0000000404,19.290320486503,1.00000000158861,0.609925237080617
16600.0000000389,19.3062547696458,1.00000000166046,0.606293240904971
16700.0000000375,19.3186513805929,1.00000000178867,0.600794084040098
16800.000000036,19.3294055428518,1.00000000165112,0.592707771631827
16900.0000000346,19.3399523932329,1.00000000169494,0.60365577558042
17000.0000000331,19.3495248494951,1.00000000176643,0.621267371924762
17100.0000000317,19.3604825796242,1.00000000160667,0.623946980291074
17200.0000000302,19.3697305606433,1.00000000175372,0.627180911638129
17300.0000000287,19.3752326679581,1.00000000171597,0.623174803141571
17400.0000000273,19.3746790565974,1.00000000177169,0.631460356470749
17500.0000000258,19.3717303126682,1.00000000169979,0.629830843919983
17600.0000000244,19.3669115487927,1.00000000186993,0.637339695899879
17700.0000000229,19.3603612563929,1.00000000176932,0.641476740425985
17800.0000000215,19.3527203574084,1.00000000180099,0.641521933292955
17900.00000002,19.3410602206226,1.00000000168347,0.645201035801363
18000.0000000186,19.3268360747174,1.00000000163512,0.641763636457156
18100.0000000171,19.3120518435644,1.00000000166538,0.642681011433267
18200.0000000156,19.293925450396,1.0000000018233,0.643218242633312
18300.0000000142,19.2703421457796,1.00000000178617,0.635832842274019
18400.0000000127,19.2410478704624,1.00000000189235,0.6411953154762
18500.0000000113,19.2057576656627,1.00000000184867,0.631990899984801
18600.0000000098,19.1659019987909,1.00000000180231,0.63386993837847
18700.0000000084,19.1244156555179,1.00000000167176,0.628543647451247
18800.0000000069,19.0873280634399,1.00000000168911,0.620869203897883
18900.0000000055,19.055854039662,1.00000000155837,0.620594568944465
19000.000000004,19.0301764947714,1.00000000170555,0.624648024634954
19100.0000000026,19.0111853602538,1.00000000171447,0.624572235113242
19200.0000000011,18.9994149073219,1.00000000171492,0.620511130502862
19299.9999999996,18.9956439851417,1.00000000162123,0.609498883684443
19399.9999999982,18.9999552850475,1.00000000176151,0.60856970827469
19499.9999999967,19.0084980838599,1.00000000178988,0.596754363040918
19599.9999999953,19.0202700487833,1.00000000180224,0.605430370756761
19699.9999999938,19.0338482445639,1.00000000192757,0.617265888429129
19799.9999999924,19.0478184257515,1.00000000178851,0.606916179909553
19899.9999999909,19.0656646245951,1.00000000174787,0.609417250430694
19999.9999999895,19.0832750430136,1.00000000190149,0.612736633816888
20099.999999988,19.1037558976087,1.00000000171926,0.608855453133377
20199.9999999865,19.1280904841342,1.0000000016157,0.604412391795039
20299.9999999851,19.1541934318632,1.00000000182152,0.597841843232713
20399.9999999836,19.1829088516894,1.00000000164981,0.605373141711661
20499.9999999822,19.2143586513356,1.000000001859,0.60806796353074
20599.9999999807,19.2432709321628,1.00000000180191,0.610201999891798
20699.9999999793,19.2676790351865,1.00000000188626,0.615059122129554
20799.9999999778,19.2920855701564,1.00000000172126,0.616087404976267
20899.9999999764,19.3201360225695,1.00000000182626,0.610724126552897
20999.9999999749,19.3441023751592,1.00000000208787,0.619233807537696
21099.9999999734,19.3613785924461,1.00000000187468,0.616506256612004
21199.999999972,19.3742805613416,1.00000000182318,0.622141918920647
21299.9999999705,19.3878832350394,1.00000000179537,0.627520598175763
21399.9999999691,19.4048031623496,1.00000000173505,0.640829624170893
21499.9999999676,19.4225157812322,1.00000000180741,0.643977255104212
21599.9999999662,19.4368950435072,1.00000000197525,0.644915486170767
21699.9999999647,19.4469764772481,1.00000000189649,0.640099230627999
21799.9999999633,19.4551079189528,1.00000000188477,0.641942965587981
21899.9999999618,19.4620491566361,1.00000000192018,0.645329511481662
21999.9999999603,19.4701348440564,1.00000000185708,0.646567392015008
22099.9999999589,19.4778714835433,1.0000000019172,0.643151795735006
22199.9999999574,19.4858901474207,1.00000000185222,0.641193786302508
22299.999999956,19.4920422556077,1.00000000202955,0.633413480067672
22399.9999999545,19.4936431760359,1.0000000018503,0.644749701348705
22499.9999999531,19.4938012576808,1.00000000193884,0.641750004475028
22599.9999999516,19.4943227304618,1.00000000195397,0.645908131040968
22699.9999999502,19.492050607066,1.00000000199016,0.652130480151181
22799.9999999487,19.4893031483381,1.00000000182765,0.653834245324526
22899.9999999473,19.4902804881266,1.00000000183944,0.655382054126089
22999.9999999458,19.4939702551727,1.00000000187679,0.637279315229905
23099.9999999443,19.4940041412456,1.00000000191355,0.645223587494318
23199.9999999429,19.4891714535276,1.00000000193544,0.647498088470136
23299.9999999414,19.4824921210918,1.0000000019023,0.648475347809358
23399.99999994,19.4732901156543,1.00000000196507,0.643620840024895
23499.9999999385,19.4601449128685,1.00000000188397,0.656928211518819
23599.9999999371,19.4463708666299,1.00000000188368,0.660217548081261
23699.9999999356,19.432358521418,1.00000000203772,0.657281497908737
23799.9999999342,19.415342884902,1.00000000198478,0.657402809307251
23899.9999999327,19.3962073108961,1.00000000188658,0.662193569135366
23999.9999999312,19.3759372885689,1.00000000182852,0.656439810723669
24099.9999999298,19.3542290338029,1.00000000191777,0.654075094664957
24199.9999999283,19.3331973562701,1.00000000167562,0.652118421075159
24299.9999999269,19.3119561779037,1.00000000197547,0.660083108370804
24399.9999999254,19.29034453042,1.00000000180555,0.661769549142941
24499.999999924,19.2676557432788,1.00000000201959,0.665497568058844
24599.9999999225,19.2424146568108,1.0000000020299,0.668093143280784
24699.9999999211,19.2152297041479,1.00000000210927,0.674669628082127
24799.9999999196,19.1832033148667,1.00000000211055,0.680144746433215
24899.9999999181,19.1485991123261,1.00000000203256,0.669547354461387
24999.9999999167,19.1128865595384,1.00000000202819,0.66448700958479
25099.9999999152,19.0786041721665,1.00000000188837,0.655763030859133
25199.9999999138,19.047485778562,1.00000000191684,0.643716418238569
25299.9999999123,19.0215572098761,1.00000000188206,0.642543282087525
25399.9999999109,19.0010722238982,1.00000000183463,0.645550221513936
25499.9999999094,18.9866788333515,1.0000000018193,0.65289594943692
25599.999999908,18.9778931508228,1.00000000195457,0.656942504211764
25699.9999999065,18.975306322136,1.00000000183409,0.649679636710422
25799.9999999051,18.9800686938257,1.00000000189051,0.651007474790445
25899.9999999036,18.9908363675079,1.00000000189282,0.643774299125148
25999.9999999021,19.0065473599474,1.00000000206423,0.64268475506358
26099.9999999007,19.024196466985,1.00000000189944,0.640586271093076
26199.9999998992,19.0449929001076,1.00000000201125,0.637619134449114
26299.9999998978,19.0677926762456,1.00000000225726,0.633038268691555
26399.9999998963,19.0921027379823,1.00000000203674,0.639723760324106
26499.9999998949,19.1192863015805,1.00000000206011,0.632522662645583
26599.9999998934,19.1479806961792,1.00000000192606,0.629685283712413
26699.999999892,19.1807522694355,1.00000000198526,0.626617015678262
26799.9999998905,19.2157097564277,1.00000000203687,0.625550100451711
26899.999999889,19.2518180338295,1.00000000208918,0.623072473066188
26999.9999998876,19.2930932101925,1.00000000191294,0.617739002188463
27099.9999998861,19.3378683346733,1.00000000198604,0.619629864536673
27199.9999998847,19.3839223330718,1.0000000021195,0.622826643128477
27299.9999998832,19.4305299600934,1.00000000201615,0.627723051730889
27399.9999998818,19.4774753338876,1.0000000020152,0.628201977019117
27499.9999998803,19.5247181561381,1.00000000207834,0.63542485757561
27599.9999998789,19.5704646121422,1.00000000213685,0.631194433030244
27699.9999998774,19.6124356986847,1.00000000217409,0.637913248376591
27799.9999998759,19.6543738055547,1.00000000201522,0.625442204003327
27899.9999998745,19.6985226118065,1.00000000190922,0.626824996958318
27999.999999873,19.7401891277321,1.00000000221651,0.636846859305278
28099.9999998716,19.7778220745787,1.00000000202046,0.628229340188044
28199.9999998701,19.8125594165678,1.00000000214126,0.63616690521704
28299.9999998687,19.8446300442776,1.0000000020459,0.630334564615646
28399.9999998672,19.8774378672629,1.00000000196437,0.642398875518413
28499.9999998658,19.909832905951,1.00000000212028,0.649203626062673
28599.9999998643,19.9412436549408,1.00000000211927,0.652660712975921
28699.9999998629,19.9732352884957,1.00000000219741,0.651103689856227
28799.9999998614,20.0042164879431,1.00000000213554,0.652721174490729
28899.9999998599,20.0338610553792,1.00000000202947,0.66032482954086
28999.9999998585,20.0612064434683,1.00000000218971,0.662274391784559
