Time,AGPnorm,Energy,Entropy
0,0,1,-7.42050867990852e-17
99.9999999999986,0.000953903325947269,1.00000000000127,0.00312790234966461
199.999999999993,0.00603166784395455,0.999999999997746,0.00923723626344236
300,0.0127218611453655,0.999999999995627,0.0168100819260868
400.000000000022,0.0190761611021862,0.999999999998375,0.0262706443119718
500.000000000045,0.0266440671873367,1.00000000000108,0.0380676592136395
600.000000000068,0.0368874474842251,0.99999999999931,0.0516856744575725
700.000000000091,0.0479274031257831,0.999999999996246,0.0663783511077347
800.000000000113,0.059412559797422,0.999999999997184,0.0825555445699324
900.000000000136,0.0709437702281945,1.00000000000012,0.101112823759039
1000.00000000016,0.0838885554106402,1.00000000000034,0.122407156967044
1100.0000000001,0.0968440011081746,0.999999999997996,0.14642428009281
1200,0.110336129324576,1.00000000000065,0.17412886253701
1299.99999999991,0.122837656513959,1.00000000001852,0.207512442114674
1399.99999999982,0.133347542596161,1.00000000007231,0.246937201617921
1499.99999999973,0.149629657888133,1.00000000016208,0.289301146593175
1599.99999999964,0.202519915304131,1.0000000003026,0.330012868451439
1699.99999999955,0.308452044318831,1.00000000044097,0.367346692932503
1799.99999999946,0.496070717094554,1.00000000061819,0.400844881809091
1899.99999999937,0.862511995381485,1.00000000078599,0.430554436934168
1999.99999999928,1.52286000002693,1.00000000091007,0.455515229613076
2099.99999999919,2.51319289269936,1.00000000107801,0.476880798693975
2199.99999999909,3.84548914949172,1.00000000109406,0.495812553004435
2299.999999999,5.59147897856568,1.0000000012071,0.511978024087487
2399.99999999891,7.81943678232305,1.00000000125713,0.524789103826853
2499.99999999882,10.499442861228,1.00000000123347,0.535597709740952
2599.99999999873,13.563569086918,1.00000000127986,0.544561824390967
2699.99999999864,16.9884829423956,1.00000000124704,0.552494015081902
2799.99999999855,20.7686382822266,1.00000000123055,0.557977241672199
2899.99999999846,24.8383753543258,1.00000000129163,0.562012565970598
2999.99999999837,29.1024278930948,1.00000000129208,0.565110145597507
3099.99999999828,33.4954132280664,1.00000000123717,0.567854462720233
3199.99999999819,37.9801091293447,1.00000000117043,0.569365498081177
3299.99999999809,42.50263223933,1.00000000118453,0.569489488927675
3399.999999998,46.9876565498098,1.00000000117032,0.569588364796909
3499.99999999791,51.3800666521614,1.00000000110642,0.569981960478672
3599.99999999782,55.64013822181,1.00000000111037,0.57005970723376
3699.99999999773,59.7386311799026,1.00000000104525,0.567388697769507
3799.99999999764,63.6423861898747,1.00000000104577,0.565180205387903
3899.99999999755,67.3099091073391,1.00000000106054,0.566257875264824
3999.99999999746,70.7197104813696,1.00000000102047,0.563926386779185
4099.99999999738,73.8705629485912,1.00000000094557,0.559985400219923
4199.99999999775,76.7480923909974,1.00000000096711,0.561001284445775
4299.99999999811,79.3373988688567,1.0000000009042,0.557435361820206
4399.99999999848,81.6429596989443,1.00000000087111,0.555801105520946
4499.99999999884,83.6653362572593,1.00000000084731,0.55621263272861
4599.9999999992,85.4111806573329,1.00000000080416,0.549926425601095
4699.99999999957,86.8857948944162,1.00000000079506,0.554432571865238
4799.99999999993,88.1014869572523,1.0000000007555,0.550859176684422
4900.00000000029,89.058820491344,1.00000000075054,0.544326815229529
5000.00000000066,89.7830271741415,1.0000000007884,0.557937850398151
5100.00000000102,90.3074364363871,1.00000000074864,0.548469556149005
5200.00000000139,90.6038449929818,1.00000000066519,0.533757158257682
5300.00000000175,90.7094152343636,1.00000000078598,0.56042199147568
5400.00000000211,90.6892089224318,1.00000000077124,0.553565303216431
5500.00000000248,90.4945604345922,1.00000000056998,0.516146912161377
5600.00000000284,90.1280376133796,1.00000000068147,0.546043476716629
5700.00000000321,89.6973298530033,1.00000000087187,0.570786178863038
5800.00000000357,89.1982829585069,1.00000000065549,0.523874696334921
5900.00000000393,88.5454697502473,1.00000000050509,0.496156055310977
6000.0000000043,87.8027088597794,1.00000000083003,0.558063030681473
6100.00000000466,87.0746527208754,1.00000000095228,0.572057702669448
6200.00000000502,86.3226009046622,1.00000000063106,0.50813119579208
6300.00000000539,85.4560258411907,1.00000000043672,0.468641141620821
6400.00000000575,84.5241972844296,1.00000000081413,0.538964625551229
6500.00000000612,83.6273839285597,1.00000000103625,0.578678342414022
6600.00000000648,82.7700819226813,1.00000000078566,0.534527583420644
6700.00000000684,81.8668299315099,1.00000000046569,0.451704251739115
6800.00000000721,80.890037568576,1.00000000051787,0.460745151021328
6900.00000000757,79.9048410666238,1.00000000093314,0.545191610196826
7000.00000000793,78.9728155790236,1.00000000108804,0.572766707017124
7100.0000000083,78.0854934785962,1.00000000088752,0.53120490904727
7200.00000000866,77.1854363173002,1.0000000005394,0.447584192723244
7300.00000000903,76.2446491967511,1.00000000045795,0.425859952595423
7400.00000000939,75.2899988871541,1.00000000075231,0.493733549016509
7500.00000000975,74.3620442549024,1.00000000098853,0.553393397857502
7600.00000001012,73.4795109998717,1.00000000102029,0.556111978337145
7700.00000001048,72.6276608238651,1.00000000077961,0.513291759258165
7800.00000001084,71.7761057823526,1.0000000005544,0.449960294768723
7900.00000001121,70.9154705760541,1.00000000048644,0.426178747120373
8000.00000001157,70.0544232889322,1.00000000062229,0.46111056871522
8100.00000001194,69.2069879861372,1.00000000088759,0.516476441491026
8200.0000000123,68.3846707830378,1.00000000099937,0.542145378144408
8300.00000001266,67.5901496142223,1.00000000094925,0.538702808794907
8400.00000001303,66.8154418057613,1.00000000074959,0.502916224629895
8500.00000001339,66.0514833368406,1.00000000056415,0.460530843776153
8600.00000001376,65.2991524578645,1.00000000055334,0.443323197287065
8700.00000001412,64.5622585593427,1.00000000063556,0.461441284503887
8800.00000001448,63.841333601817,1.00000000072087,0.482127426748809
8900.00000001485,63.1357381501758,1.00000000077154,0.506863508517123
9000.00000001521,62.4441392516295,1.00000000088303,0.524872083760721
9100.00000001557,61.7663460430877,1.00000000092859,0.534535353205621
9200.00000001594,61.1025591762466,1.00000000080745,0.524155395173569
9300.0000000163,60.4557738052462,1.00000000061238,0.482690907991168
9400.00000001667,59.8308145539304,1.0000000005872,0.457533623569282
9500.00000001703,59.2288506497092,1.00000000062503,0.462990472957864
9600.00000001739,58.6452356062665,1.00000000077646,0.482365676513871
9700.00000001776,58.0773387632753,1.00000000072111,0.495785348139054
9800.00000001812,57.526421748848,1.00000000063636,0.48715982208616
9900.00000001848,56.9922292983838,1.00000000069081,0.499230015503829
10000.0000000188,56.4682109101297,1.00000000084931,0.517903246592604
10100.0000000192,55.9447382403212,1.0000000009775,0.534318713011405
10200.0000000196,55.4231427907122,1.00000000086708,0.533045335895914
10300.0000000199,54.914352723643,1.00000000070529,0.502271791831181
10400.0000000203,54.4319488449558,1.00000000056644,0.467028946162453
10500.0000000207,53.9783100608346,1.00000000061718,0.459037549934497
10600.000000021,53.5454069934912,1.00000000079194,0.475765935664896
10700.0000000214,53.121833855992,1.00000000085148,0.489102230927679
10800.0000000218,52.7042802795096,1.00000000079604,0.503423987950238
10900.0000000221,52.2982229944588,1.00000000068704,0.497543176574225
11000.0000000225,51.9113666677941,1.0000000006438,0.487816394485509
11100.0000000229,51.5404907802871,1.00000000071517,0.501676148742142
11200.0000000232,51.1744280618089,1.00000000083589,0.519530516297342
11300.0000000236,50.803970413808,1.00000000097036,0.533663566038717
11400.0000000239,50.4257720222778,1.00000000089435,0.538423022920834
11500.0000000243,50.0481599691614,1.00000000080843,0.528750078712394
11600.0000000247,49.6846230774604,1.00000000071024,0.505200749840867
11700.000000025,49.3462139767131,1.00000000057658,0.479235334106295
11800.0000000254,49.0359310872339,1.00000000061658,0.473814799685399
11900.0000000258,48.7484794163932,1.00000000067545,0.478024754878437
12000.0000000261,48.4750005529802,1.00000000074002,0.49190965517282
12100.0000000265,48.2060320616963,1.00000000078506,0.497977543010693
12200.0000000269,47.9407930288627,1.00000000075262,0.497713762093645
12300.0000000272,47.6816471626775,1.00000000076291,0.512614497470893
12400.0000000276,47.4280607487117,1.00000000069836,0.519779868890992
12500.0000000279,47.1817937735451,1.00000000073225,0.527733522531499
12600.0000000283,46.9403946353772,1.00000000070092,0.533488923654411
12700.0000000287,46.7032512649158,1.00000000070506,0.532489640706014
12800.000000029,46.4686259593677,1.0000000007392,0.525200726588228
12900.0000000294,46.2342753117393,1.00000000080507,0.528985255099381
13000.0000000298,45.9938615904571,1.00000000093165,0.538489569631184
13100.0000000301,45.746230038124,1.00000000084336,0.546757852741873
13200.0000000305,45.5029821316785,1.00000000074873,0.532473708095589
13300.0000000309,45.2797137228751,1.00000000057958,0.508927913657364
13400.0000000312,45.0829069672479,1.00000000059602,0.488987654216615
13500.0000000316,44.9089035008184,1.00000000066108,0.488998407096162
13600.0000000319,44.7477684499387,1.00000000081574,0.5043245036903
13700.0000000323,44.5937690548093,1.000000000727,0.500374873475016
13800.0000000327,44.4473537214735,1.00000000074489,0.499206125212403
13900.000000033,44.3094915499504,1.00000000072898,0.505881319005924
14000.0000000334,44.1821311436273,1.00000000066676,0.5056764553225
14100.0000000338,44.0665833050377,1.00000000071098,0.506090404422149
14200.0000000341,43.9534468245994,1.00000000080966,0.522992380577177
14300.0000000345,43.8319897610046,1.00000000092113,0.540447200546106
14400.0000000349,43.6965165705947,1.00000000087632,0.551790191226473
14500.0000000352,43.5487816198142,1.00000000078965,0.555740659295433
14600.0000000356,43.3959744984993,1.00000000071914,0.557854199182089
14700.0000000359,43.2456325725133,1.00000000066237,0.54832312024696
14800.0000000363,43.1030402000783,1.00000000064682,0.53861140269201
14900.0000000367,42.96772310958,1.00000000074337,0.534232353360151
15000.000000037,42.8328384841899,1.00000000081255,0.529017433606558
15100.0000000374,42.6936614807439,1.00000000088516,0.53816291572867
15200.0000000378,42.5474880863458,1.00000000086437,0.546752196564545
15300.0000000381,42.3959665890064,1.00000000081719,0.550201096581876
15400.0000000385,42.2480986771941,1.00000000073713,0.543990785206415
15500.0000000389,42.1152298628245,1.0000000006766,0.532422010228401
15600.0000000392,42.0040924925449,1.00000000065028,0.517844419353696
15700.0000000396,41.9144851686211,1.00000000067768,0.50684375348341
15800.0000000399,41.8420045740972,1.00000000066964,0.506304594280121
15900.0000000403,41.7801529689182,1.00000000069799,0.503970585718712
16000.0000000407,41.7189639716357,1.00000000077322,0.508548481927414
16100.000000041,41.6599107868226,1.00000000074629,0.5055305730842
16200.0000000414,41.608652203145,1.00000000069636,0.504913187762052
16300.0000000418,41.5667542792571,1.00000000066659,0.511062471884882
16400.0000000418,41.5294864049765,1.00000000076157,0.525166796486074
16500.0000000404,41.4911469116535,1.00000000079073,0.539554367981164
16600.0000000389,41.4528287683947,1.00000000073604,0.542093580504397
16700.0000000375,41.4154972339763,1.00000000074038,0.545247642777995
16800.000000036,41.3810144383343,1.0000000007221,0.548760635676267
16900.0000000346,41.3455670444294,1.00000000074473,0.545079789943744
17000.0000000331,41.3044820065799,1.0000000007944,0.55075273290142
17100.0000000317,41.2530621932297,1.00000000081196,0.554358009373819
17200.0000000302,41.187201611045,1.00000000084577,0.548302626388179
17300.0000000287,41.1058004080345,1.0000000008754,0.549963296532255
17400.0000000273,41.0127623776066,1.00000000084902,0.562738567518531
17500.0000000258,40.9131311658342,1.00000000077469,0.56573026662807
17600.0000000244,40.8119251342291,1.00000000063991,0.556168215292847
17700.0000000229,40.715026011435,1.0000000006972,0.549032648926051
17800.0000000215,40.6259067736892,1.0000000006657,0.540729321449141
17900.00000002,40.5429400675754,1.00000000071675,0.533588903005593
18000.0000000186,40.4629905311716,1.00000000078115,0.531196632169365
18100.0000000171,40.3822412834828,1.0000000008072,0.536361360726713
18200.0000000156,40.2976973842542,1.00000000087622,0.549762110751802
18300.0000000142,40.2078881331347,1.00000000087633,0.558641505635374
18400.0000000127,40.1155138850701,1.00000000077055,0.560403999520165
18500.0000000113,40.0288786124913,1.0000000006897,0.555576229593932
18600.0000000098,39.9561333204271,1.00000000068036,0.544834203207718
18700.0000000084,39.9007948604515,1.00000000065438,0.537633419370313
18800.0000000069,39.8641683522022,1.00000000069915,0.528630514628469
18900.0000000055,39.8436167215092,1.00000000069387,0.518794888347052
19000.000000004,39.8316730259017,1.00000000077662,0.518946019432563
19100.0000000026,39.8235365415952,1.00000000078265,0.523108540812509
19200.0000000011,39.8206187926759,1.00000000073053,0.520724152341907
19299.9999999996,39.8240214190851,1.00000000068371,0.512502119223792
19399.9999999982,39.8333755989126,1.00000000072501,0.510104541267251
19499.9999999967,39.8465428651701,1.00000000073866,0.512365391766937
19599.9999999953,39.8643292728789,1.00000000071778,0.512353484935262
19699.9999999938,39.8867770304766,1.00000000067468,0.509912273213718
19799.9999999924,39.9129104134001,1.00000000072986,0.521244157057922
19899.9999999909,39.9383793098895,1.00000000078955,0.540016188042389
19999.9999999895,39.9573538306584,1.00000000084417,0.553478102191308
20099.999999988,39.9680047014802,1.0000000008072,0.558250738262961
20199.9999999865,39.9726044911536,1.00000000081321,0.565863302996444
20299.9999999851,39.9760454764084,1.00000000070088,0.567834155570785
20399.9999999836,39.9816555392185,1.00000000076807,0.568430539000157
20499.9999999822,39.9864512272129,1.0000000008106,0.573842217007572
20599.9999999807,39.9860910963679,1.00000000076599,0.584417171487555
20699.9999999793,39.9795803160563,1.00000000076864,0.593051786443355
20799.9999999778,39.9692026743261,1.00000000075575,0.595874496124306
20899.9999999764,39.9534223954655,1.00000000078081,0.596048657373944
20999.9999999749,39.9305327925139,1.00000000076932,0.592330923951561
21099.9999999734,39.9019247338468,1.00000000075967,0.591059917002995
21199.999999972,39.8672948746263,1.00000000078542,0.585971357407599
21299.9999999705,39.8244059857568,1.00000000082192,0.577886173176663
21399.9999999691,39.7724249263932,1.0000000008436,0.572450753097682
21499.9999999676,39.7107547996703,1.00000000085418,0.576994738203436
21599.9999999662,39.6381998409729,1.00000000085443,0.588726144996573
21699.9999999647,39.5581173486781,1.00000000081867,0.594400904559331
21799.9999999633,39.4739665638291,1.00000000076317,0.592811513360326
21899.9999999618,39.3901265422141,1.00000000069839,0.59089416825098
21999.9999999603,39.3089360110024,1.00000000072244,0.590296008742987
22099.9999999589,39.2322274048063,1.0000000006834,0.590298722917232
22199.9999999574,39.1602279191121,1.00000000070892,0.592023828176439
22299.999999956,39.0923670042664,1.00000000073185,0.588533871048847
22399.9999999545,39.0277491632419,1.00000000071998,0.583169033578472
22499.9999999531,38.965368507657,1.0000000007833,0.587057728760763
22599.9999999516,38.9046122804428,1.0000000007981,0.587700178552162
22699.9999999502,38.8438225741235,1.00000000086004,0.586985470428609
22799.9999999487,38.7819080619852,1.0000000008169,0.579421540040838
22899.9999999473,38.7180015364545,1.00000000085744,0.579415594339252
22999.9999999458,38.6536404902773,1.00000000084254,0.578399190834502
23099.9999999443,38.5931025264281,1.00000000078675,0.576297864134702
23199.9999999429,38.5409495525341,1.00000000072134,0.571216544242139
23299.9999999414,38.5020241540476,1.00000000065895,0.566814112648339
23399.99999994,38.4787832238535,1.00000000065517,0.558670737742543
23499.9999999385,38.4694816135475,1.00000000069631,0.55523601837399
23599.9999999371,38.4725422916685,1.00000000072709,0.554218707365217
23699.9999999356,38.4839878108346,1.00000000074652,0.547788638675153
23799.9999999342,38.5005681300654,1.00000000077893,0.545068749481063
23899.9999999327,38.5217731176935,1.00000000075998,0.540747395178873
23999.9999999312,38.5482947506907,1.00000000072322,0.539074473606116
24099.9999999298,38.5805855449863,1.00000000072497,0.538999257845823
24199.9999999283,38.6168166119151,1.00000000076391,0.540314847651782
24299.9999999269,38.6568124880981,1.00000000075166,0.540729388119052
24399.9999999254,38.7015341428005,1.00000000073173,0.538592774215593
24499.999999924,38.7501908868619,1.00000000076061,0.53563468550703
24599.9999999225,38.8021687945568,1.00000000074818,0.540421621123527
24699.9999999211,38.8551771603162,1.00000000079644,0.547274900441112
24799.9999999196,38.9051637287551,1.00000000079734,0.558919743072929
24899.9999999181,38.9488126971288,1.00000000081897,0.570018915957066
24999.9999999167,38.9879764085643,1.00000000081228,0.577900920436796
25099.9999999152,39.0219084254286,1.00000000078657,0.583666596235524
25199.9999999138,39.0511196272683,1.00000000079961,0.587482390952699
25299.9999999123,39.0757798756621,1.00000000080009,0.59299045030878
25399.9999999109,39.0982282139423,1.00000000076759,0.592403295602233
25499.9999999094,39.118794412673,1.00000000077246,0.593766371622274
25599.999999908,39.1395996496475,1.00000000076623,0.594244918406727
25699.9999999065,39.1601388220678,1.00000000077745,0.597392272315539
25799.9999999051,39.1775235946351,1.00000000081451,0.603378898564885
25899.9999999036,39.1914348783343,1.00000000084512,0.599351673604371
25999.9999999021,39.202003238142,1.00000000079695,0.598843870326762
26099.9999999007,39.2066654579637,1.00000000081147,0.592423059070669
26199.9999998992,39.2052674030426,1.0000000008202,0.598890686554468
26299.9999998978,39.200128237791,1.00000000080642,0.609219993088425
26399.9999998963,39.1923539815364,1.00000000076953,0.606109204574503
26499.9999998949,39.185048119092,1.00000000073736,0.605161627124415
26599.9999998934,39.1772212646542,1.00000000075255,0.604760880703222
26699.999999892,39.166407505743,1.00000000080597,0.609921716212307
26799.9999998905,39.1526678702509,1.00000000077304,0.606679649701645
26899.999999889,39.136636987997,1.00000000077565,0.598289073633522
26999.9999998876,39.1181037375348,1.00000000081853,0.596007476727275
27099.9999998861,39.0965376258761,1.00000000079447,0.593396348818179
27199.9999998847,39.0716627812221,1.00000000080764,0.597389151671588
27299.9999998832,39.0425105529736,1.00000000081629,0.602812722567426
27399.9999998818,39.0080116439677,1.00000000081665,0.604040892356378
27499.9999998803,38.9708503552997,1.00000000082195,0.604991561526168
27599.9999998789,38.9324785448672,1.00000000077612,0.60635885153147
27699.9999998774,38.8934009196814,1.00000000076457,0.606911403498994
27799.9999998759,38.8534190700592,1.00000000078089,0.610235208520981
27899.9999998745,38.8113448492199,1.00000000077692,0.614909362580583
27999.999999873,38.766049179315,1.0000000007995,0.612985403078036
28099.9999998716,38.7189750277673,1.00000000072364,0.605551121829498
28199.9999998701,38.6709491269068,1.00000000077762,0.602850085460779
28299.9999998687,38.621279991617,1.00000000081062,0.603334336750468
28399.9999998672,38.5688240780589,1.00000000078218,0.605225610795641
28499.9999998658,38.5135781494076,1.00000000083957,0.60935006408925
28599.9999998643,38.4545726627197,1.00000000079834,0.608047373858226
28699.9999998629,38.3911038788248,1.00000000083703,0.609701327236921
28799.9999998614,38.322309456416,1.00000000083249,0.610620364836315
28899.9999998599,38.2488281936884,1.00000000084903,0.617408484660032
28999.9999998585,38.172136929602,1.00000000083236,0.622313271255814
