Time,AGPnorm,Energy,Entropy
0,0,1,-1.263351327442e-17
99.9999999999986,3.35415240966825e-05,1.00000000000369,0.00134358665205168
199.999999999993,0.00266683501345621,1.00000000000271,0.0020424704743495
300,0.00686903340982347,1.00000000000061,0.00371314270881915
400.000000000022,0.00943632746146182,1.00000000000484,0.00623673230485447
500.000000000045,0.0115834442961309,1.00000000000037,0.00831253411398511
600.000000000068,0.0167135176348594,1.00000000000298,0.0116980550643581
700.000000000091,0.0206809750680094,1.00000000000341,0.0147478827893154
800.000000000113,0.0265657542216572,1.00000000000027,0.0182980489425751
900.000000000136,0.0328172924701607,1.00000000000468,0.0224530216566984
1000.00000000016,0.0382501504688915,1.00000000000092,0.02623664141373
1100.0000000001,0.0457714083105486,1.00000000000229,0.0309764604574969
1200,0.0533937534714935,1.00000000000395,0.0355437477483509
1299.99999999991,0.061670024781896,1.00000000000014,0.0404424859838555
1399.99999999982,0.0703516038865858,1.00000000000431,0.0459211404776997
1499.99999999973,0.0787101079018453,1.00000000000158,0.0510832140409679
1599.99999999964,0.0881113195190954,1.00000000000168,0.05710277525969
1699.99999999955,0.0978256388197526,1.00000000000429,0.0631156866359762
1799.99999999946,0.107854242903078,1.00000000000024,0.0693508346440731
1899.99999999937,0.11827306443332,1.00000000000379,0.0762757288004559
1999.99999999928,0.128741990224681,1.00000000000222,0.0829841202428638
2099.99999999919,0.139349802129058,1.00000000000118,0.0905386422506399
2199.99999999909,0.150152948025826,1.00000000000444,0.0983303997530549
2299.999999999,0.161150662207695,1.0000000000006,0.106345205131992
2399.99999999891,0.172286170989112,1.00000000000324,0.115330462057528
2499.99999999882,0.183621733690718,1.00000000000281,0.124368741061391
2599.99999999873,0.19472933211684,1.00000000000094,0.134429177125591
2699.99999999864,0.205953989668487,1.00000000000468,0.145330435479824
2799.99999999855,0.217204736195278,1.0000000000023,0.156829486712538
2899.99999999846,0.228474681232632,1.00000000000585,0.170095545791472
2999.99999999837,0.23899461913203,1.00000000001178,0.184244522200267
3099.99999999828,0.250582338671924,1.00000000001934,0.199845519683453
3199.99999999819,0.262299712664152,1.00000000003947,0.216790287418146
3299.99999999809,0.272103049524793,1.00000000006246,0.233780945642709
3399.999999998,0.290462367629282,1.00000000009863,0.251620359244515
3499.99999999791,0.303615667141955,1.00000000014437,0.268938117415474
3599.99999999782,0.331939476205238,1.00000000018904,0.286008381910899
3699.99999999773,0.376255069506711,1.00000000022807,0.303288070378504
3799.99999999764,0.428147314460889,1.00000000030264,0.319329056766848
3899.99999999755,0.532579049106665,1.00000000033973,0.335530755115819
3999.99999999746,0.660144210039594,1.00000000039411,0.350936505450172
4099.99999999738,0.854273988099944,1.00000000046978,0.365505702100251
4199.99999999775,1.12987316340829,1.00000000050619,0.380199658882835
4299.99999999811,1.46923734449991,1.0000000005376,0.393713760768814
4399.99999999848,1.94571158593689,1.00000000058966,0.406856262608473
4499.99999999884,2.52238153465421,1.00000000066143,0.419451989186873
4599.9999999992,3.2456296020176,1.00000000067952,0.431205773099633
4699.99999999957,4.14070885219038,1.00000000072722,0.442781230072156
4799.99999999993,5.1773884845104,1.00000000076594,0.453213302221657
4900.00000000029,6.43307083188447,1.00000000081186,0.463263294506407
5000.00000000066,7.86410141794149,1.00000000084844,0.47307864419197
5100.00000000102,9.5054417705347,1.00000000083918,0.481934629142847
5200.00000000139,11.3807990548847,1.00000000089347,0.490544939466757
5300.00000000175,13.445945798425,1.000000000896,0.498420334767237
5400.00000000211,15.7691360948293,1.00000000088207,0.505831355783704
5500.00000000248,18.2991459033373,1.00000000092052,0.512957897397597
5600.00000000284,21.0562244623759,1.00000000093419,0.519063361630117
5700.00000000321,24.0581899082689,1.00000000092693,0.52537286913634
5800.00000000357,27.2464009160623,1.00000000095186,0.531108674224517
5900.00000000393,30.6809021650022,1.00000000096946,0.536111427387011
6000.0000000043,34.3047787979646,1.00000000098973,0.541199168317477
6100.00000000466,38.1233023947016,1.00000000095842,0.545469033193838
6200.00000000502,42.1536673273177,1.00000000095488,0.54979189074675
6300.00000000539,46.3246909034538,1.00000000095,0.553808235773718
6400.00000000575,50.6911152525307,1.00000000096731,0.557015277961753
6500.00000000612,55.197456868582,1.00000000097678,0.560625919576908
6600.00000000648,59.8326510012989,1.00000000094803,0.563642525149772
6700.00000000684,64.6206305459763,1.00000000095418,0.566315557023776
6800.00000000721,69.4835872716571,1.00000000096562,0.569071432952359
6900.00000000757,74.469275793965,1.00000000094378,0.571024070166801
7000.00000000793,79.5320877137278,1.00000000094394,0.573513532465569
7100.0000000083,84.6460928723461,1.0000000009516,0.575186736348599
7200.00000000866,89.8446972451466,1.00000000096247,0.576622089344208
7300.00000000903,95.0510063969673,1.00000000091331,0.578778467944284
7400.00000000939,100.302022712434,1.00000000093444,0.57952410853034
7500.00000000975,105.568808017063,1.00000000089928,0.581155289155549
7600.00000001012,110.814036130856,1.00000000091872,0.582265486437959
7700.00000001048,116.076898336117,1.00000000090029,0.582986301978768
7800.00000001084,121.289529289126,1.00000000088435,0.584101620319325
7900.00000001121,126.477246818605,1.00000000086331,0.584490875656132
8000.00000001157,131.627822294035,1.00000000086194,0.585011081586726
8100.00000001194,136.698401734524,1.00000000084143,0.586096535181
8200.0000000123,141.729057090486,1.00000000084145,0.585845221860447
8300.00000001266,146.666496309068,1.00000000082692,0.58657810660669
8400.00000001303,151.523421210631,1.00000000084613,0.586451771119721
8500.00000001339,156.303422376636,1.00000000082269,0.586575747164243
8600.00000001376,160.961473618281,1.00000000081133,0.587021090897605
8700.00000001412,165.537188362736,1.00000000080756,0.586433779718289
8800.00000001448,169.989063209909,1.00000000077274,0.586678644929746
8900.00000001485,174.323906783987,1.00000000076285,0.58704684388494
9000.00000001521,178.550517844073,1.00000000076385,0.585624545815097
9100.00000001557,182.631556231619,1.00000000078196,0.58699784171961
9200.00000001594,186.599335077296,1.00000000074096,0.585064569336905
9300.0000000163,190.426586416206,1.00000000075191,0.586028897103908
9400.00000001667,194.115664627689,1.00000000072981,0.585294444939234
9500.00000001703,197.677713403763,1.00000000072456,0.584586517682602
9600.00000001739,201.084081023794,1.00000000071516,0.58530941601851
9700.00000001776,204.358760518817,1.00000000068522,0.583954553473828
9800.00000001812,207.488136701322,1.00000000068433,0.584277814668238
9900.00000001848,210.46695748746,1.00000000067106,0.583679251039092
10000.0000000188,213.313898009795,1.00000000065923,0.583164310338437
10100.0000000192,216.002170357624,1.00000000068397,0.582248966242512
10200.0000000196,218.554370379445,1.00000000065315,0.582460785729127
10300.0000000199,220.964879991311,1.00000000065258,0.581167056214968
10400.0000000203,223.224015034084,1.00000000066442,0.581217007663986
10500.0000000207,225.35475638467,1.00000000064111,0.581293109940926
10600.000000021,227.334964612374,1.00000000062266,0.57988007866649
10700.0000000214,229.180285647457,1.00000000062577,0.58054989841505
10800.0000000218,230.893839081978,1.00000000062368,0.580494857364907
10900.0000000221,232.464282134786,1.00000000059671,0.57857706058114
11000.0000000225,233.910252937928,1.00000000060258,0.579615028076473
11100.0000000229,235.220835510063,1.00000000059695,0.579481760670948
11200.0000000232,236.40584379511,1.00000000057149,0.578034258249838
11300.0000000236,237.468483144588,1.00000000057584,0.577987457008074
11400.0000000239,238.402856060986,1.00000000055422,0.578097728477362
11500.0000000243,239.224675144671,1.00000000055732,0.578487076467759
11600.0000000247,239.927098414003,1.0000000005697,0.577713195501506
11700.000000025,240.517867085482,1.00000000053083,0.575046481818936
11800.0000000254,240.999508737473,1.00000000054134,0.57751592005669
11900.0000000258,241.373861466603,1.00000000056,0.57956404274876
12000.0000000261,241.655654122471,1.00000000050778,0.574644323103004
12100.0000000265,241.831160900873,1.00000000051968,0.571663166208737
12200.0000000269,241.911149160377,1.00000000054816,0.578037440748011
12300.0000000272,241.912154309947,1.00000000054859,0.578331459030212
12400.0000000276,241.826868699262,1.00000000050064,0.572116711557889
12500.0000000279,241.657549328481,1.00000000047617,0.567437812229267
12600.0000000283,241.404156137978,1.0000000005369,0.574882218916766
12700.0000000287,241.088006303134,1.0000000005577,0.579518919306082
12800.000000029,240.715642751102,1.00000000054594,0.570173325950118
12900.0000000294,240.267873219652,1.00000000047486,0.560452183519903
13000.0000000298,239.74958919556,1.00000000049802,0.567242284408049
13100.0000000301,239.180987729664,1.00000000060254,0.581065406127336
13200.0000000305,238.575913194312,1.00000000056152,0.573039492222965
13300.0000000309,237.923844669991,1.00000000047293,0.55769964875235
13400.0000000312,237.204835474322,1.00000000047531,0.553545401702892
13500.0000000316,236.440519089044,1.00000000057521,0.573714213104782
13600.0000000319,235.653492583245,1.00000000060712,0.580534348739449
13700.0000000323,234.845107539467,1.00000000055323,0.564646522482393
13800.0000000327,233.996945447896,1.00000000045394,0.547719513990064
13900.000000033,233.095170973046,1.00000000045712,0.547913026505624
14000.0000000334,232.165888996297,1.00000000057694,0.574569583951736
14100.0000000338,231.231285057966,1.00000000067294,0.582023508408981
14200.0000000341,230.288906313248,1.00000000054266,0.558077425519493
14300.0000000345,229.317602857169,1.00000000045896,0.540870727876047
14400.0000000349,228.302916599853,1.00000000044338,0.537196375183434
14500.0000000352,227.266392029059,1.00000000057786,0.565704706233331
14600.0000000356,226.23272174956,1.00000000071124,0.586258162903821
14700.0000000359,225.206232734924,1.00000000057993,0.560083731438885
14800.0000000363,224.16635647969,1.00000000049765,0.538187668261291
14900.0000000367,223.095145662409,1.00000000042251,0.525894231856809
15000.000000037,221.99935250351,1.00000000050971,0.542685344135403
15100.0000000374,220.9013512214,1.00000000065886,0.578579975316207
15200.0000000378,219.818873973189,1.00000000071395,0.57852926803709
15300.0000000381,218.745067934135,1.00000000056265,0.545064852865101
15400.0000000385,217.656632157753,1.00000000046121,0.524734209120371
15500.0000000389,216.54721081215,1.00000000043975,0.522006234282522
15600.0000000392,215.422484606749,1.00000000053605,0.540372422585467
15700.0000000396,214.302386210262,1.00000000067115,0.577036071762118
15800.0000000399,213.202083948411,1.00000000067947,0.575418339192115
15900.0000000403,212.111289330007,1.00000000057677,0.543218696377577
16000.0000000407,211.017022284116,1.00000000045094,0.519415630849912
16100.000000041,209.908723251877,1.00000000047316,0.51945414316504
16200.0000000414,208.789934764633,1.00000000049424,0.529227589732861
16300.0000000418,207.673680708736,1.00000000061229,0.555545256938196
16400.0000000418,206.5714796068,1.00000000072468,0.57603042039539
16500.0000000404,205.485548018141,1.00000000068883,0.558440545187443
16600.0000000389,204.407039957127,1.0000000005146,0.523593158039019
16700.0000000375,203.324498412145,1.00000000049215,0.514675583823512
16800.000000036,202.237625442802,1.00000000048606,0.52182148027629
16900.0000000346,201.147400065566,1.00000000053794,0.530162103341491
17000.0000000331,200.062949470502,1.00000000058923,0.547709715834988
17100.0000000317,198.991649324973,1.00000000064498,0.563911757883043
17200.0000000302,197.933442757442,1.00000000065652,0.553947531680339
17300.0000000287,196.885183857153,1.0000000005919,0.526847521324308
17400.0000000273,195.839350470007,1.00000000050978,0.513080031539542
17500.0000000258,194.794640734917,1.00000000048855,0.519963806801478
17600.0000000244,193.751441397277,1.00000000052781,0.529102098770308
17700.0000000229,192.71224690983,1.00000000057595,0.532870154418034
17800.0000000215,191.681830898582,1.00000000058902,0.540445449679886
17900.00000002,190.662186333507,1.00000000063583,0.549586855382161
18000.0000000186,189.653148346956,1.00000000062202,0.54325277698895
18100.0000000171,188.653286681589,1.00000000056576,0.525510773327502
18200.0000000156,187.658822778871,1.00000000053221,0.515090728225696
18300.0000000142,186.67004885893,1.00000000051974,0.522499382927277
18400.0000000127,185.686020879031,1.00000000054326,0.529730651662636
18500.0000000113,184.70839210327,1.00000000056648,0.531082842475889
18600.0000000098,183.738248123773,1.00000000056548,0.527543257115364
18700.0000000084,182.7763719075,1.00000000058851,0.532321092356787
18800.0000000069,181.823903692331,1.00000000063058,0.538519983295717
18900.0000000055,180.880835685924,1.00000000059976,0.537385334350479
19000.000000004,179.945762235939,1.00000000059118,0.52690109975934
19100.0000000026,179.018960466763,1.00000000053193,0.520932264703921
19200.0000000011,178.099445779018,1.00000000053956,0.526994840366046
19299.9999999996,177.188022997036,1.00000000051835,0.532652359661533
19399.9999999982,176.283629557452,1.00000000053986,0.529003310988899
19499.9999999967,175.386920688885,1.00000000051371,0.521886896668769
19599.9999999953,174.498638602581,1.00000000057118,0.521462298443807
19699.9999999938,173.618787190465,1.00000000058895,0.529003531736131
19799.9999999924,172.747504950423,1.00000000059883,0.536819849493364
19899.9999999909,171.884781619447,1.00000000057762,0.538420456629952
19999.9999999895,171.030201513922,1.00000000055343,0.532153882830931
20099.999999988,170.184274298968,1.0000000005541,0.530265278565395
20199.9999999865,169.34686410787,1.00000000054008,0.533730608006867
20299.9999999851,168.518488530598,1.00000000053335,0.534799820426125
20399.9999999836,167.698597030367,1.00000000049258,0.525004692175314
20499.9999999822,166.887576453271,1.00000000050413,0.516520657220681
20599.9999999807,166.085484054593,1.0000000005332,0.516945247692323
20699.9999999793,165.292010940838,1.00000000055477,0.522470492822784
20799.9999999778,164.506847126894,1.00000000059624,0.527871183802192
20899.9999999764,163.729565668722,1.00000000060406,0.53871015538339
20999.9999999749,162.959892361521,1.00000000057909,0.541279374100029
21099.9999999734,162.198159259684,1.00000000057788,0.537243868932483
21199.999999972,161.444210185268,1.00000000058257,0.537296421128508
21299.9999999705,160.698386481831,1.00000000059587,0.540719381315885
21399.9999999691,159.961217669265,1.00000000052826,0.534435160805118
21499.9999999676,159.23429235998,1.00000000048147,0.522334373744304
21599.9999999662,158.518245059488,1.00000000045572,0.510876386366011
21699.9999999647,157.812396351894,1.00000000052594,0.508661838522949
21799.9999999633,157.115527505775,1.00000000057245,0.516974795408902
21899.9999999618,156.426486134235,1.0000000005992,0.522329218092406
21999.9999999603,155.744361977924,1.00000000057374,0.5273394423227
22099.9999999589,155.069014651824,1.0000000005731,0.534682475588328
22199.9999999574,154.400141216148,1.00000000056075,0.541993082579552
22299.999999956,153.737744745897,1.00000000057938,0.540748463708194
22399.9999999545,153.081424846775,1.00000000060388,0.542315097690869
22499.9999999531,152.431010390506,1.00000000062742,0.545046700534209
22599.9999999516,151.787744002026,1.0000000005743,0.536515061217405
22699.9999999502,151.154281184021,1.00000000049883,0.52195921574107
22799.9999999487,150.533799042515,1.00000000043757,0.509291475727395
22899.9999999473,149.926217464071,1.00000000046875,0.501684814595047
22999.9999999458,149.329727821285,1.00000000053197,0.503781873810108
23099.9999999443,148.74083989955,1.00000000059169,0.515346171676622
23199.9999999429,148.157720267217,1.0000000005953,0.521261746417108
23299.9999999414,147.579850366414,1.00000000055268,0.519250755057661
23399.99999994,147.007584088062,1.00000000055816,0.523153175604908
23499.9999999385,146.440427233857,1.00000000054531,0.53686227882786
23599.9999999371,145.877300980417,1.00000000058449,0.546329630716155
23699.9999999356,145.317517051959,1.00000000061213,0.54614992594757
23799.9999999342,144.761210065425,1.00000000062618,0.54591317992002
23899.9999999327,144.208874272485,1.00000000060393,0.542750674843427
23999.9999999312,143.663587161902,1.00000000054501,0.528506084366196
24099.9999999298,143.129137362975,1.00000000048253,0.513991571354674
24199.9999999283,142.607763583729,1.00000000044439,0.507958544036042
24299.9999999269,142.100555888898,1.00000000046606,0.504041375794858
24399.9999999254,141.604389968259,1.00000000052605,0.504077023603525
24499.999999924,141.116363020398,1.00000000057818,0.506108376328252
24599.9999999225,140.633774866613,1.00000000060027,0.513039525135839
24699.9999999211,140.155464924369,1.00000000059269,0.515558469918133
24799.9999999196,139.681305187299,1.00000000057623,0.5146490003418
24899.9999999181,139.210850959721,1.00000000058717,0.520389929061164
24999.9999999167,138.74243560313,1.00000000061657,0.533383628486508
25099.9999999152,138.274806138105,1.00000000060704,0.545348112919988
25199.9999999138,137.807624584954,1.00000000062775,0.54846028176722
25299.9999999123,137.342272309036,1.00000000058529,0.544092248006439
25399.9999999109,136.880248503937,1.00000000059444,0.53786562015363
25499.9999999094,136.423470064367,1.00000000057922,0.531225845350861
25599.999999908,135.97463238849,1.00000000051794,0.521387652817676
25699.9999999065,135.536148616252,1.00000000048747,0.512864524659127
25799.9999999051,135.110084497733,1.00000000048291,0.509639305009803
25899.9999999036,134.695696905624,1.00000000050158,0.512646928526399
25999.9999999021,134.29217686877,1.00000000050482,0.508588518867943
26099.9999999007,133.897410285078,1.00000000052915,0.50557107758352
26199.9999998992,133.509761873368,1.00000000057768,0.505910186669674
26299.9999998978,133.127713158841,1.00000000057451,0.512445170540883
26399.9999998963,132.748620020386,1.00000000059061,0.516651666168208
26499.9999998949,132.371702027996,1.00000000056624,0.521096185129471
26599.9999998934,131.996008955108,1.00000000059377,0.524250246542832
26699.999999892,131.619375615527,1.00000000060709,0.532872110658332
26799.9999998905,131.241677656645,1.0000000006149,0.537319541213068
26899.999999889,130.863012989802,1.00000000060049,0.54512120249045
26999.9999998876,130.484942162043,1.00000000057458,0.541458554958486
27099.9999998861,130.109903041147,1.0000000005694,0.53579751398448
27199.9999998847,129.739555095913,1.0000000005548,0.532339503518108
27299.9999998832,129.374951747726,1.00000000056056,0.52955322772693
27399.9999998818,129.016529486337,1.00000000055047,0.525589453490697
27499.9999998803,128.665733553409,1.00000000053079,0.52067933399823
27599.9999998789,128.324539934994,1.00000000051992,0.516557230850186
27699.9999998774,127.99325009726,1.00000000049747,0.515159387899485
27799.9999998759,127.673333669694,1.00000000049405,0.513375600870653
27899.9999998745,127.363280192922,1.00000000052835,0.512620897879105
27999.999999873,127.061539173435,1.00000000053286,0.509414764340596
28099.9999998716,126.76694606491,1.00000000055511,0.513840163789264
28199.9999998701,126.477302694963,1.00000000055421,0.516349507673043
28299.9999998687,126.190619255922,1.00000000056845,0.522427066231926
28399.9999998672,125.904186881304,1.00000000057991,0.530080783503085
28499.9999998658,125.617166590593,1.00000000058923,0.534290365174156
28599.9999998643,125.329062544423,1.00000000060798,0.533247514735341
28699.9999998629,125.039097972835,1.00000000062184,0.537779409663309
28799.9999998614,124.746745782464,1.00000000061472,0.539201273611689
28899.9999998599,124.453430404796,1.00000000060207,0.542045958565979
28999.9999998585,124.161672586212,1.00000000054157,0.538955258784618
