Time,AGPnorm,Energy,Entropy
0,0,1,-7.11847132383454e-17
99.9999999999986,0.000980763369170097,1.00000000000106,0.00329875988003697
199.999999999993,0.00637707078110688,0.999999999998727,0.00979162780935213
300,0.0136445090090854,0.99999999999714,0.0178813357580752
400.000000000022,0.0204006458821057,0.999999999998945,0.0280153469648544
500.000000000045,0.0287557087159104,1.00000000000076,0.0405192381982127
600.000000000068,0.0394054455118203,0.999999999999651,0.054978465025344
700.000000000091,0.0516319623730106,0.999999999997772,0.0707680450881131
800.000000000113,0.0630445066939299,0.999999999998141,0.0882113641220247
900.000000000136,0.0760153269918409,1.00000000000028,0.108282364378118
1000.00000000016,0.0891471078752216,1.00000000000006,0.13143478980768
1100.0000000001,0.103206197416081,1.00000000000004,0.158019788089416
1200,0.116784411905144,1.00000000000707,0.189466185257391
1299.99999999991,0.130378988946411,1.0000000000421,0.227192283941004
1399.99999999982,0.141553152358003,1.00000000012361,0.27052587714313
1499.99999999973,0.166298232126074,1.00000000026138,0.314142101666148
1599.99999999964,0.24851865489455,1.00000000045069,0.35477098492615
1699.99999999955,0.414257096590279,1.00000000061947,0.39074403513442
1799.99999999946,0.708866666958713,1.00000000078082,0.422946132225034
1899.99999999937,1.23876788372612,1.00000000093168,0.450662688316171
1999.99999999928,2.11098779931219,1.00000000107225,0.474071467137832
2099.99999999919,3.35744163357659,1.00000000115103,0.493992779703136
2199.99999999909,4.98746583809529,1.00000000128658,0.511134425270331
2299.999999999,7.05402412312131,1.0000000012934,0.525498007249995
2399.99999999891,9.5852621935782,1.00000000138412,0.536968767335155
2499.99999999882,12.5381856989387,1.00000000141502,0.546389809379163
2599.99999999873,15.848237505884,1.0000000013923,0.554343639966175
2699.99999999864,19.4772681045436,1.0000000013979,0.560574480210122
2799.99999999855,23.3906850021313,1.00000000140172,0.5649667782997
2899.99999999846,27.5083114204488,1.00000000132548,0.568401309141591
2999.99999999837,31.7531657097596,1.0000000013378,0.57053932774458
3099.99999999828,36.0638670555276,1.00000000132369,0.572061462121782
3199.99999999819,40.3906621316732,1.00000000128319,0.57247052902567
3299.99999999809,44.6744378196555,1.00000000123654,0.572672537643889
3399.999999998,48.8552910252661,1.00000000121954,0.57132077779423
3499.99999999791,52.8937909755537,1.00000000116132,0.571637581403337
3599.99999999782,56.7513979570171,1.00000000109408,0.571387376790942
3699.99999999773,60.3990775295525,1.000000001115,0.568278504167647
3799.99999999764,63.810112972407,1.00000000104399,0.565461868588862
3899.99999999755,66.9598469718014,1.00000000108186,0.56692905383524
3999.99999999746,69.8359436090219,1.00000000103038,0.563707444980004
4099.99999999738,72.437820135972,1.00000000097349,0.560156392075001
4199.99999999775,74.7563797172612,1.00000000094979,0.560729065076325
4299.99999999811,76.7836046297282,1.00000000095742,0.55711446887023
4399.99999999848,78.536023394325,1.00000000088122,0.558074778770554
4499.99999999884,80.0158539837291,1.00000000084723,0.552610653034058
4599.9999999992,81.2302336000968,1.00000000085112,0.553897964560558
4699.99999999957,82.19955976887,1.00000000084853,0.555621529380107
4799.99999999993,82.9221427983186,1.00000000078563,0.543500119221383
4900.00000000029,83.4189122016387,1.00000000081992,0.558184701062355
5000.00000000066,83.7371233837329,1.00000000076774,0.551214678616571
5100.00000000102,83.8488722757824,1.00000000063298,0.530339449011185
5200.00000000139,83.7785904443865,1.00000000079256,0.560694984328281
5300.00000000175,83.6086070374526,1.00000000081269,0.556212211006504
5400.00000000211,83.2870027004415,1.00000000059272,0.51521030208603
5500.00000000248,82.8086487378601,1.00000000075424,0.547489188735248
5600.00000000284,82.2907572183285,1.00000000096726,0.573232593131792
5700.00000000321,81.7156889522735,1.00000000067523,0.519863535666959
5800.00000000357,81.001934677994,1.00000000055987,0.498210213741202
5900.00000000393,80.2247996290425,1.00000000096839,0.564657981377753
6000.0000000043,79.4765701752406,1.00000000098235,0.569142244765132
6100.00000000466,78.7003341718593,1.00000000061003,0.493380253052626
6200.00000000502,77.8221543902161,1.00000000050273,0.473401838130893
6300.00000000539,76.9073541902802,1.00000000094793,0.552032456615188
6400.00000000575,76.0419045419523,1.00000000108756,0.574703638532779
6500.00000000612,75.2012872867223,1.00000000072447,0.511812379041915
6600.00000000648,74.3103562967533,1.00000000044095,0.442155652166517
6700.00000000684,73.3664756142129,1.00000000067369,0.483476113576337
6800.00000000721,72.4391159686507,1.00000000112162,0.560331506982981
6900.00000000757,71.5664132492767,1.00000000110069,0.562213848858111
7000.00000000793,70.7204419403639,1.00000000078585,0.501749179031631
7100.0000000083,69.8526335611355,1.00000000051461,0.432547086253344
7200.00000000866,68.9573018298327,1.00000000061523,0.451077206462685
7300.00000000903,68.0680896621235,1.00000000094894,0.52141153833337
7400.00000000939,67.213953771103,1.00000000111484,0.555399997740466
7500.00000000975,66.3977101358171,1.00000000102558,0.53775677447429
7600.00000001012,65.5964478185664,1.00000000071907,0.480014083767703
7700.00000001048,64.7925726058373,1.00000000053294,0.437960173835849
7800.00000001084,63.9886862713614,1.00000000059353,0.452233215459884
7900.00000001121,63.1942192374662,1.00000000080297,0.489582464616484
8000.00000001157,62.4181021509707,1.00000000099497,0.530873858014213
8100.00000001194,61.6658717149684,1.00000000102845,0.54054990765437
8200.0000000123,60.9354837255511,1.00000000084916,0.51943604995498
8300.00000001266,60.2193232081457,1.00000000063913,0.474287363960491
8400.00000001303,59.5165616568888,1.00000000061538,0.456193136904119
8500.00000001339,58.8305332817265,1.00000000070816,0.463325082873706
8600.00000001376,58.1600920937345,1.00000000073086,0.485105952339782
8700.00000001412,57.5054818553774,1.00000000076763,0.495344955155853
8800.00000001448,56.86576214775,1.00000000086088,0.514828528841516
8900.00000001485,56.2380400731556,1.00000000098927,0.530642976301425
9000.00000001521,55.6214810880535,1.00000000091794,0.529606065158392
9100.00000001557,55.0205588923338,1.00000000071767,0.493599964225284
9200.00000001594,54.441620052334,1.00000000059136,0.459647879618453
9300.0000000163,53.8861419052483,1.00000000068901,0.468959789283735
9400.00000001667,53.3482106768913,1.00000000086569,0.485395120232254
9500.00000001703,52.8232735236901,1.00000000081384,0.504030144165163
9600.00000001739,52.3143403358101,1.00000000068867,0.486472169498418
9700.00000001776,51.8239344799127,1.00000000072301,0.492471157668462
9800.00000001812,51.3447459495474,1.00000000087863,0.513971244756977
9900.00000001848,50.8659275613048,1.00000000104258,0.534249644857635
10000.0000000188,50.3877507294892,1.00000000095893,0.531702934010198
10100.0000000192,49.9212534365873,1.00000000071914,0.502190217311838
10200.0000000196,49.4799165220284,1.00000000063344,0.47143320821161
10300.0000000199,49.0660766243158,1.0000000006135,0.465733074146608
10400.0000000203,48.6713266663849,1.00000000087176,0.482366256019251
10500.0000000207,48.2840234198955,1.00000000096324,0.494544571331422
10600.000000021,47.9005157146971,1.00000000079139,0.506500814712957
10700.0000000214,47.5279228784351,1.00000000070454,0.501334378305735
10800.0000000218,47.1745200657352,1.00000000064916,0.489159729091423
10900.0000000221,46.8351911052134,1.00000000075585,0.504535378621811
11000.0000000225,46.4996622040616,1.00000000088393,0.523937387071607
11100.0000000229,46.1608876938295,1.00000000100183,0.534442119326994
11200.0000000232,45.8164774429572,1.00000000093708,0.533992079934798
11300.0000000236,45.4742683767226,1.00000000083401,0.522031788003819
11400.0000000239,45.1482644979249,1.00000000068598,0.499120010186913
11500.0000000243,44.8478746876745,1.00000000062656,0.479488219101251
11600.0000000247,44.5710368988022,1.00000000068186,0.483755185008141
11700.000000025,44.3113679097118,1.00000000076046,0.488079127642767
11800.0000000254,44.0624595740263,1.00000000085119,0.499714769753282
11900.0000000258,43.8183734412244,1.00000000085164,0.502013467884609
12000.0000000261,43.5795458782464,1.00000000080369,0.499674975645485
12100.0000000265,43.3449251888371,1.0000000007994,0.520547880956492
12200.0000000269,43.1138381283149,1.00000000075849,0.523967167007321
12300.0000000272,42.8872971612208,1.00000000078767,0.531268989331521
12400.0000000276,42.6654187493665,1.00000000076545,0.530311596517212
12500.0000000279,42.447433113413,1.00000000078708,0.52891519092617
12600.0000000283,42.2328692860356,1.00000000082944,0.523859925530505
12700.0000000287,42.0179006050252,1.0000000008952,0.532371156986976
12800.000000029,41.7969627724019,1.00000000092868,0.54083108895029
12900.0000000294,41.5737915549432,1.00000000086208,0.536561894749074
13000.0000000298,41.3620500106151,1.00000000067071,0.517405302737414
13100.0000000301,41.1735546371556,1.00000000066446,0.501341780842211
13200.0000000305,41.0092805293453,1.00000000067841,0.486160486342482
13300.0000000309,40.860077277579,1.00000000080866,0.499982692101968
13400.0000000312,40.7145150577776,1.00000000084483,0.510531038272667
13500.0000000316,40.5729218096667,1.00000000082228,0.501858689257161
13600.0000000319,40.4410679755152,1.00000000075482,0.499896464964909
13700.0000000323,40.3206191711807,1.00000000071135,0.509517885334223
13800.0000000327,40.212102244061,1.00000000072821,0.510463211348974
13900.000000033,40.1085028212282,1.00000000080346,0.519033024771828
14000.0000000334,39.9983554521584,1.00000000089627,0.533445437832665
14100.0000000338,39.8749659309319,1.00000000092698,0.548434053924057
14200.0000000341,39.739510733499,1.00000000088976,0.55538971812008
14300.0000000345,39.5976134812761,1.00000000078665,0.556352571334433
14400.0000000349,39.4554852938921,1.00000000075779,0.554016623262665
14500.0000000352,39.3193963902538,1.00000000072932,0.547785392448596
14600.0000000356,39.1896435348849,1.00000000077377,0.543208252696034
14700.0000000359,39.0628723274852,1.00000000086804,0.536966180919581
14800.0000000363,38.9348352652949,1.00000000089817,0.537098938907516
14900.0000000367,38.8028116621894,1.00000000090031,0.543131651186395
15000.000000037,38.6665719130954,1.00000000086812,0.546506224544434
15100.0000000374,38.5339347207497,1.00000000077873,0.542446538895691
15200.0000000378,38.4154697530766,1.00000000068324,0.533158794489216
15300.0000000381,38.3162799198285,1.00000000066618,0.517096950971038
15400.0000000385,38.2347289212144,1.00000000074005,0.513335670420658
15500.0000000389,38.1676263744591,1.00000000076923,0.516035812482465
15600.0000000392,38.1102990556179,1.00000000080008,0.513253550214189
15700.0000000396,38.0550493144992,1.00000000087738,0.51436974204726
15800.0000000399,38.000300988694,1.00000000079845,0.511990998766678
15900.0000000403,37.9525136724937,1.0000000007394,0.51279007043954
16000.0000000407,37.9135685457165,1.00000000077217,0.521376964369013
16100.000000041,37.8791005259013,1.0000000008168,0.535434073950981
16200.0000000414,37.8436275518889,1.00000000085193,0.549461214531257
16300.0000000418,37.8069956684511,1.0000000008099,0.555600867598351
16400.0000000418,37.7718529178146,1.00000000079767,0.557490984244401
16500.0000000404,37.7383583554374,1.00000000071965,0.554263868155222
16600.0000000389,37.7044632091324,1.0000000007593,0.55005534946948
16700.0000000375,37.6646988619665,1.00000000088528,0.555824164673376
16800.000000036,37.6134622629084,1.00000000086124,0.561580091106828
16900.0000000346,37.5480608956906,1.00000000092018,0.559997688648029
17000.0000000331,37.4699601097143,1.00000000096506,0.565027781950089
17100.0000000317,37.380782021422,1.00000000086474,0.573146056227599
17200.0000000302,37.2842864170921,1.00000000075623,0.577821094177127
17300.0000000287,37.1875611064006,1.0000000007619,0.574696692712427
17400.0000000273,37.0969712747885,1.00000000071031,0.564864947029452
17500.0000000258,37.0142354474569,1.0000000007512,0.556850668400791
17600.0000000244,36.937618978089,1.00000000082269,0.552635334949675
17700.0000000229,36.8633598120078,1.00000000085589,0.548610459243264
17800.0000000215,36.7871819826664,1.00000000087174,0.553163042657574
17900.00000002,36.7085035512503,1.0000000009583,0.559736912042041
18000.0000000186,36.6278329474903,1.0000000009173,0.56038355827989
18100.0000000171,36.5486451269157,1.00000000078054,0.558417322468255
18200.0000000156,36.4787621952391,1.00000000074643,0.553600323165454
18300.0000000142,36.4243055263776,1.0000000006995,0.547457032291489
18400.0000000127,36.3865522429556,1.000000000744,0.540740676189664
18500.0000000113,36.3636370298639,1.00000000073712,0.529469988409567
18600.0000000098,36.3496208562511,1.00000000075761,0.526675060785382
18700.0000000084,36.3393754156112,1.00000000084126,0.530915909396363
18800.0000000069,36.3322539437869,1.00000000083,0.532427883593269
18900.0000000055,36.3302829888817,1.00000000076374,0.529315542777003
19000.000000004,36.335020835496,1.00000000075613,0.523756208276326
19100.0000000026,36.3445273644918,1.00000000081315,0.522631085653584
19200.0000000011,36.3562383545521,1.00000000078066,0.523989250155378
19299.9999999996,36.3711890237811,1.00000000077982,0.521401777676497
19399.9999999982,36.388903216138,1.00000000081088,0.525336294736505
19499.9999999967,36.4060337070032,1.0000000008519,0.541043797623849
19599.9999999953,36.4173456938843,1.00000000087059,0.5573460120211
19699.9999999938,36.4234841786259,1.00000000080942,0.562566002723347
19799.9999999924,36.4266906538332,1.00000000085014,0.564118128708225
19899.9999999909,36.4289564631268,1.00000000076622,0.560445474343032
19999.9999999895,36.4308823325333,1.00000000079958,0.56355990194788
20099.999999988,36.4310076185109,1.00000000085542,0.568360055499014
20199.9999999865,36.4251887780828,1.00000000085095,0.574566934700269
20299.9999999851,36.4142540986785,1.00000000082444,0.585225869497584
20399.9999999836,36.3999954626412,1.00000000079467,0.590428980452907
20499.9999999822,36.3831374158476,1.00000000086475,0.5898433576153
20599.9999999807,36.359426882104,1.00000000087804,0.585541455370795
20699.9999999793,36.3288735624554,1.00000000078823,0.583880091703093
20799.9999999778,36.2935772719007,1.00000000077853,0.581641548282571
20899.9999999764,36.2529112135586,1.00000000082563,0.575080067888941
20999.9999999749,36.2049245882894,1.00000000089339,0.566420694237483
21099.9999999734,36.1471041245689,1.00000000091714,0.567879350505628
21199.999999972,36.0805357024461,1.00000000092003,0.580016499547516
21299.9999999705,36.0064524376878,1.000000000896,0.583007829966229
21399.9999999691,35.9281750156074,1.00000000084297,0.583780440763507
21499.9999999676,35.8487148462512,1.0000000007997,0.582422222451866
21599.9999999662,35.7710311558681,1.0000000007652,0.583355218444388
21699.9999999647,35.6975402868454,1.00000000074881,0.579274796758404
21799.9999999633,35.6297911803774,1.00000000074425,0.576223299369969
21899.9999999618,35.5663228707557,1.00000000078253,0.572735001794446
21999.9999999603,35.5064953152828,1.00000000085141,0.570101616957474
22099.9999999589,35.4487904967516,1.00000000086386,0.571458699426423
22199.9999999574,35.3924684129893,1.00000000084095,0.569294686013811
22299.999999956,35.3363506250732,1.00000000090312,0.564806875595808
22399.9999999545,35.2800792306106,1.00000000086571,0.557154226040759
22499.9999999531,35.2240821407075,1.00000000087573,0.551173644671712
22599.9999999516,35.1689791346931,1.00000000084353,0.549625666706423
22699.9999999502,35.1193647274868,1.00000000081048,0.555694870848554
22799.9999999487,35.0805484178904,1.00000000073962,0.55667754018172
22899.9999999473,35.0552639493511,1.00000000072249,0.555990695359638
22999.9999999458,35.0427615561021,1.00000000078258,0.551918220785952
23099.9999999443,35.0403106687297,1.00000000078649,0.548168431073509
23199.9999999429,35.047039627798,1.0000000007869,0.547080239485688
23299.9999999414,35.0600864771731,1.00000000083174,0.543933330820988
23399.99999994,35.0760860877917,1.00000000084535,0.537953234959132
23499.9999999385,35.0941244135192,1.00000000083621,0.537181151461422
23599.9999999371,35.1172989545807,1.00000000078411,0.536112369027492
23699.9999999356,35.1470688411265,1.00000000078177,0.539388893733223
23799.9999999342,35.1810767693307,1.00000000079999,0.539009123495267
23899.9999999327,35.2176808572035,1.00000000078596,0.537669143101181
23999.9999999312,35.257004464582,1.00000000081178,0.539484234924366
24099.9999999298,35.2986627538346,1.00000000080112,0.539413733539313
24199.9999999283,35.342215978614,1.00000000081834,0.542763818354901
24299.9999999269,35.3832577347826,1.00000000083699,0.552092450101289
24399.9999999254,35.4185837596715,1.00000000091419,0.568028635164892
24499.999999924,35.4490758922875,1.00000000085857,0.576115462628304
24599.9999999225,35.4763779403013,1.00000000079658,0.578172821964092
24699.9999999211,35.5007141295121,1.00000000085581,0.581568838508926
24799.9999999196,35.5226557957017,1.00000000085188,0.591102619905829
24899.9999999181,35.5431435958926,1.00000000085653,0.593934984530142
24999.9999999167,35.5616982582575,1.00000000077356,0.590813939934894
25099.9999999152,35.5785268207671,1.00000000083449,0.596913367219102
25199.9999999138,35.5938600898806,1.00000000085206,0.602761663704792
25299.9999999123,35.6059318724893,1.00000000090792,0.604518493643854
25399.9999999109,35.6146429176829,1.0000000008402,0.598490828687611
25499.9999999094,35.6225238000094,1.00000000080789,0.595676064944032
25599.999999908,35.6287932035204,1.00000000088987,0.597431090518655
25699.9999999065,35.6306066128271,1.00000000084584,0.598965328852564
25799.9999999051,35.6285709480339,1.00000000089001,0.60925003155323
25899.9999999036,35.6222536081299,1.00000000087898,0.615817341705856
25999.9999999021,35.61367023559,1.00000000081324,0.607669166308515
26099.9999999007,35.6034538837318,1.00000000084513,0.609952868303232
26199.9999998992,35.5898311629801,1.00000000085751,0.609630341945986
26299.9999998978,35.5734547027802,1.00000000081876,0.61134432634902
26399.9999998963,35.5565327012256,1.00000000081133,0.603649222122302
26499.9999998949,35.5381229549194,1.00000000082573,0.595786463663121
26599.9999998934,35.5167819376772,1.00000000085114,0.592920890856518
26699.999999892,35.4929713078367,1.0000000008851,0.594997255810517
26799.9999998905,35.4651759066214,1.00000000091135,0.605431402600621
26899.999999889,35.4309781039209,1.00000000089486,0.606751634446468
26999.9999998876,35.3924584892729,1.00000000086553,0.606445469194137
27099.9999998861,35.3519211126039,1.00000000086886,0.612231103372921
27199.9999998847,35.3112878857481,1.00000000082804,0.611719698570934
27299.9999998832,35.2720555569352,1.0000000007889,0.612954720960592
27399.9999998818,35.2330326813758,1.00000000082884,0.616225981811216
27499.9999998803,35.1917564611787,1.00000000085026,0.615236080124859
27599.9999998789,35.1486239325129,1.00000000082713,0.607249999179203
27699.9999998774,35.1036068499454,1.00000000083145,0.605655696114198
27799.9999998759,35.0551414331731,1.00000000089889,0.610676647611894
27899.9999998745,35.0031124217176,1.00000000084008,0.607456252756863
27999.999999873,34.947940480237,1.00000000090932,0.610023275157179
28099.9999998716,34.889701727769,1.00000000088273,0.609776575126832
28199.9999998701,34.8271053649688,1.00000000087652,0.609160255571774
28299.9999998687,34.7602139975478,1.00000000089133,0.608147141407683
28399.9999998672,34.6898720096637,1.00000000091251,0.616335874458859
28499.9999998658,34.6173406163449,1.00000000089105,0.621623711577156
28599.9999998643,34.5431736757788,1.00000000086177,0.62593076191101
28699.9999998629,34.4678920381491,1.00000000082105,0.628242030453727
28799.9999998614,34.3927383939622,1.00000000084214,0.625542294787501
28899.9999998599,34.319159333648,1.00000000076093,0.618954646269142
28999.9999998585,34.2482684362236,1.00000000076742,0.614255385275781
