Time,AGPnorm,Energy,Entropy
0,0,1,-1.49159546583881e-17
99.9999999999986,3.1872996364085e-05,1.00000000000082,0.00137051034641723
199.999999999993,0.00293228297479765,1.00000000000031,0.0021845855012408
300,0.00736436494496113,1.00000000000037,0.00384710042948446
400.000000000022,0.0103870685625924,1.00000000000082,0.00649966885953345
500.000000000045,0.0125212380868022,0.999999999999941,0.00874799846906595
600.000000000068,0.0174707787318189,1.0000000000008,0.0121513910825954
700.000000000091,0.0216502686268303,1.00000000000037,0.015513031952602
800.000000000113,0.0281152752892444,1.00000000000035,0.0191180220121617
900.000000000136,0.0351168853697758,1.00000000000084,0.0234331619214046
1000.00000000016,0.0404951394700248,0.999999999999829,0.0275477019559548
1100.0000000001,0.04812339285681,1.00000000000085,0.0322932897384798
1200,0.0565784968832551,1.00000000000052,0.0372422388686228
1299.99999999991,0.0651488423786081,1.00000000000024,0.0423464518774683
1399.99999999982,0.0739356890072625,1.00000000000083,0.0479886998027889
1499.99999999973,0.0824497582987617,0.999999999999777,0.0535985230357421
1599.99999999964,0.0927465032702351,1.00000000000091,0.0596930626944297
1699.99999999955,0.103799725406396,1.00000000000065,0.0661488704368037
1799.99999999946,0.113651197956912,1,0.0727753974618481
1899.99999999937,0.123509441836977,1.00000000000088,0.0798747435435731
1999.99999999928,0.134414367495753,0.999999999999894,0.0871742674172624
2099.99999999919,0.146298531908967,1.00000000000091,0.0950300831782317
2199.99999999909,0.158267200748731,1.00000000000066,0.103406541061726
2299.999999999,0.16879814491047,0.999999999999726,0.112065375805163
2399.99999999891,0.17951068587653,1.00000000000107,0.121398436550497
2499.99999999882,0.191734053370135,1.00000000000025,0.131380781441118
2599.99999999873,0.203863777434177,1.00000000000103,0.142268901041495
2699.99999999864,0.215282562896972,1.00000000000147,0.154221343014833
2799.99999999855,0.225840811141692,1.00000000000235,0.167141809373964
2899.99999999846,0.237615866828925,1.00000000000859,0.181609176896264
2999.99999999837,0.249003982591218,1.00000000001774,0.19755595901174
3099.99999999828,0.261441874165337,1.0000000000371,0.214581494327556
3199.99999999819,0.273715105902862,1.00000000006095,0.232423569815045
3299.99999999809,0.283711069271772,1.00000000009721,0.250306236093039
3399.999999998,0.307828601639505,1.00000000014368,0.268405223990402
3499.99999999791,0.329623502987509,1.00000000019292,0.28629950673997
3599.99999999782,0.369402218928753,1.00000000025361,0.303543410806578
3699.99999999773,0.436556017850499,1.00000000031564,0.320369596301491
3799.99999999764,0.519742967140769,1.00000000037925,0.336732273457574
3899.99999999755,0.667103780822145,1.00000000042381,0.352721690988609
3999.99999999746,0.860214618030955,1.00000000049978,0.368045704406479
4099.99999999738,1.12722031731642,1.00000000054006,0.382695453282824
4199.99999999775,1.50070884689505,1.00000000060078,0.396614098054128
4299.99999999811,1.96216396604633,1.00000000066534,0.410098516624196
4399.99999999848,2.56768207106286,1.00000000066997,0.423031813524287
4499.99999999884,3.31388574137451,1.00000000071753,0.435027300808318
4599.9999999992,4.21324241789162,1.00000000078813,0.446481475114937
4699.99999999957,5.30229530898774,1.00000000081278,0.457416576721741
4799.99999999993,6.56735131169674,1.00000000085031,0.467720066728492
4900.00000000029,8.04061798363377,1.00000000086899,0.477454319630995
5000.00000000066,9.72704359016919,1.00000000089221,0.486347217130152
5100.00000000102,11.6256889682326,1.00000000095222,0.494773386643449
5200.00000000139,13.7511182795355,1.00000000095771,0.502939574930374
5300.00000000175,16.1012462614031,1.00000000096903,0.510250405361728
5400.00000000211,18.6793515231042,1.0000000009671,0.517331327129614
5500.00000000248,21.4808811517987,1.00000000097686,0.523786645416991
5600.00000000284,24.5082557777604,1.00000000096816,0.529793062403302
5700.00000000321,27.7457684337014,1.0000000010158,0.53546869975171
5800.00000000357,31.1964041676163,1.0000000010279,0.540291515861357
5900.00000000393,34.8524221375852,1.00000000099739,0.545280435884114
6000.0000000043,38.6875471753122,1.00000000103832,0.549757224450694
6100.00000000466,42.7154853281499,1.0000000010336,0.553699199035841
6200.00000000502,46.9023483924435,1.00000000104676,0.557740749518392
6300.00000000539,51.2434661143725,1.00000000105385,0.560976993730303
6400.00000000575,55.7386845461726,1.00000000099859,0.56424141229855
6500.00000000612,60.3414526003287,1.00000000102242,0.567317820484593
6600.00000000648,65.0725279294679,1.00000000100469,0.569825446904821
6700.00000000684,69.8973625215613,1.0000000009954,0.572550449915964
6800.00000000721,74.7971081074305,1.00000000100345,0.574573436872091
6900.00000000757,79.7851175629486,1.00000000097122,0.576506348793742
7000.00000000793,84.8062031994701,1.00000000099625,0.578652647308746
7100.0000000083,89.8783263235936,1.0000000009769,0.579887556554876
7200.00000000866,94.9800357434919,1.00000000096212,0.581237615096991
7300.00000000903,100.078494366387,1.00000000095066,0.582871664317099
7400.00000000939,105.197642116139,1.00000000094095,0.583833573014684
7500.00000000975,110.285797371159,1.00000000094554,0.584855908928783
7600.00000001012,115.352298087653,1.00000000093906,0.585385329867268
7700.00000001048,120.392343940981,1.00000000094652,0.586162452842976
7800.00000001084,125.364747683568,1.00000000090591,0.587369956962372
7900.00000001121,130.297838049823,1.00000000091011,0.587032022702636
8000.00000001157,135.151389701199,1.00000000086938,0.587966053168228
8100.00000001194,139.926157637479,1.00000000088713,0.588174332695831
8200.0000000123,144.627863096269,1.00000000087602,0.5882581482624
8300.00000001266,149.218912492756,1.00000000088077,0.588546826562762
8400.00000001303,153.723760245515,1.00000000083646,0.58859481255772
8500.00000001339,158.116789030266,1.00000000084253,0.588338237117022
8600.00000001376,162.389611294313,1.00000000083998,0.588745933356084
8700.00000001412,166.560556490251,1.00000000082291,0.587742593784497
8800.00000001448,170.590238055909,1.00000000080016,0.588518583112628
8900.00000001485,174.50467267377,1.00000000079639,0.587744885034425
9000.00000001521,178.284443431063,1.00000000078279,0.587307321171041
9100.00000001557,181.92423204688,1.00000000076315,0.587870302036606
9200.00000001594,185.438604017765,1.00000000075314,0.58608880520582
9300.0000000163,188.801870879504,1.00000000075588,0.587358815613268
9400.00000001667,192.029622960564,1.00000000074564,0.58565620707884
9500.00000001703,195.116547535655,1.00000000073915,0.586030047978812
9600.00000001739,198.052022008078,1.00000000071642,0.585296359420122
9700.00000001776,200.854288875097,1.00000000072727,0.584947871177959
9800.00000001812,203.503880263466,1.00000000070705,0.58441263464435
9900.00000001848,206.0108033307,1.00000000072091,0.584130494655209
10000.0000000188,208.380251045186,1.00000000067739,0.584125539968744
10100.0000000192,210.597467708081,1.00000000068591,0.583137110784708
10200.0000000196,212.682944154768,1.00000000068418,0.58410734745271
10300.0000000199,214.623908250567,1.00000000064908,0.582639063483075
10400.0000000203,216.424956501488,1.00000000066658,0.582376525756963
10500.0000000207,218.096949347168,1.00000000063721,0.582530138726669
10600.000000021,219.626133689602,1.00000000062511,0.580652491932533
10700.0000000214,221.02937556116,1.00000000063404,0.581679784421342
10800.0000000218,222.301064602766,1.00000000061714,0.580982242270829
10900.0000000221,223.44336592823,1.00000000058162,0.579296979607857
11000.0000000225,224.465246297639,1.00000000060704,0.581080752198571
11100.0000000229,225.362195557128,1.00000000061524,0.580564271572167
11200.0000000232,226.144537439933,1.00000000058961,0.577086148965481
11300.0000000236,226.807166025332,1.00000000058705,0.580490284703256
11400.0000000239,227.360918483616,1.00000000058029,0.580978979881957
11500.0000000243,227.811829945439,1.00000000056607,0.576141418169621
11600.0000000247,228.14915519484,1.00000000056175,0.57667817557236
11700.000000025,228.391892345984,1.00000000055814,0.580793235911033
11800.0000000254,228.542784721936,1.0000000005731,0.578391695389722
11900.0000000258,228.598917282144,1.00000000054261,0.5738527362583
12000.0000000261,228.565168568247,1.00000000052984,0.57380717679733
12100.0000000265,228.446208510203,1.00000000057555,0.580377309452486
12200.0000000269,228.260471814039,1.00000000056993,0.577201522488923
12300.0000000272,227.998927297346,1.00000000052581,0.567663822127828
12400.0000000276,227.655054551863,1.00000000051991,0.569117973618206
12500.0000000279,227.251090931009,1.00000000058968,0.580401222097897
12600.0000000283,226.795282758727,1.00000000056974,0.575659913487129
12700.0000000287,226.283106667682,1.00000000051406,0.563903381780809
12800.000000029,225.701501026402,1.00000000049278,0.561141090897527
12900.0000000294,225.067110139278,1.00000000058567,0.578175325583443
13000.0000000298,224.405079957404,1.00000000061343,0.577881149428261
13100.0000000301,223.704478921376,1.00000000051513,0.563408603769115
13200.0000000305,222.952168210916,1.00000000045685,0.552484308119914
13300.0000000309,222.148420947175,1.00000000053577,0.5645002712006
13400.0000000312,221.320927706086,1.00000000064569,0.583503394016253
13500.0000000316,220.484132874043,1.00000000059348,0.569050854621471
13600.0000000319,219.614506882409,1.00000000050565,0.55192114660133
13700.0000000323,218.701632465388,1.00000000046612,0.543069337089706
13800.0000000327,217.755010727464,1.00000000059046,0.568036633527632
13900.000000033,216.804632451985,1.00000000070516,0.58479059155412
14000.0000000334,215.854071948411,1.00000000059157,0.562282097185903
14100.0000000338,214.880895871339,1.00000000049063,0.54329184849914
14200.0000000341,213.87273078888,1.00000000047936,0.534481928511661
14300.0000000345,212.839819540272,1.00000000059869,0.561521954417148
14400.0000000349,211.810570071544,1.00000000073597,0.58562435170848
14500.0000000352,210.791211813378,1.00000000066569,0.563169885059193
14600.0000000356,209.763060804941,1.00000000052434,0.54011042389565
14700.0000000359,208.709829642678,1.00000000046248,0.527923737254335
14800.0000000363,207.633895296138,1.00000000054951,0.539491674654454
14900.0000000367,206.556037928603,1.00000000072125,0.578550990534676
15000.000000037,205.495996934453,1.00000000072148,0.576993274540107
15100.0000000374,204.442097858053,1.0000000005975,0.54425064441546
15200.0000000378,203.379644530353,1.00000000049712,0.528018965189006
15300.0000000381,202.299693290967,1.00000000049499,0.52484626235332
15400.0000000385,201.207124307218,1.00000000058229,0.541313992316646
15500.0000000389,200.122354092255,1.00000000070192,0.575668642808214
15600.0000000392,199.054391257676,1.0000000007362,0.573121052071398
15700.0000000396,197.996105107946,1.00000000059552,0.537462183972456
15800.0000000399,196.934597359324,1.00000000050694,0.522766236283378
15900.0000000403,195.863290885181,1.00000000050046,0.525321830525656
16000.0000000407,194.786664037042,1.00000000055646,0.53265348954869
16100.000000041,193.71316871554,1.00000000066713,0.556676048075187
16200.0000000414,192.653255076717,1.00000000075901,0.573773017750795
16300.0000000418,191.608431601706,1.00000000067362,0.549700121661805
16400.0000000418,190.567658589293,1.00000000054563,0.52356681195313
16500.0000000404,189.527310615891,1.000000000503,0.521211121474024
16600.0000000389,188.484020138868,1.00000000053305,0.528063067731241
16700.0000000375,187.441579897681,1.00000000057858,0.534883313985706
16800.000000036,186.406342748253,1.00000000064409,0.547550796065449
16900.0000000346,185.382137264734,1.00000000068771,0.559440901051733
17000.0000000331,184.369942859533,1.00000000065454,0.546961326521976
17100.0000000317,183.366050362754,1.00000000058269,0.523862480035127
17200.0000000302,182.365708527659,1.00000000051516,0.518053504742456
17300.0000000287,181.36885416102,1.00000000054001,0.529672077229643
17400.0000000273,180.375169736443,1.00000000057662,0.533485427321466
17500.0000000258,179.388063699575,1.00000000061396,0.532550143868932
17600.0000000244,178.408920322106,1.00000000062347,0.537965616912433
17700.0000000229,177.439117872428,1.00000000065451,0.548180154345019
17800.0000000215,176.479694135076,1.0000000006473,0.538383264843444
17900.00000002,175.527912210549,1.00000000058714,0.522953839869566
18000.0000000186,174.583153124065,1.0000000005518,0.522438703348255
18100.0000000171,173.644915060004,1.00000000056352,0.532210081672217
18200.0000000156,172.713024860505,1.00000000056831,0.534333404282427
18300.0000000142,171.788384326471,1.00000000056587,0.527380887154658
18400.0000000127,170.870670116377,1.00000000059861,0.525480497122312
18500.0000000113,169.961208452374,1.00000000058143,0.531889555337363
18600.0000000098,169.060902373854,1.00000000064403,0.539533498094944
18700.0000000084,168.168792070393,1.00000000061626,0.535934922154277
18800.0000000069,167.285466774442,1.00000000057733,0.528003606517224
18900.0000000055,166.410226952789,1.00000000058086,0.529483269775128
19000.000000004,165.543730916229,1.00000000057788,0.536349916807137
19100.0000000026,164.68505759641,1.00000000056392,0.534213636946082
19200.0000000011,163.833743238258,1.00000000055315,0.523289983952537
19299.9999999996,162.990625991529,1.00000000056064,0.51913539972656
19399.9999999982,162.155671348517,1.0000000005617,0.521474618864078
19499.9999999967,161.328981190981,1.00000000061916,0.533915865569972
19599.9999999953,160.510828711847,1.000000000641,0.54136260963214
19699.9999999938,159.700720518417,1.00000000059582,0.539526501519078
19799.9999999924,158.899193065415,1.00000000056673,0.534367860940218
19899.9999999909,158.106093426776,1.00000000059832,0.539162849635674
19999.9999999895,157.321960050261,1.00000000058547,0.540699393154407
20099.999999988,156.546858267056,1.00000000051616,0.53120425794796
20199.9999999865,155.780762408327,1.0000000005035,0.516423652621509
20299.9999999851,155.023866332321,1.00000000054273,0.513730425695222
20399.9999999836,154.275705855286,1.00000000057719,0.518864407835099
20499.9999999822,153.535811313882,1.00000000060391,0.527222420723368
20599.9999999807,152.803908630326,1.00000000059516,0.534930109967592
20699.9999999793,152.079552883355,1.00000000060033,0.543812450934209
20799.9999999778,151.362864927474,1.00000000059884,0.541202060561923
20899.9999999764,150.653291077092,1.00000000062535,0.542609780252995
20999.9999999749,149.950876956766,1.00000000064445,0.545851276282564
21099.9999999734,149.256817067674,1.00000000057818,0.539075624559831
21199.999999972,148.572553438457,1.00000000053054,0.526569138192724
21299.9999999705,147.899793557353,1.00000000048284,0.510133776134758
21399.9999999691,147.237766457807,1.00000000050256,0.504951802131979
21499.9999999676,146.585037330537,1.00000000058128,0.513174297587894
21599.9999999662,145.93995386871,1.00000000063674,0.520586996128825
21699.9999999647,145.301996043018,1.00000000060258,0.522913587489768
21799.9999999633,144.670826555956,1.00000000058645,0.53426877448834
21899.9999999618,144.045679180438,1.00000000057518,0.544035561891289
21999.9999999603,143.426368816651,1.00000000058875,0.545767926639535
22099.9999999589,142.811996384017,1.00000000063589,0.546603317375725
22199.9999999574,142.202577283361,1.00000000065543,0.548504098095083
22299.999999956,141.599572133,1.00000000062992,0.540214894383223
22399.9999999545,141.006193474524,1.00000000050447,0.523155320473393
22499.9999999531,140.425892055534,1.00000000048107,0.510003596143755
22599.9999999516,139.858516508509,1.00000000046785,0.50099736181125
22699.9999999502,139.302280314262,1.00000000055212,0.500910364640193
22799.9999999487,138.753726926856,1.00000000062411,0.51267867017969
22899.9999999473,138.211182908566,1.00000000061124,0.517208145103278
22999.9999999458,137.674298373804,1.00000000061162,0.519375288394024
23099.9999999443,137.142603738743,1.00000000059692,0.524752641401878
23199.9999999429,136.615203324886,1.0000000006189,0.540455628961673
23299.9999999414,136.09048704697,1.00000000064492,0.549903007426861
23399.99999994,135.568361902151,1.00000000065036,0.547949182561207
23499.9999999385,135.048948910023,1.00000000066979,0.548600771594981
23599.9999999371,134.533475045364,1.00000000063268,0.543848465800108
23699.9999999356,134.024991391637,1.000000000585,0.53096461275974
23799.9999999342,133.527162501245,1.00000000051872,0.517115898997918
23899.9999999327,133.042051130164,1.0000000004848,0.510485707423452
23999.9999999312,132.570536798507,1.00000000048482,0.502658023963792
24099.9999999298,132.110169754542,1.00000000055808,0.499211008568835
24199.9999999283,131.65848185782,1.00000000059344,0.502979977609201
24299.9999999269,131.212725685724,1.0000000006164,0.512182343760146
24399.9999999254,130.771570915694,1.00000000060023,0.515763816935198
24499.999999924,130.334032280966,1.00000000060387,0.520572743653877
24599.9999999225,129.898372398498,1.00000000062073,0.52922769372451
24699.9999999211,129.463251537401,1.00000000064509,0.540870727731105
24799.9999999196,129.028191641789,1.0000000006615,0.548563014879312
24899.9999999181,128.594396675278,1.00000000063568,0.545521716609826
24999.9999999167,128.163305457812,1.00000000062139,0.542535465962984
25099.9999999152,127.735598658133,1.00000000063428,0.541957148649764
25199.9999999138,127.312300915647,1.00000000059965,0.537248580023009
25299.9999999123,126.896257968484,1.00000000058027,0.527170625441149
25399.9999999109,126.490090374192,1.00000000053989,0.518363738836728
25499.9999999094,126.095692858569,1.0000000005257,0.513330388784357
25599.999999908,125.713225673159,1.00000000051682,0.509434084012403
25699.9999999065,125.342397636,1.00000000051581,0.500258640435686
25799.9999999051,124.982212112116,1.00000000053337,0.499468549757408
25899.9999999036,124.629922883096,1.0000000005897,0.506404369209576
25999.9999999021,124.282235746235,1.00000000062823,0.51761590440477
26099.9999999007,123.936146244397,1.00000000062265,0.527083394976201
26199.9999998992,123.589525547138,1.0000000006556,0.530408861171519
26299.9999998978,123.242283744245,1.00000000060672,0.533108721909866
26399.9999998963,122.893854515316,1.00000000064754,0.539608234729083
26499.9999998949,122.544543394951,1.0000000006299,0.543657508890579
26599.9999998934,122.196330085454,1.0000000005931,0.544745579931813
26699.999999892,121.850560068843,1.00000000058506,0.540905604735479
26799.9999998905,121.508525217288,1.0000000005906,0.538181709478086
26899.999999889,121.170450842462,1.00000000059212,0.538633962780374
26999.9999998876,120.83589002373,1.00000000061599,0.539269264468386
27099.9999998861,120.505699484448,1.00000000061764,0.534599833532645
27199.9999998847,120.182473304531,1.00000000054793,0.525525120351992
27299.9999998832,119.869833284148,1.00000000052212,0.51740559851583
27399.9999998818,119.569240062429,1.00000000048901,0.51261435345874
27499.9999998803,119.281444186902,1.0000000005041,0.505782195490488
27599.9999998789,119.004811045593,1.00000000055219,0.505238072697751
27699.9999998774,118.737176126119,1.00000000055599,0.509802580602986
27799.9999998759,118.47565925788,1.00000000060125,0.520199198986718
27899.9999998745,118.217127750067,1.00000000060954,0.523922979151273
27999.999999873,117.959344240258,1.00000000062016,0.536057911396565
28099.9999998716,117.699105569967,1.00000000061609,0.542147750286492
28199.9999998701,117.43649401365,1.00000000061725,0.538588163262357
28299.9999998687,117.172104967872,1.00000000064137,0.539252236302754
28399.9999998672,116.905859565335,1.00000000063191,0.54402320251348
28499.9999998658,116.638670281101,1.00000000062093,0.545660179693691
28599.9999998643,116.372974604658,1.0000000005919,0.543801797071333
28699.9999998629,116.111171164743,1.00000000054534,0.542340254867513
28799.9999998614,115.853343502337,1.00000000057754,0.544592700290983
28899.9999998599,115.597493068566,1.00000000059326,0.544941423964094
28999.9999998585,115.342842010232,1.00000000063414,0.543444644232667
