Time,AGPnorm,Energy,Entropy
0,0,1,-4.53818754707114e-18
99.9999999999986,0.0137189345715022,0.999999999997493,0.0350413120887521
199.999999999993,0.0348941889168345,1.00000000000054,0.103108733023442
300,0.0644353315144692,1.00000000006566,0.220611263063677
400.000000000022,0.120941968170516,1.00000000164055,0.395293592582835
500.000000000045,0.497543411309687,1.00000000379571,0.519224238396447
600.000000000068,1.62125066364377,1.00000000499475,0.578168467414996
700.000000000091,3.47351503615453,1.00000000501891,0.598765593154886
800.000000000113,5.57057449934114,1.00000000462637,0.603066269352749
900.000000000136,7.58363537284375,1.0000000045043,0.594012421947006
1000.00000000016,9.17340519571556,1.00000000362447,0.585784552486676
1100.0000000001,10.2736163433472,1.00000000324784,0.570658996016632
1200,10.8636224648598,1.00000000326779,0.567334192017411
1299.99999999991,11.0241313462364,1.00000000270692,0.55496609408155
1399.99999999982,10.9025735635067,1.00000000219453,0.519894154061819
1499.99999999973,10.6328003935165,1.00000000225637,0.510432783259268
1599.99999999964,10.2599469697272,1.00000000377588,0.574398831235616
1699.99999999955,9.83340141283359,1.00000000248244,0.476677972090166
1799.99999999946,9.42181630068213,1.00000000328506,0.51945579583157
1899.99999999937,9.00021307560173,1.00000000270344,0.47522245873024
1999.99999999928,8.59636855120832,1.00000000375162,0.545845389337029
2099.99999999919,8.23209996252884,1.00000000248408,0.458939558131935
2199.99999999909,7.8718820932628,1.00000000308314,0.524591245064387
2299.999999999,7.53860453510752,1.0000000035607,0.537562432247699
2399.99999999891,7.26363003035977,1.00000000221783,0.456651182190164
2499.99999999882,6.99176796492431,1.00000000324586,0.534843266282206
2599.99999999873,6.74078134284008,1.00000000334445,0.553175692646889
2699.99999999864,6.50071595947865,1.00000000305039,0.528056110370408
2799.99999999855,6.33090869020132,1.00000000225118,0.46949573838488
2899.99999999846,6.16487030021011,1.00000000357976,0.537811140672631
2999.99999999837,6.00805966421491,1.0000000030518,0.534415738897437
3099.99999999828,5.8488277507221,1.00000000332475,0.57046538103582
3199.99999999819,5.68954257807345,1.0000000037667,0.556639849981226
3299.99999999809,5.57375232840887,1.00000000225012,0.4877159256121
3399.999999998,5.52092654659301,1.00000000334087,0.521557476173089
3499.99999999791,5.45239213518633,1.00000000332348,0.548598887309379
3599.99999999782,5.38399039869283,1.00000000308114,0.568348481323081
3699.99999999773,5.31607483656368,1.00000000328409,0.579974539205882
3799.99999999764,5.22286289249051,1.00000000331306,0.605142832604902
3899.99999999755,5.13069418303678,1.00000000356513,0.592930001379605
3999.99999999746,5.03740821686579,1.00000000362251,0.57523745906336
4099.99999999738,4.9717411075878,1.00000000257356,0.532812956859685
4199.99999999775,4.98596697492046,1.00000000271744,0.509901568801059
4299.99999999811,5.00854228200882,1.00000000384207,0.553340554428354
4399.99999999848,5.01563462484864,1.00000000332481,0.556281439058733
4499.99999999884,5.01469141297895,1.00000000348659,0.590610708715013
4599.9999999992,5.00064292248422,1.00000000333082,0.607420450238687
4699.99999999957,4.99264028072337,1.00000000319959,0.618480856469674
4799.99999999993,4.96747926685793,1.00000000360926,0.633944362590273
4900.00000000029,4.9319587931732,1.00000000334117,0.605065777072129
5000.00000000066,4.88361084210604,1.0000000036456,0.633661360500716
5100.00000000102,4.83131477400286,1.00000000353262,0.643314060193467
5200.00000000139,4.7742511832997,1.00000000358712,0.636084021302124
5300.00000000175,4.71628808482495,1.00000000408755,0.618527324901903
5400.00000000211,4.66183005682357,1.00000000357492,0.580823508684464
5500.00000000248,4.65528437982673,1.00000000274669,0.542652688705539
5600.00000000284,4.71985012316969,1.00000000313391,0.539051262791921
5700.00000000321,4.80230272256959,1.00000000393837,0.566596600996072
5800.00000000357,4.86978685477516,1.00000000375192,0.586400019527657
5900.00000000393,4.92875469700319,1.00000000358441,0.593245379287197
6000.0000000043,4.9733194566711,1.00000000357053,0.603008256272431
6100.00000000466,5.0123587538553,1.00000000385398,0.630515481251048
6200.00000000502,5.03699812806805,1.00000000370604,0.634527682091226
6300.00000000539,5.05035085518486,1.00000000370649,0.648828214229555
6400.00000000575,5.05179099521366,1.00000000412168,0.650865382722469
6500.00000000612,5.05096759516565,1.00000000373436,0.642823400492479
6600.00000000648,5.06177933205951,1.00000000371938,0.64399901720737
6700.00000000684,5.06866141779455,1.00000000396064,0.65072989866545
6800.00000000721,5.06163203020374,1.00000000403078,0.631752827334938
6900.00000000757,5.05714022769113,1.00000000375586,0.645395309060982
7000.00000000793,5.05494341747675,1.00000000353756,0.650655805671852
7100.0000000083,5.04105365466046,1.00000000387214,0.670438916670625
7200.00000000866,5.0231028378519,1.00000000378176,0.652243296013106
7300.00000000903,5.00535169026856,1.00000000360008,0.645656743224633
7400.00000000939,4.98353036636654,1.00000000427731,0.660467877488228
7500.00000000975,4.94981359780388,1.00000000400073,0.672154730458385
7600.00000001012,4.90782001126644,1.00000000411778,0.666965255682598
7700.00000001048,4.86615595287079,1.0000000043073,0.679475644884335
7800.00000001084,4.82582126033461,1.00000000414526,0.662082199408149
7900.00000001121,4.78823911226175,1.00000000420754,0.667901804148656
8000.00000001157,4.75195664335241,1.00000000451817,0.643886739357004
8100.00000001194,4.71698399017296,1.00000000405564,0.597191453701825
8200.0000000123,4.70680861567095,1.00000000321205,0.570001193634195
8300.00000001266,4.75452736299514,1.00000000305139,0.552532739829526
8400.00000001303,4.86353427676635,1.00000000356343,0.55822598278829
8500.00000001339,5.00331238174406,1.0000000043332,0.573925755469621
8600.00000001376,5.14662689745916,1.00000000428958,0.585807888113479
8700.00000001412,5.27748821794221,1.00000000424383,0.593210446967601
8800.00000001448,5.4016135218491,1.00000000430009,0.594872195206151
8900.00000001485,5.52067536893686,1.00000000378737,0.605350365867488
9000.00000001521,5.62492145308114,1.00000000450098,0.630673433175208
9100.00000001557,5.72302116771076,1.00000000415964,0.638362178412276
9200.00000001594,5.81497537432113,1.00000000450077,0.657918856690177
9300.0000000163,5.90033559615645,1.00000000448097,0.661852602794425
9400.00000001667,5.96893204987399,1.00000000456405,0.654744992769393
9500.00000001703,6.02152887941763,1.00000000472542,0.664602032508027
9600.00000001739,6.06062331169387,1.00000000469455,0.691156936612041
9700.00000001776,6.10738835511631,1.00000000430129,0.68240385243378
9800.00000001812,6.15522545742256,1.00000000432235,0.676262109576412
9900.00000001848,6.19478513290566,1.0000000046083,0.701108463928853
10000.0000000188,6.22520962222962,1.00000000461007,0.697823167351172
10100.0000000192,6.25831208236669,1.00000000458951,0.695098277096948
10200.0000000196,6.28458938132387,1.00000000460619,0.68699326818468
10300.0000000199,6.3076126783739,1.00000000494214,0.692398743276849
10400.0000000203,6.31785579957716,1.00000000423719,0.687646573489481
10500.0000000207,6.32801067252458,1.00000000438959,0.70125335684329
10600.000000021,6.33717136622696,1.0000000047834,0.691311657064088
10700.0000000214,6.34253393626211,1.00000000440685,0.695804849686296
10800.0000000218,6.35874653891435,1.00000000472039,0.677936278982019
10900.0000000221,6.38706341970213,1.00000000468029,0.67578083080625
11000.0000000225,6.43018949114184,1.00000000435483,0.676200626683206
11100.0000000229,6.479805954511,1.00000000431975,0.674647557790696
11200.0000000232,6.52124370394929,1.00000000482796,0.689692134531988
11300.0000000236,6.5609826100981,1.00000000462275,0.668975917644631
11400.0000000239,6.59543843190395,1.00000000480979,0.671465796036735
11500.0000000243,6.63091195369306,1.00000000444277,0.676324344733241
11600.0000000247,6.67695392120326,1.00000000495184,0.686178453937894
11700.000000025,6.71496069669279,1.00000000492664,0.672455816288285
11800.0000000254,6.75282119539192,1.00000000507725,0.695343033132645
11900.0000000258,6.78495924750552,1.00000000510982,0.6894853139054
12000.0000000261,6.81019596340962,1.0000000050959,0.679075204138048
12100.0000000265,6.83797927446586,1.00000000448477,0.6696586532849
12200.0000000269,6.87607137510467,1.00000000456135,0.674251976823258
12300.0000000272,6.92073908486363,1.00000000459877,0.679805009186123
12400.0000000276,6.96845396960406,1.00000000526201,0.691659059032352
12500.0000000279,7.002436958369,1.00000000519744,0.708311282189551
12600.0000000283,7.03964093420344,1.00000000478498,0.701934411118537
12700.0000000287,7.07806646573768,1.00000000482828,0.701893168023982
12800.000000029,7.12603040673133,1.00000000512864,0.689846343868152
12900.0000000294,7.18196771178635,1.00000000491898,0.671234628985288
13000.0000000298,7.23733696510673,1.00000000546439,0.714049696890653
13100.0000000301,7.27246415167054,1.00000000463892,0.713991908364619
13200.0000000305,7.303903868288,1.00000000521098,0.701185503653403
13300.0000000309,7.3308385456564,1.00000000489855,0.696430863525442
13400.0000000312,7.36394675275156,1.00000000497249,0.711437497237867
13500.0000000316,7.4044943487821,1.00000000492908,0.686672654841348
13600.0000000319,7.43650033269589,1.00000000508882,0.70107703466465
13700.0000000323,7.46370360764154,1.00000000461015,0.695134214388414
13800.0000000327,7.4928064093769,1.00000000542097,0.705200167722163
13900.000000033,7.51641339543475,1.00000000526049,0.698937939517333
14000.0000000334,7.54284688034597,1.00000000530374,0.691713308561113
14100.0000000338,7.57066990787443,1.00000000497527,0.707075144134903
14200.0000000341,7.59451281896045,1.00000000502249,0.709395932721736
14300.0000000345,7.61128241574716,1.00000000518275,0.690679735012159
14400.0000000349,7.62794341499817,1.00000000517701,0.671634319305789
14500.0000000352,7.64914240230369,1.00000000506706,0.682528410500288
14600.0000000356,7.65979882074846,1.00000000514182,0.704758826341215
14700.0000000359,7.66169572845556,1.00000000535255,0.704979479851169
14800.0000000363,7.66266152781703,1.00000000558244,0.705348502194097
14900.0000000367,7.65844645373056,1.00000000521451,0.708049612014104
15000.000000037,7.64666071835514,1.00000000566814,0.713798222990205
15100.0000000374,7.62965730721257,1.00000000573111,0.706778397415719
15200.0000000378,7.60865748604501,1.0000000055756,0.719535937170241
15300.0000000381,7.58432624939543,1.00000000548365,0.697539588215317
15400.0000000385,7.56207730572025,1.00000000558361,0.709472082627591
15500.0000000389,7.54034406578193,1.00000000534272,0.695039966492128
15600.0000000392,7.52111273383961,1.0000000052465,0.691635547669908
15700.0000000396,7.50780631372092,1.00000000555101,0.704253059765926
15800.0000000399,7.49629863954804,1.00000000567566,0.722864423484877
15900.0000000403,7.49049989179378,1.00000000611424,0.712806028406214
16000.0000000407,7.48314479708529,1.00000000578007,0.711176293539627
16100.000000041,7.48171067460271,1.00000000662187,0.690226853803203
16200.0000000414,7.48357622677995,1.00000000535906,0.669072010721262
16300.0000000418,7.50158209997573,1.00000000563507,0.642683021307438
16400.0000000418,7.54149243861526,1.00000000541678,0.627358439796294
16500.0000000404,7.63346636000776,1.00000000471634,0.623514007621527
16600.0000000389,7.78424015697349,1.00000000536544,0.624229363686565
16700.0000000375,8.01024834037934,1.00000000538839,0.624560328587087
16800.000000036,8.28367376835607,1.00000000568537,0.632126794018648
16900.0000000346,8.6152420921651,1.00000000554331,0.631580847457579
17000.0000000331,8.95653617746862,1.00000000585396,0.629225545134319
17100.0000000317,9.32828958800801,1.00000000624289,0.640384770284599
17200.0000000302,9.67900783865167,1.00000000646587,0.638030564019422
17300.0000000287,10.0503386296997,1.0000000061483,0.641375726378755
17400.0000000273,10.4076585930212,1.00000000612239,0.646236040460868
17500.0000000258,10.7677835469067,1.00000000656671,0.650170600386875
17600.0000000244,11.1351436316628,1.00000000589982,0.652786520509785
17700.0000000229,11.501797123261,1.00000000607576,0.650826276586896
17800.0000000215,11.8847147036907,1.00000000583626,0.660677326659686
17900.00000002,12.2686496020615,1.00000000578797,0.65801599400972
18000.0000000186,12.6608132024704,1.00000000644605,0.666207394394071
18100.0000000171,13.0510302415984,1.00000000612797,0.673642774786305
18200.0000000156,13.4480673263785,1.00000000638571,0.678891071479686
18300.0000000142,13.8486351832198,1.00000000630366,0.695200859252427
18400.0000000127,14.2541927938263,1.00000000588618,0.70646424646087
18500.0000000113,14.6804422837795,1.00000000637947,0.704510187146697
18600.0000000098,15.0963354983981,1.00000000640393,0.703663870525789
18700.0000000084,15.506914682741,1.0000000067681,0.715057007374963
18800.0000000069,15.9125063411548,1.00000000644647,0.721525136186798
18900.0000000055,16.3144936206051,1.00000000690064,0.720496423358952
19000.000000004,16.7156421219026,1.00000000649408,0.73153369350916
19100.0000000026,17.0972840842227,1.00000000692779,0.719541360578415
19200.0000000011,17.4786541546397,1.00000000701184,0.713842203559693
19299.9999999996,17.8414810682888,1.00000000660462,0.724262877751441
19399.9999999982,18.226541000194,1.00000000669193,0.740624050927782
19499.9999999967,18.6319158804037,1.00000000626221,0.72890830068344
19599.9999999953,19.0421029045979,1.00000000670111,0.728430448096704
19699.9999999938,19.4449007863644,1.00000000681779,0.736022505047526
19799.9999999924,19.8538547429798,1.00000000659835,0.724802605514033
19899.9999999909,20.3011527898476,1.00000000693479,0.736717269689437
19999.9999999895,20.7507545905219,1.00000000685749,0.732982375446665
20099.999999988,21.2122693882549,1.00000000656895,0.731418094352282
20199.9999999865,21.7115094491183,1.00000000637648,0.716366263989308
20299.9999999851,22.2224121920717,1.00000000682161,0.749411382858297
20399.9999999836,22.7197689800066,1.00000000661484,0.73757840737762
20499.9999999822,23.1897138076643,1.00000000762285,0.748577226758765
20599.9999999807,23.6428728987692,1.00000000679433,0.724181688924868
20699.9999999793,24.0922504241765,1.00000000645254,0.736089381643138
20799.9999999778,24.5641878257807,1.0000000066517,0.744899675610891
20899.9999999764,25.05120831015,1.00000000697161,0.728320408517118
20999.9999999749,25.5423384977271,1.00000000719594,0.735189252902691
21099.9999999734,26.0169351857903,1.00000000671931,0.745310025075675
21199.999999972,26.4909746868114,1.00000000708643,0.729723713659993
21299.9999999705,26.9755564795885,1.00000000707842,0.738049708693824
21399.9999999691,27.4465341972476,1.00000000701202,0.73310012188214
21499.9999999676,27.9501728013883,1.00000000677507,0.714699977254022
21599.9999999662,28.4588305719219,1.00000000694484,0.727914985413112
21699.9999999647,28.9791465721708,1.00000000716189,0.736268060815941
21799.9999999633,29.5021201292524,1.00000000700158,0.732843103517851
21899.9999999618,30.01665590891,1.00000000793977,0.731736570050281
21999.9999999603,30.5269538047427,1.00000000712447,0.727168719765597
22099.9999999589,31.0241194572195,1.00000000705271,0.734397383757773
22199.9999999574,31.5226380486575,1.00000000693461,0.702665324549909
22299.999999956,32.0280375455982,1.00000000693762,0.704558893782985
22399.9999999545,32.5280791454833,1.00000000688023,0.731604852500492
22499.9999999531,33.0203554430766,1.00000000795939,0.73099806363198
22599.9999999516,33.5378558603418,1.00000000657841,0.718019674377023
22699.9999999502,34.0691172926294,1.00000000713406,0.725383241222907
22799.9999999487,34.6213574590004,1.00000000738636,0.731417130375866
22899.9999999473,35.1581776229911,1.00000000803519,0.742588610786549
22999.9999999458,35.6761696605979,1.00000000684049,0.717822257610148
23099.9999999443,36.1857978491525,1.00000000727143,0.7316754971719
23199.9999999429,36.711454035744,1.00000000691225,0.729697213997479
23299.9999999414,37.2495923493451,1.00000000699029,0.738417991255912
23399.99999994,37.7874138613474,1.00000000700877,0.727834765050208
23499.9999999385,38.3396885960069,1.00000000710942,0.726036748269488
23599.9999999371,38.8769453670127,1.00000000740331,0.736739770433281
23699.9999999356,39.3876556598442,1.00000000777973,0.736724077615495
23799.9999999342,39.9047008635922,1.00000000665296,0.735974069117172
23899.9999999327,40.4428809827294,1.00000000688375,0.73264807915309
23999.9999999312,40.9975178816387,1.000000006999,0.737952032833995
24099.9999999298,41.5492879245015,1.00000000716464,0.729382792363174
24199.9999999283,42.1121956484215,1.00000000760843,0.720892460649978
24299.9999999269,42.6724569287058,1.00000000735466,0.740947285495044
24399.9999999254,43.2435191756406,1.00000000746509,0.735107664755401
24499.999999924,43.849754904846,1.00000000658884,0.736488086864261
24599.9999999225,44.4627558524513,1.00000000789534,0.736833259756802
24699.9999999211,45.0696925893678,1.00000000759372,0.747674388861068
24799.9999999196,45.6859365474488,1.00000000715888,0.713659475423518
24899.9999999181,46.327452923868,1.00000000779316,0.705950531884787
24999.9999999167,46.9908232177143,1.00000000719875,0.726821281205483
25099.9999999152,47.6373006435428,1.00000000744364,0.74400940621745
25199.9999999138,48.2746015100654,1.00000000750615,0.736402119800586
25299.9999999123,48.898652951865,1.0000000069016,0.723221074702566
25399.9999999109,49.5389319684922,1.00000000720484,0.731062614624791
25499.9999999094,50.1806541503151,1.00000000770261,0.729436919853089
25599.999999908,50.8195501244765,1.00000000764035,0.735619528610125
25699.9999999065,51.4645393610179,1.00000000765216,0.745703306995741
25799.9999999051,52.12782024681,1.00000000691055,0.729113016985172
25899.9999999036,52.8121780798093,1.00000000792095,0.740469147166106
25999.9999999021,53.4841575176796,1.00000000832058,0.735634620256629
26099.9999999007,54.1560820061671,1.00000000764579,0.730416349665793
26199.9999998992,54.8123485455516,1.00000000797537,0.744569616360056
26299.9999998978,55.4625693249257,1.00000000791056,0.738954930190654
26399.9999998963,56.1021157681353,1.0000000083857,0.743636611296086
26499.9999998949,56.7401304290808,1.00000000858354,0.732915792987185
26599.9999998934,57.3849615826814,1.00000000793582,0.744939788819031
26699.999999892,58.0420875084331,1.0000000075961,0.729062979226909
26799.9999998905,58.7148784631417,1.00000000834337,0.740110624076165
26899.999999889,59.3973964056724,1.00000000882893,0.752986607488489
26999.9999998876,60.0639561623475,1.00000000842369,0.751138485046311
27099.9999998861,60.7378523758739,1.00000000829451,0.72553865099766
27199.9999998847,61.444278682027,1.00000000862204,0.708790291331693
27299.9999998832,62.1774277301279,1.00000000843186,0.712849797764265
27399.9999998818,62.9321448301468,1.000000007997,0.733713819780159
27499.9999998803,63.6974800064862,1.00000000909345,0.741729711837557
27599.9999998789,64.4698630220665,1.00000000820694,0.741460412493875
27699.9999998774,65.2367163488766,1.00000000842383,0.733322088228609
27799.9999998759,65.9887088484041,1.00000000822633,0.741058885715158
27899.9999998745,66.7414772458106,1.00000000809049,0.739055459841721
27999.999999873,67.4924979133939,1.00000000801578,0.736169973031321
28099.9999998716,68.253762383208,1.00000000781347,0.729487931542693
28199.9999998701,69.0221980533602,1.00000000823799,0.745087031676464
28299.9999998687,69.7841479235543,1.00000000874017,0.750361022323364
28399.9999998672,70.5462896964713,1.00000000782586,0.737902036242087
28499.9999998658,71.3110148773416,1.00000000822316,0.749283025032154
28599.9999998643,72.0858965213291,1.0000000082397,0.744311179945637
28699.9999998629,72.8701720480124,1.00000000804997,0.748154555414778
28799.9999998614,73.6713202545611,1.00000000848443,0.7461304322339
28899.9999998599,74.4746401319464,1.00000000813165,0.742732355348692
28999.9999998585,75.2852937086001,1.00000000802234,0.744519691425272
29099.999999857,76.1055605034031,1.00000000825866,0.738689058791392
