Time,AGPnorm,Energy,Entropy
0,0,1,-1.13120998415964e-17
99.9999999999986,2.64624310350821e-05,0.999999999996426,0.00108006455352509
199.999999999993,0.00238113752849551,0.999999999998279,0.00177495845498841
300,0.00577816518968474,0.999999999999069,0.00304362509326047
400.000000000022,0.0079116899831829,0.999999999996036,0.00528541036894676
500.000000000045,0.00960349360571289,0.999999999999821,0.00710440850150774
600.000000000068,0.0139785715558219,0.999999999997064,0.00978064388936106
700.000000000091,0.0172764839275392,0.999999999997482,0.0126772075440444
800.000000000113,0.0217196625062635,0.999999999999642,0.0154872314239807
900.000000000136,0.0273191880675854,0.999999999995974,0.0190811188394288
1000.00000000016,0.0318746033344495,0.99999999999934,0.0224965889419118
1100.0000000001,0.0381889961297163,0.999999999997842,0.0262168018075307
1200,0.0446650937161018,0.999999999996789,0.0304443515958208
1299.99999999991,0.0510877694268137,0.999999999999915,0.0344507753034042
1399.99999999982,0.0588293834177294,0.999999999996246,0.0390353611834011
1499.99999999973,0.0659370618142951,0.999999999998661,0.0437278837393011
1599.99999999964,0.0738436593177367,0.999999999998599,0.0484417084923361
1699.99999999955,0.0824528773634367,0.999999999996317,0.0537857029343086
1799.99999999946,0.0906711857900814,0.999999999999866,0.0589839217482887
1899.99999999937,0.0999006563317399,0.999999999996791,0.0645670290288137
1999.99999999928,0.108898130702247,0.999999999997902,0.07053298346422
2099.99999999919,0.117875741229888,0.999999999999199,0.0764136660718257
2199.99999999909,0.127766094404706,0.999999999996167,0.0829650896939713
2299.999999999,0.137308703784192,0.999999999999543,0.0895888759226068
2399.99999999891,0.147276988395157,0.999999999997477,0.0964786672577555
2499.99999999882,0.157338512706337,0.999999999997184,0.104028548179712
2599.99999999873,0.166960836043669,0.999999999999575,0.111559048949381
2699.99999999864,0.177444517930364,0.999999999996364,0.119863774838387
2799.99999999855,0.187659635060656,0.999999999999081,0.128619457837727
2899.99999999846,0.197766032982795,0.999999999998263,0.137744038385714
2999.99999999837,0.207984177914977,0.999999999997058,0.147993249557704
3099.99999999828,0.217939335858655,1.00000000000074,0.158690739232277
3199.99999999819,0.22851776957815,0.999999999999575,0.170609497092088
3299.99999999809,0.238267168996137,1.00000000000518,0.183747453123499
3399.999999998,0.24897837046289,1.00000000001283,0.197535767884793
3499.99999999791,0.258386282593081,1.00000000002305,0.212729495288269
3599.99999999782,0.268785082068756,1.00000000004427,0.228184097267104
3699.99999999773,0.284199634694157,1.00000000006475,0.244021673999523
3799.99999999764,0.295203848071901,1.00000000009652,0.260175768056474
3899.99999999755,0.320167131353301,1.00000000013037,0.275587324141447
3999.99999999746,0.352040799382666,1.00000000015879,0.291258875988708
4099.99999999738,0.394025197864447,1.00000000020656,0.306372265447734
4199.99999999775,0.47474040004556,1.00000000024913,0.320896633294907
4299.99999999811,0.570652366653125,1.00000000028372,0.335598931313642
4399.99999999848,0.719113048564635,1.00000000032337,0.349211462264505
4499.99999999884,0.932041718749366,1.00000000037605,0.36259965048896
4599.9999999992,1.19423761814347,1.00000000041427,0.375833298144526
4699.99999999957,1.56680566252816,1.00000000043548,0.387965615633991
4799.99999999993,2.02701775545145,1.00000000047415,0.400218314314719
4900.00000000029,2.59720762586071,1.00000000054494,0.411439852612487
5000.00000000066,3.32683081653904,1.00000000055572,0.422273111214893
5100.00000000102,4.1741485835762,1.00000000057813,0.433214303022745
5200.00000000139,5.20244589860286,1.00000000061327,0.442767763684209
5300.00000000175,6.41399885086898,1.00000000063401,0.452363963771687
5400.00000000211,7.78596623808629,1.00000000067557,0.461563456334993
5500.00000000248,9.39402647563089,1.00000000069811,0.469739600009117
5600.00000000284,11.1891243577098,1.00000000072888,0.478152729436096
5700.00000000321,13.1971855331431,1.00000000068417,0.485803630727757
5800.00000000357,15.4573180833731,1.00000000073273,0.492742508115442
5900.00000000393,17.9046465139574,1.00000000075463,0.499915590819942
6000.0000000043,20.6093513915993,1.0000000007435,0.505974432630858
6100.00000000466,23.5435109306318,1.00000000077241,0.512075249918765
6200.00000000502,26.6783923655874,1.00000000078913,0.517769743825313
6300.00000000539,30.0796977739192,1.00000000079646,0.522717409898543
6400.00000000575,33.6691246882925,1.00000000082739,0.5280164956774
6500.00000000612,37.4823494688243,1.000000000768,0.532569981887058
6600.00000000648,41.5270388910592,1.00000000082099,0.536681408055
6700.00000000684,45.731242829934,1.00000000080059,0.541090730601449
6800.00000000721,50.1636018812534,1.00000000083185,0.544426973898505
6900.00000000757,54.7625945465051,1.00000000080336,0.548152961060674
7000.00000000793,59.5184949232147,1.00000000080631,0.551410684922677
7100.0000000083,64.4691269878824,1.00000000081353,0.554086247073847
7200.00000000866,69.5266293834604,1.00000000081312,0.557257258016716
7300.00000000903,74.7409674831876,1.00000000081684,0.559559379840153
7400.00000000939,80.0823731396218,1.00000000081306,0.561866791109664
7500.00000000975,85.5040333414353,1.00000000078358,0.564381326587612
7600.00000001012,91.0584244259841,1.00000000081181,0.565908547506876
7700.00000001048,96.666614774498,1.00000000076785,0.568209492730338
7800.00000001084,102.349078614516,1.00000000076789,0.569679821941353
7900.00000001121,108.107824008379,1.00000000078882,0.570949227176714
8000.00000001157,113.876990752256,1.00000000078276,0.572725389087494
8100.00000001194,119.706809788303,1.00000000077566,0.573615019366632
8200.0000000123,125.541037719759,1.00000000074647,0.574972897286989
8300.00000001266,131.372816014825,1.00000000072665,0.57599739694985
8400.00000001303,137.22618384258,1.00000000075014,0.576432354522251
8500.00000001339,143.033206128836,1.00000000074825,0.577612253928673
8600.00000001376,148.831825749848,1.0000000007331,0.578135011133827
8700.00000001412,154.592217859022,1.00000000072219,0.578558991244067
8800.00000001448,160.288964962065,1.0000000007128,0.579239466831055
8900.00000001485,165.955009734752,1.00000000071724,0.5791616301815
9000.00000001521,171.533266670438,1.00000000070524,0.579948888086898
9100.00000001557,177.045177472128,1.0000000006939,0.579789588448999
9200.00000001594,182.48303593416,1.00000000070782,0.580024545376217
9300.0000000163,187.813143505726,1.0000000006808,0.580103521759145
9400.00000001667,193.067648126021,1.00000000067528,0.580246411003282
9500.00000001703,198.206973703037,1.00000000066031,0.580330701879355
9600.00000001739,203.236214017973,1.0000000006527,0.579865556372778
9700.00000001776,208.164942319852,1.00000000065973,0.58033120667787
9800.00000001812,212.956766544716,1.00000000065156,0.579322919495911
9900.00000001848,217.640113130549,1.00000000061961,0.580206118138483
10000.0000000188,222.190616699088,1.00000000062703,0.579126897360691
10100.0000000192,226.6026928118,1.00000000060387,0.579299877162991
10200.0000000196,230.896053395796,1.00000000062211,0.579175796224915
10300.0000000199,235.037336698872,1.00000000060036,0.578169664592361
10400.0000000203,239.049244665986,1.00000000060748,0.578692551248922
10500.0000000207,242.919402279389,1.00000000059981,0.578128561394697
10600.000000021,246.639178368148,1.00000000058875,0.577612681300636
10700.0000000214,250.227742635669,1.00000000060038,0.577332658015616
10800.0000000218,253.660757620144,1.00000000056568,0.577227732332392
10900.0000000221,256.954208070715,1.00000000055681,0.576268504812664
11000.0000000225,260.10190804007,1.00000000059166,0.576133525158031
11100.0000000229,263.09689826273,1.00000000053246,0.576430726008867
11200.0000000232,265.956704484773,1.00000000055986,0.574566294419879
11300.0000000236,268.661588063391,1.00000000054885,0.575610595678116
11400.0000000239,271.226869001862,1.00000000054807,0.574762574670296
11500.0000000243,273.64936163975,1.00000000053127,0.573475047851969
11600.0000000247,275.921758562993,1.00000000053068,0.574896987805322
11700.000000025,278.063558642509,1.0000000005074,0.572998845217861
11800.0000000254,280.058289608093,1.00000000049944,0.572138457844973
11900.0000000258,281.915057433501,1.00000000050478,0.57342461358843
12000.0000000261,283.642483514612,1.00000000050479,0.572350994934752
12100.0000000265,285.227105340321,1.00000000048137,0.571570167636595
12200.0000000269,286.687061901792,1.0000000004819,0.571317942242359
12300.0000000272,288.01367043487,1.00000000047936,0.571373045590032
12400.0000000276,289.21204812977,1.00000000048405,0.572447015237529
12500.0000000279,290.292937918192,1.00000000046961,0.570306197770526
12600.0000000283,291.245480924192,1.00000000044677,0.567839411877287
12700.0000000287,292.080845612439,1.00000000043558,0.570553911964905
12800.000000029,292.801629575012,1.00000000046454,0.573168835648963
12900.0000000294,293.41209872077,1.00000000044672,0.570477759416335
13000.0000000298,293.916421457794,1.00000000043473,0.565163975347258
13100.0000000301,294.304123215204,1.00000000041854,0.566758438322796
13200.0000000305,294.593235629837,1.00000000043177,0.573328583733091
13300.0000000309,294.79275449959,1.00000000044849,0.572667727221824
13400.0000000312,294.899669799205,1.00000000041918,0.565075305499687
13500.0000000316,294.910408615856,1.00000000040577,0.5595251075198
13600.0000000319,294.821930995027,1.00000000042321,0.567578950314519
13700.0000000323,294.660417477963,1.00000000046073,0.575491853414372
13800.0000000327,294.435853924242,1.00000000046007,0.570527997044815
13900.000000033,294.135778296957,1.00000000039856,0.557988904450292
14000.0000000334,293.751924328012,1.00000000037643,0.553320137695961
14100.0000000338,293.286944117379,1.00000000042381,0.566373219284898
14200.0000000341,292.772718151755,1.00000000049356,0.578039699919709
14300.0000000345,292.222060612506,1.00000000047886,0.569667908550995
14400.0000000349,291.613245202891,1.00000000039273,0.55254870209551
14500.0000000352,290.933919401583,1.00000000033969,0.543486884858215
14600.0000000356,290.185345421637,1.00000000041487,0.559821351188486
14700.0000000359,289.402440705104,1.00000000052156,0.579513441480523
14800.0000000363,288.605859601875,1.00000000050425,0.573185841128995
14900.0000000367,287.775810720564,1.0000000004144,0.553234979241727
15000.000000037,286.892777006679,1.00000000032475,0.534140997278255
15100.0000000374,285.945204360801,1.00000000036921,0.541586622641777
15200.0000000378,284.963195861593,1.00000000047074,0.570677559251427
15300.0000000381,283.979471671611,1.0000000005815,0.582450189913471
15400.0000000385,282.991948909517,1.0000000004649,0.563032669881738
15500.0000000389,281.979589246401,1.00000000039208,0.537918524734546
15600.0000000392,280.917106161863,1.00000000031349,0.521077769660557
15700.0000000396,279.807295059082,1.00000000039304,0.537352740802957
15800.0000000399,278.682375613935,1.00000000051441,0.572768092261917
15900.0000000403,277.56639281741,1.0000000006079,0.582822777717135
16000.0000000407,276.462894069949,1.00000000050886,0.560724532541188
16100.000000041,275.342923395884,1.00000000038481,0.530669746222117
16200.0000000414,274.185467035451,1.0000000003127,0.510520324310272
16300.0000000418,272.989140567612,1.00000000035738,0.520017947189041
16400.0000000418,271.775726700915,1.0000000004811,0.562125950754331
16500.0000000404,270.577467469949,1.0000000005997,0.584749157042458
16600.0000000389,269.400369924403,1.00000000058717,0.569896840899967
16700.0000000375,268.226557983338,1.00000000044707,0.538248450247523
16800.000000036,267.035904153301,1.00000000032994,0.510523552849951
16900.0000000346,265.811183958522,1.00000000030795,0.501784673839276
17000.0000000331,264.564597786501,1.00000000039367,0.525836854363333
17100.0000000317,263.317751300578,1.00000000056494,0.566281010978764
17200.0000000302,262.090591501333,1.00000000062372,0.582538495215928
17300.0000000287,260.886991751569,1.00000000057814,0.563202519080872
17400.0000000273,259.689522884316,1.00000000045999,0.530190125993038
17500.0000000258,258.482042670151,1.00000000035652,0.505598744118891
17600.0000000244,257.253894337223,1.00000000032906,0.498519262274756
17700.0000000229,256.008197373916,1.00000000038093,0.513471833193589
17800.0000000215,254.762817576806,1.00000000051467,0.548785613564064
17900.00000002,253.532110766247,1.00000000060284,0.574911026399892
18000.0000000186,252.323277084118,1.00000000060274,0.569650787409351
18100.0000000171,251.130963046586,1.00000000049765,0.541461968628753
18200.0000000156,249.940383131682,1.00000000040673,0.512576262339842
18300.0000000142,248.743666215479,1.00000000035579,0.50006675518845
18400.0000000127,247.535199653623,1.0000000003519,0.501645006080381
18500.0000000113,246.321009687213,1.00000000041667,0.515241834363644
18600.0000000098,245.1108367842,1.00000000049019,0.539582127149829
18700.0000000084,243.913208130844,1.00000000055986,0.562340052027803
18800.0000000069,242.733898414395,1.00000000057046,0.562861038546139
18900.0000000055,241.569776741372,1.00000000051643,0.54056657438463
19000.000000004,240.412771967453,1.0000000004317,0.516402519111553
19100.0000000026,239.257320040948,1.00000000038399,0.503819424842234
19200.0000000011,238.098807684874,1.0000000003866,0.504612437213103
19299.9999999996,236.940262994471,1.00000000039091,0.509367898148054
19399.9999999982,235.78309739433,1.00000000042949,0.517416879404134
19499.9999999967,234.632526968673,1.00000000048581,0.533291501172107
19599.9999999953,233.494021218491,1.00000000053897,0.548272603050408
19699.9999999938,232.368890649152,1.00000000055079,0.549595783004971
19799.9999999924,231.255920695836,1.00000000050964,0.535019040749669
19899.9999999909,230.151804235557,1.00000000046857,0.518914331133378
19999.9999999895,229.052746596887,1.00000000041088,0.509203575855005
20099.999999988,227.958611484024,1.00000000040245,0.510565438746366
20199.9999999865,226.867457561699,1.00000000040829,0.512221480246828
20299.9999999851,225.781331144219,1.00000000041966,0.512974458871143
20399.9999999836,224.700788081591,1.00000000043851,0.515712912067789
20499.9999999822,223.627704155255,1.00000000048503,0.524500233535429
20599.9999999807,222.564816955341,1.00000000051512,0.534644697007894
20699.9999999793,221.512245062012,1.00000000052098,0.538116515603075
20799.9999999778,220.469496055232,1.00000000049413,0.533973842859869
20899.9999999764,219.435828411476,1.00000000047122,0.523601482300533
20999.9999999749,218.409801782975,1.0000000004465,0.518893098304336
21099.9999999734,217.391841508703,1.00000000042968,0.519108285596282
21199.999999972,216.38075062174,1.0000000004279,0.518795674237838
21299.9999999705,215.376902913717,1.00000000040777,0.514560640671741
21399.9999999691,214.379840837113,1.00000000042022,0.511467205908767
21499.9999999676,213.389845017994,1.00000000043921,0.511270963474181
21599.9999999662,212.408260099229,1.00000000045254,0.514743487882355
21699.9999999647,211.435435094048,1.00000000048944,0.524268930147046
21799.9999999633,210.47112072908,1.00000000050411,0.533919798990465
21899.9999999618,209.51569552331,1.00000000048941,0.536142673286283
21999.9999999603,208.568515445758,1.00000000047902,0.53111772991896
22099.9999999589,207.62980833921,1.0000000004584,0.527554434263966
22199.9999999574,206.69955989069,1.0000000004564,0.527793556577581
22299.999999956,205.778067976348,1.00000000044137,0.529521856218842
22399.9999999545,204.865493934352,1.00000000044311,0.525593328085865
22499.9999999531,203.961366678916,1.00000000038879,0.513263696463771
22599.9999999516,203.066326529842,1.00000000038509,0.503883969337108
22699.9999999502,202.180213414072,1.00000000041058,0.501110997302657
22799.9999999487,201.302943546907,1.00000000045324,0.509589582236113
22899.9999999473,200.434378453644,1.00000000047205,0.516285561944761
22999.9999999458,199.57351272464,1.00000000050701,0.528338934259773
23099.9999999443,198.719683622057,1.00000000048708,0.535909860019075
23199.9999999429,197.873606891711,1.00000000045249,0.535469821301653
23299.9999999414,197.035252028423,1.0000000004461,0.53039800193661
23399.99999994,196.204803593883,1.00000000046588,0.53146792802844
23499.9999999385,195.381772656379,1.00000000048688,0.540629912632781
23599.9999999371,194.566713466761,1.00000000048227,0.537543529704235
23699.9999999356,193.760423352711,1.00000000043734,0.528465638461896
23799.9999999342,192.964372363679,1.00000000038623,0.511256880544007
23899.9999999327,192.180024910871,1.00000000034021,0.494204150334191
23999.9999999312,191.407505708496,1.00000000036385,0.489664103593751
24099.9999999298,190.645502582011,1.00000000043582,0.497797793200956
24199.9999999283,189.89226064313,1.00000000048199,0.509055232983132
24299.9999999269,189.145563691253,1.00000000051928,0.519878277277495
24399.9999999254,188.404187039128,1.00000000050073,0.522916032692486
24499.999999924,187.668444914322,1.00000000046982,0.528710393037519
24599.9999999225,186.938948365502,1.00000000042806,0.534152148639293
24699.9999999211,186.216457641707,1.00000000043869,0.531109454279802
24799.9999999196,185.500099959157,1.00000000047694,0.533948070151882
24899.9999999181,184.78884525669,1.00000000051362,0.545466432452002
24999.9999999167,184.082348395006,1.00000000052984,0.547449901769057
25099.9999999152,183.382363852028,1.00000000048845,0.533942014279008
25199.9999999138,182.691839045957,1.00000000040446,0.518320249747362
25299.9999999123,182.014019132743,1.00000000034724,0.499444139805319
25399.9999999109,181.350951043931,1.00000000032528,0.485040224704024
25499.9999999094,180.702033599205,1.00000000036358,0.482202342838257
25599.999999908,180.064710624913,1.00000000043182,0.490542524499674
25699.9999999065,179.435370884311,1.00000000047972,0.50315320982314
25799.9999999051,178.811166555514,1.00000000049546,0.514299849579414
25899.9999999036,178.189760636711,1.00000000051919,0.515046045126361
25999.9999999021,177.571877997363,1.00000000047946,0.515343899495339
26099.9999999007,176.957978661095,1.00000000046599,0.525317632924622
26199.9999998992,176.348824756082,1.00000000045861,0.533286728236996
26299.9999998978,175.744224628686,1.00000000047974,0.534860764590548
26399.9999998963,175.142893617931,1.00000000049169,0.536078336587023
26499.9999998949,174.544235620847,1.00000000052079,0.541319436563358
26599.9999998934,173.947938867582,1.00000000053523,0.545829747110967
26699.999999892,173.355890198057,1.00000000048199,0.535310823524989
26799.9999998905,172.77149883726,1.00000000041907,0.518822797888341
26899.999999889,172.198249457274,1.00000000038371,0.505901092050758
26999.9999998876,171.639221633863,1.00000000033772,0.494156860732557
27099.9999998861,171.096002293476,1.00000000036115,0.483740157924865
27199.9999998847,170.566900158851,1.00000000038919,0.482751743948999
27299.9999998832,170.049356082967,1.00000000044035,0.486940372622225
27399.9999998818,169.539431333475,1.000000000494,0.496531211457862
27499.9999998803,169.034404941814,1.0000000004952,0.504969656437691
27599.9999998789,168.531474894069,1.00000000049356,0.511474061337868
27699.9999998774,168.029842522362,1.00000000049159,0.510836719372998
27799.9999998759,167.529150515344,1.00000000048479,0.5162407263833
27899.9999998745,167.029292364601,1.00000000048696,0.52494754457
27999.999999873,166.531158546938,1.0000000004956,0.53343320593882
28099.9999998716,166.034704797891,1.00000000050146,0.536627206338788
28199.9999998701,165.539734127503,1.0000000004788,0.534776541059109
28299.9999998687,165.047206041661,1.00000000049766,0.531735912765662
28399.9999998672,164.556819826091,1.00000000050372,0.535810647787001
28499.9999998658,164.069092997903,1.0000000005129,0.534595462233
28599.9999998643,163.586308974266,1.00000000045755,0.523787104615976
28699.9999998629,163.111001304715,1.00000000045303,0.515371090055028
28799.9999998614,162.645516410826,1.00000000041559,0.507071261293088
28899.9999998599,162.192232344576,1.00000000040391,0.501157068577098
