Time,AGPnorm,Energy,Entropy
0,0,1,-1.06780883460511e-19
99.9999999999986,0.00250949870171274,0.999999999999127,0.00840130084800669
199.999999999993,0.00696996408408036,1.00000000000047,0.0248220664254675
300,0.0149126260122985,0.999999999998791,0.0484624266483361
400.000000000022,0.0241329383267957,1.00000000000106,0.0776452150694733
500.000000000045,0.035280135114193,0.999999999999134,0.113368928842309
600.000000000068,0.0472556506094737,1.00000000000411,0.157030392639323
700.000000000091,0.0590648548128807,1.00000000001915,0.21199802124921
800.000000000113,0.0814690695383219,1.00000000009394,0.27930629082233
900.000000000136,0.136098476541409,1.00000000025279,0.351981329975742
1000.00000000016,0.363508366301776,1.00000000047218,0.417001650392628
1100.0000000001,0.942756393128388,1.00000000066885,0.467920527399871
1200,2.1405718235277,1.0000000008057,0.503227743103394
1299.99999999991,4.10961227026645,1.00000000093721,0.526988313441433
1399.99999999982,6.93676018927787,1.00000000102675,0.540200274014896
1499.99999999973,10.5432602261347,1.00000000103492,0.547576393721631
1599.99999999964,14.8212429337107,1.00000000108638,0.54893260695409
1699.99999999955,19.533847968327,1.00000000102955,0.548237100244793
1799.99999999946,24.5202415181838,1.00000000100803,0.54350074308028
1899.99999999937,29.5171945121433,1.00000000097141,0.537789677558525
1999.99999999928,34.4031293498855,1.00000000093508,0.532419288265895
2099.99999999919,38.9656920130094,1.00000000088682,0.523431577705425
2199.99999999909,43.1438936993117,1.00000000081915,0.516400574599923
2299.999999999,46.8206526728376,1.00000000073777,0.515452082903146
2399.99999999891,49.972931823971,1.00000000072775,0.496444258073087
2499.99999999882,52.5544459661231,1.00000000067292,0.49795859745462
2599.99999999873,54.6199351710626,1.00000000065698,0.51091362348341
2699.99999999864,56.1657656912964,1.00000000059599,0.474553389612287
2799.99999999855,57.1349674499777,1.00000000055102,0.461930146787429
2899.99999999846,57.7023057833762,1.00000000064953,0.519082796994888
2999.99999999837,58.011910523479,1.00000000061007,0.511524072992679
3099.99999999828,57.9459476597252,1.00000000039447,0.420120472705335
3199.99999999819,57.4317110293581,1.00000000042306,0.428942574345843
3299.99999999809,56.752351833173,1.00000000069243,0.527573743542083
3399.999999998,56.1251779927124,1.00000000078954,0.552295743595374
3499.99999999791,55.451633654015,1.00000000051027,0.455420285107751
3599.99999999782,54.514067626097,1.00000000021664,0.328258239579883
3699.99999999773,53.3627752873096,1.00000000041384,0.397759185744227
3799.99999999764,52.2128607518994,1.00000000079617,0.513874016510499
3899.99999999755,51.1967261320454,1.00000000091029,0.557282535986965
3999.99999999746,50.3192003205785,1.00000000078055,0.535134302536226
4099.99999999738,49.4383209472751,1.00000000047977,0.416857445892621
4199.99999999775,48.4372035424551,1.00000000021814,0.281179571094885
4299.99999999811,47.3744115200766,1.0000000002764,0.308480843249485
4399.99999999848,46.3260640276915,1.00000000056047,0.446750902140579
4499.99999999884,45.312761565498,1.00000000073632,0.50796352718952
4599.9999999992,44.3644274171558,1.00000000083816,0.513061683550719
4699.99999999957,43.5094217675051,1.00000000082248,0.544906013346432
4799.99999999993,42.7281033232964,1.00000000072928,0.535321370368773
4900.00000000029,41.9527579913251,1.00000000043482,0.432515370776994
5000.00000000066,41.1571582793709,1.00000000025107,0.302021594097941
5100.00000000102,40.4054237639704,1.00000000024193,0.259382090131475
5200.00000000139,39.7515377502355,1.00000000036204,0.331465419357467
5300.00000000175,39.1492232809936,1.00000000062821,0.438211712628253
5400.00000000211,38.5244962461712,1.00000000075325,0.522935683664093
5500.00000000248,37.8808638172936,1.00000000063539,0.522480173258628
5600.00000000284,37.2467269244004,1.00000000054304,0.458515768475706
5700.00000000321,36.62071968964,1.00000000065746,0.457085399966122
5800.00000000357,35.9959631406839,1.00000000082415,0.524312514019014
5900.00000000393,35.3928308804066,1.0000000008653,0.564442642364028
6000.0000000043,34.8230938311423,1.00000000071911,0.545558855592977
6100.00000000466,34.2704172771438,1.00000000048191,0.465440651863274
6200.00000000502,33.74556727624,1.00000000026518,0.352770468484179
6300.00000000539,33.3207475399788,1.00000000017678,0.265894507089938
6400.00000000575,33.0623583994789,1.00000000026115,0.26046551144976
6500.00000000612,32.9555168142786,1.0000000004131,0.329055083009708
6600.00000000648,32.9238031303366,1.00000000056037,0.416254475514107
6700.00000000684,32.8698913023894,1.00000000065021,0.483286223130393
6800.00000000721,32.7282531541717,1.00000000071562,0.507894689592221
6900.00000000757,32.4889461463773,1.00000000074583,0.517238964472433
7000.00000000793,32.177771625677,1.00000000073155,0.538427247068028
7100.0000000083,31.8419198960115,1.00000000058973,0.527120119135783
7200.00000000866,31.5254571158528,1.00000000041563,0.473325257204167
7300.00000000903,31.2445877833506,1.00000000042023,0.452791063868949
7400.00000000939,30.9675059814037,1.00000000056858,0.479988682329845
7500.00000000975,30.6611282978556,1.00000000064476,0.499022815042198
7600.00000001012,30.3232792642113,1.00000000072655,0.497299532799899
7700.00000001048,29.9587838480079,1.0000000007993,0.512019793537847
7800.00000001084,29.5821618300382,1.00000000088995,0.546582236014897
7900.00000001121,29.2130583117777,1.00000000089305,0.567330655678859
8000.00000001157,28.8570370586567,1.00000000073274,0.551520751245883
8100.00000001194,28.5080452284412,1.00000000049453,0.496510889184066
8200.0000000123,28.1794065225922,1.00000000033452,0.415038047413337
8300.00000001266,27.9249116606023,1.00000000020682,0.334725878741679
8400.00000001303,27.8200945944349,1.00000000017609,0.278186563808426
8500.00000001339,27.9189939523453,1.00000000022825,0.262181908849708
8600.00000001376,28.2247078391581,1.00000000032515,0.295247251636768
8700.00000001412,28.6857975738071,1.00000000043435,0.348870440131123
8800.00000001448,29.1947968358073,1.00000000061352,0.412060813282543
8900.00000001485,29.6569079532126,1.00000000068486,0.469530709462284
9000.00000001521,30.0234693183406,1.00000000068891,0.504340272602128
9100.00000001557,30.2810614518918,1.00000000069199,0.524673269391358
9200.00000001594,30.4345484537217,1.00000000071944,0.545795587725363
9300.0000000163,30.4973486304836,1.00000000065393,0.556064047228971
9400.00000001667,30.5010279448859,1.00000000059744,0.53900321406544
9500.00000001703,30.4718542736478,1.00000000055372,0.509159120020694
9600.00000001739,30.4122317513393,1.00000000064448,0.500075758914962
9700.00000001776,30.304280811424,1.00000000073346,0.516786070679899
9800.00000001812,30.1485135950239,1.00000000070645,0.534361477714596
9900.00000001848,29.9747823826458,1.00000000057364,0.530375771936741
10000.0000000188,29.8131555015433,1.00000000049966,0.504075843896439
10100.0000000192,29.6734151985706,1.00000000050753,0.484254691738041
10200.0000000196,29.5448653949481,1.00000000056264,0.48072502060565
10300.0000000199,29.4211741437766,1.000000000603,0.489087205250067
10400.0000000203,29.2987674029149,1.00000000057153,0.495849299325086
10500.0000000207,29.173703939042,1.00000000055712,0.505728969503012
10600.000000021,29.0408448583375,1.00000000062904,0.520736582952893
10700.0000000214,28.8921601793402,1.00000000062368,0.538105399425732
10800.0000000218,28.7309719426426,1.00000000056107,0.542536033784576
10900.0000000221,28.5664407592473,1.00000000051276,0.537848031085636
11000.0000000225,28.4028326344622,1.00000000048255,0.535611352673221
11100.0000000229,28.233754195831,1.00000000054807,0.535961178534478
11200.0000000232,28.0506232044837,1.00000000060976,0.539019878340739
11300.0000000236,27.8499589985529,1.0000000006509,0.540628289197589
11400.0000000239,27.6321944931644,1.00000000074666,0.545696597972478
11500.0000000243,27.403605546893,1.00000000075579,0.551245651929518
11600.0000000247,27.1747941809407,1.00000000086829,0.55561055115485
11700.000000025,26.9582351842411,1.00000000090554,0.564710453525103
11800.0000000254,26.7631235882452,1.00000000088616,0.57239588003883
11900.0000000258,26.5875776362741,1.00000000081245,0.573740061655347
12000.0000000261,26.418517984183,1.0000000006983,0.560756511032564
12100.0000000265,26.237734718267,1.00000000057682,0.528989142086647
12200.0000000269,26.0377634645631,1.00000000042386,0.4808702791336
12300.0000000272,25.8332427080383,1.00000000030389,0.425905311800638
12400.0000000276,25.6615983284411,1.00000000022547,0.368212501898566
12500.0000000279,25.577541248558,1.0000000001697,0.319952245285279
12600.0000000283,25.6385775304463,1.00000000018857,0.291679135773143
12700.0000000287,25.890166911729,1.00000000019625,0.27758981371543
12800.000000029,26.3637742494917,1.00000000023358,0.276961860294395
12900.0000000294,27.045705919062,1.00000000033661,0.301697863471813
13000.0000000298,27.8869024642665,1.00000000042919,0.339643514495273
13100.0000000301,28.8291618869822,1.00000000052806,0.37996804625278
13200.0000000305,29.7955058896447,1.00000000062552,0.420940816099349
13300.0000000309,30.716270261168,1.00000000071351,0.457928602765075
13400.0000000312,31.5552422859274,1.00000000068568,0.48696521815414
13500.0000000316,32.2988911524587,1.00000000070194,0.504916719209345
13600.0000000319,32.9388348752161,1.00000000067711,0.527092522911423
13700.0000000323,33.4757381531656,1.00000000067893,0.548554917521635
13800.0000000327,33.9156781828801,1.00000000068443,0.561315016597847
13900.000000033,34.2692422555482,1.00000000065461,0.555508772496609
14000.0000000334,34.5566221114436,1.0000000005968,0.546420552080521
14100.0000000338,34.7886690587744,1.00000000059404,0.551765539183572
14200.0000000341,34.9647522947596,1.00000000063781,0.570844156281704
14300.0000000345,35.0840553150464,1.00000000067217,0.576848033474236
14400.0000000349,35.1554834267337,1.00000000064088,0.570321925504637
14500.0000000352,35.1861959119255,1.00000000063033,0.554961587690436
14600.0000000356,35.1815048846469,1.00000000062475,0.540777069284459
14700.0000000359,35.1554416373462,1.00000000055917,0.529287448363225
14800.0000000363,35.1175711718797,1.00000000058167,0.529692122664667
14900.0000000367,35.0607266172894,1.0000000006379,0.542878548130798
15000.000000037,34.9819611713301,1.00000000060661,0.545896906481196
15100.0000000374,34.8902295465925,1.00000000055723,0.552282226974797
15200.0000000378,34.7887213345863,1.000000000619,0.557384942441724
15300.0000000381,34.6739924765915,1.00000000062504,0.556598119730696
15400.0000000385,34.546364612905,1.00000000062657,0.552491703262403
15500.0000000389,34.4111071991612,1.00000000063263,0.551504578201848
15600.0000000392,34.2744706779275,1.00000000054608,0.539991915774869
15700.0000000396,34.1438133329318,1.00000000047941,0.529859319107222
15800.0000000399,34.0212967586,1.00000000049341,0.529530844265988
15900.0000000403,33.8991423140576,1.00000000056694,0.53130347583765
16000.0000000407,33.7694167612333,1.00000000062745,0.534538319473453
16100.000000041,33.6318135894085,1.00000000066366,0.538337588637033
16200.0000000414,33.4857887266822,1.00000000067597,0.544184405058217
16300.0000000418,33.3294871504101,1.0000000006956,0.557565964370794
16400.0000000418,33.1647913525728,1.00000000066123,0.562018031679971
16500.0000000404,32.9990086202118,1.00000000057757,0.555187165229681
16600.0000000389,32.8385522977524,1.00000000055833,0.55285302051359
16700.0000000375,32.6904263296146,1.00000000051434,0.540384219278123
16800.000000036,32.5621678204069,1.00000000046277,0.524482362445589
16900.0000000346,32.4581716029317,1.00000000043644,0.508218907449013
17000.0000000331,32.3751984963211,1.00000000052275,0.493607599541626
17100.0000000317,32.30352686495,1.00000000061223,0.486854311295357
17200.0000000302,32.2353695984409,1.00000000061868,0.495889154522639
17300.0000000287,32.1714289834159,1.00000000055111,0.50108743342425
17400.0000000273,32.1172989183965,1.00000000053998,0.504889382716188
17500.0000000258,32.0693661369768,1.00000000057798,0.520764301160251
17600.0000000244,32.0230976507474,1.00000000056183,0.537417208242832
17700.0000000229,31.9754359349623,1.00000000059113,0.547713209386134
17800.0000000215,31.9190712888454,1.00000000064353,0.549102867772853
17900.00000002,31.8510390488362,1.000000000617,0.54035599464831
18000.0000000186,31.7770271225305,1.00000000062105,0.536609172656177
18100.0000000171,31.702451154162,1.00000000055193,0.541833656651857
18200.0000000156,31.6246089927361,1.00000000059177,0.549952427799863
18300.0000000142,31.5413611467497,1.00000000057626,0.561009513043567
18400.0000000127,31.4548017081567,1.00000000058743,0.575340508582556
18500.0000000113,31.3678115686606,1.00000000057423,0.577680363034753
18600.0000000098,31.2773220526391,1.00000000062008,0.581861439485592
18700.0000000084,31.1791127978372,1.00000000063855,0.58311100177594
18800.0000000069,31.0731482693468,1.00000000066581,0.586045753576423
18900.0000000055,30.9586906760315,1.0000000006486,0.585691774101087
19000.000000004,30.8389935779546,1.00000000062227,0.589728261517303
19100.0000000026,30.7194902080017,1.00000000055067,0.587253239113107
19200.0000000011,30.6055760419337,1.00000000049972,0.575943631013827
19299.9999999996,30.4952672381354,1.00000000057728,0.571284065394214
19399.9999999982,30.3815046385604,1.00000000066848,0.568461334972953
19499.9999999967,30.2639748841995,1.00000000061614,0.554640317685104
19599.9999999953,30.1477571411302,1.00000000054862,0.550782059002296
19699.9999999938,30.0361670365215,1.00000000053769,0.556197159156256
19799.9999999924,29.926721686155,1.00000000053121,0.559817912193338
19899.9999999909,29.8178611043677,1.00000000059731,0.563088364295158
19999.9999999895,29.7098075857242,1.00000000052992,0.566956139734882
20099.999999988,29.6036880852321,1.00000000057792,0.573147521757049
20199.9999999865,29.4981083628823,1.00000000056936,0.566014712673016
20299.9999999851,29.3886079131549,1.00000000062992,0.566560533881226
20399.9999999836,29.2730789295831,1.00000000060149,0.574879310815926
20499.9999999822,29.152514276233,1.00000000061757,0.566767591796491
20599.9999999807,29.0299025931688,1.00000000060299,0.557262816231723
20699.9999999793,28.9055672848816,1.00000000060956,0.562101500745546
20799.9999999778,28.778429911567,1.00000000068578,0.581949271336638
20899.9999999764,28.648554871604,1.00000000065969,0.595873573495493
20999.9999999749,28.5184364304143,1.0000000005938,0.592668314535034
21099.9999999734,28.3895058045059,1.00000000052085,0.580960215025213
21199.999999972,28.2626780466618,1.0000000005491,0.579581112271238
21299.9999999705,28.1359607882098,1.0000000006358,0.585317692702084
21399.9999999691,28.007343404923,1.0000000006822,0.592292463970487
21499.9999999676,27.878551017229,1.00000000065084,0.599889515459606
21599.9999999662,27.7506760399059,1.00000000052985,0.58555016713984
21699.9999999647,27.6239556913858,1.00000000047074,0.569229243530619
21799.9999999633,27.4984026018165,1.00000000050431,0.577364911921285
21899.9999999618,27.3736817032318,1.00000000054336,0.58703415595969
21999.9999999603,27.2500051437826,1.00000000049327,0.585394043599793
22099.9999999589,27.1276930871011,1.00000000052749,0.580384735815098
22199.9999999574,27.0067921178152,1.00000000053154,0.581963615998602
22299.999999956,26.8883966443083,1.00000000058668,0.593505071502145
22399.9999999545,26.773505128671,1.00000000062186,0.588106153050322
22499.9999999531,26.6645483132005,1.00000000064596,0.581262160737527
22599.9999999516,26.5644218662172,1.0000000006607,0.592575190607642
22699.9999999502,26.4763385093416,1.00000000069301,0.598887440335671
22799.9999999487,26.4072747565725,1.0000000007087,0.596966804286254
22899.9999999473,26.3593035003725,1.00000000080149,0.597469530904111
22999.9999999458,26.3417951255514,1.0000000007952,0.605113613857674
23099.9999999443,26.3564015654943,1.0000000007998,0.609488344551893
23199.9999999429,26.4155483532682,1.00000000088278,0.615513548373094
23299.9999999414,26.5185764368089,1.00000000084995,0.618705755603764
23399.99999994,26.6706414355579,1.00000000082936,0.617679555265592
23499.9999999385,26.8710983658106,1.00000000089527,0.613107493743569
23599.9999999371,27.1175761202245,1.00000000091086,0.608012152655817
23699.9999999356,27.4128126618781,1.00000000090329,0.599627170165131
23799.9999999342,27.7333774936605,1.00000000085155,0.591319336288151
23899.9999999327,28.0737510116905,1.00000000081823,0.584258393010496
23999.9999999312,28.3956859248247,1.00000000070735,0.576523517554962
24099.9999999298,28.6913846635624,1.00000000060418,0.560501297533494
24199.9999999283,28.9278539077334,1.00000000057439,0.541510327678039
24299.9999999269,29.1000957639256,1.00000000047969,0.517289583203771
24399.9999999254,29.1999824988688,1.00000000040644,0.490329621996065
24499.999999924,29.2247867110219,1.00000000036646,0.460743994321308
24599.9999999225,29.1924996671973,1.00000000031649,0.430254894269705
24699.9999999211,29.1093888792477,1.00000000027875,0.40161116576184
24799.9999999196,29.0097172685159,1.0000000002264,0.372979480128798
24899.9999999181,28.912453731636,1.0000000002123,0.348068916045813
24999.9999999167,28.8554760647756,1.00000000019162,0.325755747514161
25099.9999999152,28.8703122613443,1.0000000001687,0.304577914511521
25199.9999999138,28.9906351144313,1.0000000001791,0.291533328819101
25299.9999999123,29.2466928433508,1.00000000016266,0.280533371642172
25399.9999999109,29.6718064136055,1.00000000016948,0.276091669942222
25499.9999999094,30.2716206930755,1.000000000209,0.280026241297948
25599.999999908,31.0812572502974,1.00000000023457,0.287994717796597
25699.9999999065,32.0682725975827,1.00000000029082,0.293862144817041
25799.9999999051,33.264149598727,1.00000000034504,0.309883662647434
25899.9999999036,34.603218762752,1.0000000003893,0.327287112561543
25999.9999999021,36.105214170161,1.00000000045927,0.344983017853004
26099.9999999007,37.6896308302907,1.00000000052349,0.366340977771622
26199.9999998992,39.3496378004412,1.00000000056416,0.382427895916776
26299.9999998978,41.0425925755977,1.00000000062229,0.400966540621248
26399.9999998963,42.7212375411528,1.00000000069908,0.418358148095104
26499.9999998949,44.3902978560669,1.00000000067879,0.437739331440116
26599.9999998934,45.9952527368155,1.00000000074124,0.44810266271309
26699.999999892,47.5544142177867,1.00000000073557,0.459956253651079
26799.9999998905,49.0176782546072,1.00000000076235,0.478031173461167
26899.999999889,50.4126060093605,1.00000000069769,0.493542198563755
26999.9999998876,51.7154090249456,1.00000000076233,0.505987424983192
27099.9999998861,52.9306139130166,1.00000000073599,0.506046495780827
27199.9999998847,54.0609338933979,1.00000000075253,0.518583326346359
27299.9999998832,55.0939628929128,1.00000000073108,0.532052339376968
27399.9999998818,56.0582367100375,1.00000000069214,0.545229276220512
27499.9999998803,56.9374861596974,1.00000000067046,0.550829326544264
27599.9999998789,57.7573565333261,1.00000000065188,0.552554479665348
27699.9999998774,58.4978414553539,1.00000000068787,0.553975953505594
27799.9999998759,59.174365744413,1.00000000068925,0.561534169832582
27899.9999998745,59.7839966645159,1.00000000066654,0.576571531250501
27999.999999873,60.3307515573233,1.00000000063925,0.579924422590394
28099.9999998716,60.8335741414608,1.00000000060416,0.582498393810711
28199.9999998701,61.2830741947608,1.00000000063012,0.577396690341612
28299.9999998687,61.6953470947819,1.00000000063044,0.578446341288529
28399.9999998672,62.0488655572593,1.0000000006817,0.587076767174444
28499.9999998658,62.3543609308438,1.00000000071689,0.598986959417588
28599.9999998643,62.6038216096882,1.00000000069306,0.604712431388785
28699.9999998629,62.8192186068674,1.0000000006315,0.603680567970234
28799.9999998614,63.0077976905607,1.00000000061922,0.592737478314896
28899.9999998599,63.1716038001142,1.00000000062475,0.5848256480724
28999.9999998585,63.3088587624213,1.00000000063517,0.586899962588563
