Time,AGPnorm,Energy,Entropy
0,0,1,1.70849413536793e-18
99.9999999999986,0.00638628623920917,0.999999999996576,0.0190447937902813
199.999999999993,0.0176414925666728,1.00000000000074,0.0558400908063392
300,0.036203113525136,0.999999999996742,0.110254896185337
400.000000000022,0.0538728615245458,1.00000000001421,0.186222682834225
500.000000000045,0.0714272952412265,1.00000000024005,0.297928960924416
600.000000000068,0.177617274551748,1.00000000110309,0.416351436328793
700.000000000091,0.6428588383202,1.00000000182951,0.499678080789471
800.000000000113,1.82108151715284,1.00000000233476,0.546273034175874
900.000000000136,3.84244157446624,1.00000000268901,0.569555008166741
1000.00000000016,6.48877520520252,1.00000000249593,0.578480326309277
1100.0000000001,9.51784642955237,1.0000000025547,0.578199927678089
1200,12.5498800163503,1.00000000233028,0.570830353468688
1299.99999999991,15.3449513165738,1.00000000234164,0.565602919268136
1399.99999999982,17.7224166250228,1.00000000212279,0.558855616234713
1499.99999999973,19.5666400000389,1.0000000019033,0.547913111114942
1599.99999999964,20.8876548936762,1.00000000159125,0.532480209824509
1699.99999999955,21.6922849909902,1.00000000167079,0.552432004122363
1799.99999999946,22.0529505589359,1.00000000126886,0.503731532507469
1899.99999999937,22.1033045525336,1.00000000174119,0.559854474197705
1999.99999999928,21.833630285041,1.00000000099278,0.469464580459808
2099.99999999919,21.4420933953243,1.000000002016,0.581415658112956
2199.99999999909,20.9398500945238,1.00000000081085,0.416207502706231
2299.999999999,20.3029035607502,1.000000002129,0.551915961862374
2399.99999999891,19.7555065200323,1.00000000178192,0.537155875498983
2499.99999999882,19.139792329802,1.00000000070503,0.365835385753816
2599.99999999873,18.4786501539789,1.0000000018781,0.530611290151502
2699.99999999864,17.9023907109008,1.00000000198,0.566460999295007
2799.99999999855,17.360173519831,1.00000000109185,0.409788425254738
2899.99999999846,16.8063824182553,1.00000000110434,0.400339031408679
2999.99999999837,16.2595335606599,1.00000000182326,0.526792711010349
3099.99999999828,15.7463099731284,1.00000000199685,0.547640635693833
3199.99999999819,15.2811695376055,1.00000000162108,0.531137073971524
3299.99999999809,14.8545237655792,1.00000000082431,0.368914625022782
3399.999999998,14.4804009750778,1.0000000013953,0.424705558193117
3499.99999999791,14.1088715711336,1.00000000183048,0.525967136503499
3599.99999999782,13.7469085147229,1.00000000146975,0.512337370540419
3699.99999999773,13.3900562177626,1.00000000215547,0.531902051547055
3799.99999999764,13.0395087278352,1.00000000187468,0.570652899726526
3899.99999999755,12.7277975085328,1.00000000102785,0.441082564587337
3999.99999999746,12.5076697384902,1.0000000008422,0.368084410056454
4099.99999999738,12.3506727426457,1.0000000015662,0.45118812918071
4199.99999999775,12.1776735365954,1.00000000170332,0.517765489854199
4299.99999999811,11.9839618219492,1.00000000172965,0.5487846823793
4399.99999999848,11.7827834371623,1.000000001363,0.542052621600793
4499.99999999884,11.5853592886918,1.00000000141005,0.537786890729463
4599.9999999992,11.3741902482488,1.00000000173089,0.533674470497922
4699.99999999957,11.1474047016209,1.00000000205084,0.578818510507231
4799.99999999993,10.9271065095873,1.00000000150291,0.54837290234545
4900.00000000029,10.7626432708035,1.00000000084463,0.430747907709266
5000.00000000066,10.7128761273083,1.0000000009067,0.38827649205922
5100.00000000102,10.7408622359125,1.00000000133585,0.434869975007994
5200.00000000139,10.7622124486057,1.00000000172564,0.508694160484048
5300.00000000175,10.7391166524899,1.00000000168501,0.549434591052276
5400.00000000211,10.702320968333,1.00000000151394,0.551511507399103
5500.00000000248,10.650216368232,1.00000000152259,0.570820677836643
5600.00000000284,10.5731301338117,1.00000000158974,0.562505343869549
5700.00000000321,10.4790921276959,1.0000000016804,0.551870545394695
5800.00000000357,10.3719056303078,1.00000000159525,0.577370526084672
5900.00000000393,10.2685503528233,1.00000000125974,0.56547043461271
6000.0000000043,10.162358646816,1.00000000146025,0.579828168379153
6100.00000000466,10.0408221767733,1.00000000172109,0.586622446077089
6200.00000000502,9.90551664665161,1.00000000210908,0.586944395303358
6300.00000000539,9.75975697427084,1.00000000194132,0.595386741629325
6400.00000000575,9.6171937819491,1.00000000152265,0.561850735750802
6500.00000000612,9.51105854768899,1.00000000096295,0.480741274086166
6600.00000000648,9.49808163956631,1.00000000088543,0.416415677498923
6700.00000000684,9.60024169482505,1.00000000109035,0.42010148662072
6800.00000000721,9.76527703284892,1.00000000136901,0.454958525400825
6900.00000000757,9.91981235189621,1.00000000170828,0.499136404253782
7000.00000000793,10.0450115500489,1.00000000154912,0.529451077845746
7100.0000000083,10.1432583519048,1.00000000163182,0.565385154713828
7200.00000000866,10.2099586476772,1.00000000167451,0.573800672848414
7300.00000000903,10.2557935060703,1.00000000167473,0.589412097484965
7400.00000000939,10.2713309946439,1.0000000016913,0.599069358361629
7500.00000000975,10.2543560895887,1.00000000175352,0.60382160938509
7600.00000001012,10.2241464584572,1.00000000148685,0.579827818563978
7700.00000001048,10.1907519392097,1.00000000162407,0.576862996533331
7800.00000001084,10.1579488111332,1.00000000153411,0.562619736364294
7900.00000001121,10.1180134717186,1.00000000165851,0.553071026554756
8000.00000001157,10.0734869468021,1.00000000179056,0.578337317811112
8100.00000001194,10.0281552634541,1.00000000142334,0.57491230374425
8200.0000000123,9.98456880210402,1.00000000163684,0.580091264656463
8300.00000001266,9.94061084698494,1.00000000151534,0.582393760942686
8400.00000001303,9.89562678978647,1.00000000164731,0.576728956368261
8500.00000001339,9.84408101991729,1.0000000016092,0.57252660044196
8600.00000001376,9.78482984638652,1.00000000178328,0.575117065605231
8700.00000001412,9.71275108307769,1.00000000173611,0.603783436616783
8800.00000001448,9.63385589959162,1.00000000156899,0.608668097990071
8900.00000001485,9.55668187725718,1.00000000140769,0.601563756462797
9000.00000001521,9.4778106171189,1.00000000163804,0.608259369851223
9100.00000001557,9.39422919349836,1.00000000172789,0.60395781591355
9200.00000001594,9.30687058707332,1.00000000183349,0.612271109317627
9300.0000000163,9.22000225318124,1.00000000212082,0.61111324443215
9400.00000001667,9.13524191560451,1.00000000209976,0.594855021375021
9500.00000001703,9.04820571777635,1.00000000206223,0.589581608059098
9600.00000001739,8.95680732918004,1.00000000153327,0.563105284652387
9700.00000001776,8.87293922754593,1.00000000118707,0.516398296484506
9800.00000001812,8.82933709725029,1.00000000098443,0.459532195033436
9900.00000001848,8.8645481101281,1.00000000089407,0.428723618820381
10000.0000000188,9.0036892943467,1.00000000101312,0.419980575171091
10100.0000000192,9.22434483045099,1.00000000137923,0.442275753265656
10200.0000000196,9.49408295060197,1.00000000161426,0.459891075833162
10300.0000000199,9.7590724184143,1.00000000167985,0.49087956480881
10400.0000000203,10.0103914030469,1.00000000180887,0.517899007347743
10500.0000000207,10.2294162103332,1.00000000183613,0.532946066599987
10600.000000021,10.4308128268116,1.00000000171644,0.551836741821084
10700.0000000214,10.6074033810479,1.0000000017366,0.573669214306933
10800.0000000218,10.7625529098621,1.00000000170852,0.593095456242615
10900.0000000221,10.8863100433791,1.00000000187691,0.598459177917054
11000.0000000225,10.9830171766498,1.00000000171787,0.609350875329717
11100.0000000229,11.0595919569822,1.00000000176333,0.624679691732476
11200.0000000232,11.1151676124778,1.00000000169239,0.628543809294962
11300.0000000236,11.1484057666386,1.00000000177665,0.633147165487
11400.0000000239,11.166695570718,1.00000000168611,0.627908380802327
11500.0000000243,11.174155781126,1.00000000178018,0.62977761874447
11600.0000000247,11.1727262679182,1.00000000171941,0.618943077123008
11700.000000025,11.1666321793365,1.00000000178965,0.622011153975071
11800.0000000254,11.1469430068414,1.0000000018881,0.621409783058597
11900.0000000258,11.122506744723,1.00000000151956,0.604592441256503
12000.0000000261,11.0953712594747,1.00000000183003,0.625609012491088
12100.0000000265,11.0580511947339,1.00000000170642,0.618312352217961
12200.0000000269,11.0169951143002,1.00000000174006,0.627548674314674
12300.0000000272,10.9712891364774,1.00000000181212,0.633050309190144
12400.0000000276,10.9194005024053,1.00000000175633,0.643467998120903
12500.0000000279,10.862971157883,1.00000000173937,0.645396340740071
12600.0000000283,10.8096714476255,1.00000000159887,0.627044284375832
12700.0000000287,10.762873022401,1.00000000160443,0.609821393560077
12800.000000029,10.7258661848365,1.00000000159269,0.60141480714788
12900.0000000294,10.6929202669688,1.00000000179039,0.5994355290863
13000.0000000298,10.6645656704089,1.00000000170869,0.605084548570406
13100.0000000301,10.6377828172383,1.00000000168335,0.596578395048916
13200.0000000305,10.611001355799,1.00000000192307,0.613313364443821
13300.0000000309,10.5825747745804,1.00000000177294,0.61943967350556
13400.0000000312,10.5546512377317,1.00000000169342,0.613419883483125
13500.0000000316,10.5255538504931,1.0000000016788,0.60009457028657
13600.0000000319,10.4986436172479,1.00000000169114,0.61154408227523
13700.0000000323,10.4745634026422,1.00000000165519,0.601144091529968
13800.0000000327,10.4515912672264,1.00000000172112,0.587414627054689
13900.000000033,10.4250178701607,1.00000000197238,0.594288361149559
14000.0000000334,10.3983661982416,1.00000000153837,0.588430838384947
14100.0000000338,10.3749431873466,1.00000000179859,0.603545844800272
14200.0000000341,10.3487047529342,1.00000000189905,0.629011817169769
14300.0000000345,10.3221351577634,1.00000000167546,0.620139031145414
14400.0000000349,10.296443396725,1.00000000175821,0.608494001323731
14500.0000000352,10.2670434557421,1.00000000181145,0.61045567422768
14600.0000000356,10.2394379412432,1.00000000165187,0.618666846589925
14700.0000000359,10.2156966873523,1.00000000177235,0.623380488005083
14800.0000000363,10.1887275358353,1.00000000189637,0.634198310335825
14900.0000000367,10.1588096024622,1.00000000164526,0.628253094886269
15000.000000037,10.1338645994775,1.00000000160595,0.623193652465736
15100.0000000374,10.1067417717715,1.00000000194801,0.641418580789751
15200.0000000378,10.0737465700952,1.00000000182977,0.631633794582093
15300.0000000381,10.0377546934834,1.00000000190242,0.626285993162076
15400.0000000385,9.99923370317704,1.00000000175389,0.63259023708014
15500.0000000389,9.96363208762483,1.00000000169258,0.63923670223336
15600.0000000392,9.93171147211998,1.00000000163617,0.648308559762338
15700.0000000396,9.89856356766294,1.00000000190741,0.639363804458884
15800.0000000399,9.85983536875206,1.00000000197425,0.640206981260423
15900.0000000403,9.82166487707613,1.0000000016179,0.62638889903514
16000.0000000407,9.78717853581136,1.00000000179972,0.644142533178258
16100.000000041,9.74731535484303,1.00000000190035,0.640521250709121
16200.0000000414,9.70717647651129,1.00000000175811,0.627205211097192
16300.0000000418,9.66935437435406,1.00000000173287,0.627972252666005
16400.0000000418,9.63068187973665,1.00000000178777,0.613139853733165
16500.0000000404,9.59106567749656,1.00000000183695,0.641550741033331
16600.0000000389,9.54923744126511,1.00000000183974,0.645743294856687
16700.0000000375,9.50553384105863,1.00000000188285,0.646942104887407
16800.000000036,9.46076977308485,1.00000000179668,0.632311388646413
16900.0000000346,9.41441779181456,1.00000000199068,0.648157193228018
17000.0000000331,9.36522276380913,1.00000000196378,0.640253001848226
17100.0000000317,9.31640549739236,1.00000000173801,0.638851862309383
17200.0000000302,9.2681608338176,1.00000000192113,0.652063593021373
17300.0000000287,9.21692878639661,1.00000000197294,0.653532119993352
17400.0000000273,9.1644389424491,1.00000000192557,0.65434345489046
17500.0000000258,9.11262316579222,1.00000000175662,0.623236157511643
17600.0000000244,9.06138760564418,1.00000000187118,0.647764747826769
17700.0000000229,9.01067792858693,1.00000000180005,0.646678540600241
17800.0000000215,8.96084281436469,1.00000000160525,0.624391246259827
17900.00000002,8.91266137505972,1.00000000172163,0.636840141389791
18000.0000000186,8.86663751202458,1.00000000180169,0.633510845939482
18100.0000000171,8.82493229396579,1.00000000211749,0.641851419984511
18200.0000000156,8.7893020377328,1.00000000196043,0.641046239619604
18300.0000000142,8.76124738585374,1.00000000195099,0.663352565538784
18400.0000000127,8.74596014605759,1.00000000209554,0.661985377984176
18500.0000000113,8.73928658906135,1.00000000211716,0.669879251499538
18600.0000000098,8.75132631982101,1.00000000264397,0.662476707721566
18700.0000000084,8.76786961809962,1.00000000230445,0.660333904834361
18800.0000000069,8.80372806834821,1.00000000225071,0.647647947206315
18900.0000000055,8.83453657740306,1.00000000219108,0.622774144181673
19000.000000004,8.87311915476283,1.00000000222448,0.608906827081686
19100.0000000026,8.89221289553432,1.00000000212067,0.591551837580582
19200.0000000011,8.89633298480411,1.00000000178158,0.585609494612231
19299.9999999996,8.8761460907298,1.00000000175,0.560691089580783
19399.9999999982,8.83890631724017,1.00000000144912,0.535020273497369
19499.9999999967,8.8000457416101,1.0000000013566,0.504417706354551
19599.9999999953,8.77608564307249,1.00000000119103,0.485067435549406
19699.9999999938,8.79126072481505,1.00000000114235,0.464822416455962
19799.9999999924,8.86551197907145,1.00000000113853,0.449761473365052
19899.9999999909,9.0203780589893,1.0000000012021,0.4472151684834
19999.9999999895,9.25007746042093,1.00000000128628,0.445423754534348
20099.999999988,9.57427964440704,1.00000000140909,0.455313711976717
20199.9999999865,9.94359042046318,1.00000000174627,0.463205396473865
20299.9999999851,10.3803534988414,1.00000000177406,0.477219004270684
20399.9999999836,10.8137295031827,1.00000000212868,0.485928532591166
20499.9999999822,11.2769312325223,1.00000000192728,0.500357715560609
20599.9999999807,11.7217819637573,1.00000000209473,0.50660775978434
20699.9999999793,12.1626196452078,1.00000000204509,0.517324273654154
20799.9999999778,12.5899585477208,1.00000000205868,0.52720427490554
20899.9999999764,12.9933798937407,1.00000000210848,0.532415760711674
20999.9999999749,13.3949794191214,1.00000000219883,0.550182092303334
21099.9999999734,13.7641187913456,1.00000000205242,0.558103451263497
21199.999999972,14.1409370464828,1.00000000211271,0.568793708618104
21299.9999999705,14.4978445517846,1.00000000215779,0.579980939485248
21399.9999999691,14.8475233203667,1.00000000187768,0.582719889547789
21499.9999999676,15.1957192848113,1.00000000197795,0.591907978105169
21599.9999999662,15.5105493460901,1.00000000228917,0.606111080994251
21699.9999999647,15.8121084078149,1.00000000210377,0.61394293098419
21799.9999999633,16.0861304523635,1.0000000020535,0.620143326076182
21899.9999999618,16.3539205404518,1.0000000019865,0.636019529627659
21999.9999999603,16.5859138326383,1.00000000227054,0.636895231200237
22099.9999999589,16.8040128111316,1.00000000199064,0.649432162602775
22199.9999999574,16.9988148443303,1.00000000236022,0.659755747284599
22299.999999956,17.1764175852196,1.00000000214949,0.655414101600436
22399.9999999545,17.3484645712483,1.00000000208094,0.654340801787528
22499.9999999531,17.5016209852911,1.00000000200233,0.654194504784256
22599.9999999516,17.6496664227308,1.00000000211837,0.653509390468366
22699.9999999502,17.7737358731074,1.00000000205929,0.651565543656739
22799.9999999487,17.8901994131538,1.00000000222774,0.651026661907628
22899.9999999473,17.9946511914408,1.00000000194032,0.660185143374265
22999.9999999458,18.0914205818736,1.00000000244259,0.649735656425931
23099.9999999443,18.1806696405386,1.00000000210029,0.666217096831578
23199.9999999429,18.2579661248034,1.00000000206045,0.660260555185697
23299.9999999414,18.3363569676975,1.00000000201742,0.646692150567717
23399.99999994,18.4055104480956,1.0000000021054,0.653507061083537
23499.9999999385,18.464778132444,1.00000000239438,0.644803853868436
23599.9999999371,18.5069870518264,1.00000000216533,0.665278730369677
23699.9999999356,18.5427239088659,1.00000000216296,0.6543652307933
23799.9999999342,18.5819320552319,1.000000002048,0.664321183453538
23899.9999999327,18.6203271347569,1.00000000212704,0.648972132106673
23999.9999999312,18.6601195358898,1.00000000208906,0.66251072460264
24099.9999999298,18.692413539537,1.00000000215141,0.661230784901318
24199.9999999283,18.7207656450569,1.00000000211209,0.664030134832453
24299.9999999269,18.7365865466174,1.00000000217104,0.658817459743007
24399.9999999254,18.7486471417907,1.00000000207623,0.659946724178862
24499.999999924,18.7606045611457,1.00000000209881,0.649885048731863
24599.9999999225,18.7793433046246,1.00000000217358,0.620920352753901
24699.9999999211,18.7989954594453,1.00000000225008,0.637979749104069
24799.9999999196,18.8070994917995,1.00000000214374,0.629916968011866
24899.9999999181,18.807424526957,1.00000000221777,0.631315254092662
24999.9999999167,18.8089278913792,1.00000000196934,0.620657116869617
25099.9999999152,18.8211209632349,1.00000000169982,0.632384035443729
25199.9999999138,18.8376454250785,1.00000000222437,0.661628768164449
25299.9999999123,18.8455712452545,1.00000000217548,0.669496937825302
25399.9999999109,18.8458870093519,1.00000000225557,0.663258004279869
25499.9999999094,18.8452198270133,1.00000000211861,0.661810691638428
25599.999999908,18.849292862333,1.0000000020358,0.647936788746961
25699.9999999065,18.8550265033241,1.0000000023167,0.656006898191771
25799.9999999051,18.8615480178358,1.00000000217234,0.660531979531909
25899.9999999036,18.8708182346123,1.00000000204357,0.636650263649823
25999.9999999021,18.8870338457788,1.00000000220645,0.633069815391788
26099.9999999007,18.8973957424956,1.0000000025139,0.651618438642715
26199.9999998992,18.8975695176356,1.00000000218761,0.634733679509718
26299.9999998978,18.8963944217966,1.00000000228084,0.630489201513761
26399.9999998963,18.9009721645909,1.00000000195262,0.620325542053697
26499.9999998949,18.9149264869261,1.00000000235589,0.657828192569182
26599.9999998934,18.9244091201369,1.00000000220306,0.669903980467173
26699.999999892,18.926675273551,1.00000000239579,0.65415476523663
26799.9999998905,18.927306742641,1.00000000209778,0.647103622642978
26899.999999889,18.9356140350634,1.00000000204055,0.633857191875937
26999.9999998876,18.953011448724,1.00000000219373,0.626471093366464
27099.9999998861,18.9710493220582,1.00000000237518,0.649782554986061
27199.9999998847,18.979395804278,1.00000000248583,0.649250358746049
27299.9999998832,18.9830952060162,1.00000000200895,0.63612287595766
27399.9999998818,18.983538123634,1.00000000205685,0.652659431718925
27499.9999998803,18.9820709242914,1.00000000221633,0.645734352181885
27599.9999998789,18.9818992954948,1.00000000232167,0.65598467438293
27699.9999998774,18.979481734568,1.00000000206288,0.641885767579483
27799.9999998759,18.9732425712718,1.00000000235048,0.646301092219059
27899.9999998745,18.9641144877462,1.0000000024763,0.66306317805851
27999.999999873,18.9539302159115,1.00000000215706,0.650544341812519
28099.9999998716,18.9470044594914,1.00000000199831,0.637395515207804
28199.9999998701,18.9469448681937,1.00000000208285,0.622299365428829
28299.9999998687,18.9459612735651,1.0000000023508,0.641043397039981
28399.9999998672,18.9456779204408,1.0000000022617,0.64023703041259
28499.9999998658,18.9481508327181,1.00000000218675,0.622722764137788
28599.9999998643,18.9590725451656,1.00000000206073,0.634972933504523
28699.9999998629,18.9782537198705,1.000000002415,0.661961707262802
28799.9999998614,18.9935016599035,1.00000000236276,0.659088103140698
28899.9999998599,19.0073685228132,1.00000000248364,0.659210777351165
28999.9999998585,19.0204013416029,1.00000000244009,0.665358643204798
29099.999999857,19.0367784736132,1.00000000216497,0.661705775624614
