Time,AGPnorm,Energy,Entropy
0,0,1,-7.33127037015939e-17
99.9999999999986,0.00169315515715474,1.00000000000206,0.00503559730523105
199.999999999993,0.0108142073467274,1.00000000000113,0.0147552139695938
300,0.0218807115520865,0.999999999999148,0.0269919843229811
400.000000000022,0.0328355752801805,0.999999999999458,0.0422452330050408
500.000000000045,0.0456807213274934,1.00000000000087,0.061026479622879
600.000000000068,0.0628340712505482,1.00000000000149,0.0831893267212981
700.000000000091,0.078682349862317,1.00000000000015,0.108414975807726
800.000000000113,0.0955307673021783,1.00000000000013,0.137802300242902
900.000000000136,0.112046752339083,1.00000000000596,0.174443722967261
1000.00000000016,0.127841943726266,1.00000000005315,0.221329807456676
1100.0000000001,0.147317406863504,1.0000000002196,0.276784389112929
1200,0.196195172614014,1.00000000051366,0.332103854833444
1299.99999999991,0.292327330473293,1.00000000088388,0.381919892699963
1399.99999999982,0.498993199524816,1.00000000128532,0.424866856036595
1499.99999999973,0.954399261494906,1.00000000152273,0.461306293164103
1599.99999999964,1.76263472285674,1.00000000171277,0.491137675715976
1699.99999999955,2.94770700481779,1.0000000019638,0.515746363954114
1799.99999999946,4.53702373763231,1.00000000210188,0.535575399967085
1899.99999999937,6.55687267588258,1.00000000216701,0.551205526504218
1999.99999999928,8.98171100626032,1.00000000211642,0.563633535541873
2099.99999999919,11.7390659942518,1.0000000022156,0.573161038751642
2199.99999999909,14.7554512198611,1.00000000215459,0.579650141949868
2299.999999999,17.9573382679953,1.00000000216339,0.584039308162239
2399.99999999891,21.2574169044369,1.00000000211018,0.587086143484367
2499.99999999882,24.5768248807502,1.00000000205914,0.588981115896092
2599.99999999873,27.8537101751048,1.00000000200819,0.589125852436777
2699.99999999864,31.0263051604205,1.000000001899,0.588644918316872
2799.99999999855,34.0341225800932,1.00000000196749,0.587576184592885
2899.99999999846,36.8343392878835,1.00000000177248,0.586762471985776
2999.99999999837,39.4020876060589,1.00000000169528,0.583935840450791
3099.99999999828,41.7235362834149,1.00000000166817,0.580421036577096
3199.99999999819,43.7807448666717,1.0000000016061,0.578894502474634
3299.99999999809,45.5572882322898,1.00000000156053,0.577712604120245
3399.999999998,47.0551617119833,1.00000000146421,0.575207805091906
3499.99999999791,48.2879761488459,1.0000000014384,0.572467212195747
3599.99999999782,49.2631488485891,1.00000000138181,0.574863879652501
3699.99999999773,49.9871093891808,1.00000000125549,0.567592273858115
3799.99999999764,50.4865689364613,1.00000000131648,0.570737282405058
3899.99999999755,50.759127660726,1.00000000128631,0.568434940415029
3999.99999999746,50.8628004109368,1.00000000124266,0.567153362273125
4099.99999999738,50.7861494225536,1.00000000112958,0.558317640601722
4199.99999999775,50.5861536184494,1.00000000130706,0.573034641154327
4299.99999999811,50.2602032360156,1.00000000101222,0.541707114315192
4399.99999999848,49.8314073728247,1.00000000147047,0.581338173902891
4499.99999999884,49.3555766915006,1.00000000109629,0.542169530117311
4599.9999999992,48.7778814061935,1.00000000115672,0.542152065491136
4699.99999999957,48.1912768845849,1.00000000146871,0.573192288074428
4799.99999999993,47.5675382067127,1.00000000088284,0.511898343586148
4900.00000000029,46.8828743929093,1.0000000013929,0.553462773120104
5000.00000000066,46.2251668035287,1.0000000015592,0.564922902620123
5100.00000000102,45.5535417663958,1.00000000092838,0.497835776152638
5200.00000000139,44.8413485622455,1.00000000128369,0.52536517458002
5300.00000000175,44.1542130464939,1.00000000170356,0.573963538786479
5400.00000000211,43.4854330447465,1.00000000115627,0.49949128049584
5500.00000000248,42.7949649492626,1.00000000099841,0.488173683390561
5600.00000000284,42.1057252986867,1.00000000158255,0.541414003374415
5700.00000000321,41.4483715339592,1.0000000016184,0.547971991840195
5800.00000000357,40.8045002630213,1.00000000108554,0.483788490098661
5900.00000000393,40.1570691753552,1.00000000111357,0.493590676603666
6000.0000000043,39.5170256006607,1.00000000142533,0.521423694161658
6100.00000000466,38.8997402186348,1.00000000165626,0.544544417945136
6200.00000000502,38.3022013750169,1.00000000124216,0.501811576136237
6300.00000000539,37.7164416255237,1.00000000108577,0.490066335539112
6400.00000000575,37.141181938287,1.0000000012357,0.514783353679159
6500.00000000612,36.5797563025283,1.00000000133437,0.514017174475658
6600.00000000648,36.034742078399,1.0000000014964,0.531719995283945
6700.00000000684,35.505813533303,1.00000000130068,0.513602720983809
6800.00000000721,34.9951943054048,1.00000000100943,0.489570803643137
6900.00000000757,34.5012745748316,1.00000000129401,0.51967753328231
7000.00000000793,34.0218011430952,1.00000000125296,0.522928450382141
7100.0000000083,33.5593861948253,1.00000000119194,0.5057112737633
7200.00000000866,33.1101116120628,1.00000000153957,0.531002623310642
7300.00000000903,32.671645143468,1.00000000142299,0.518425293209505
7400.00000000939,32.2531383680131,1.00000000106295,0.49510550966198
7500.00000000975,31.8543355832867,1.00000000123997,0.515834458099784
7600.00000001012,31.4650360268323,1.00000000145741,0.530054085154258
7700.00000001048,31.0898415823015,1.00000000109006,0.511367207681669
7800.00000001084,30.7348411790755,1.00000000121295,0.493409196252013
7900.00000001121,30.390379601263,1.00000000156236,0.527972566324123
8000.00000001157,30.0495296015219,1.00000000141985,0.52128977364121
8100.00000001194,29.7228399511474,1.00000000114806,0.506995248824188
8200.0000000123,29.4160756551143,1.00000000116413,0.507106982874413
8300.00000001266,29.1224841410744,1.00000000138188,0.523822586244239
8400.00000001303,28.830827103546,1.00000000143477,0.526493321199237
8500.00000001339,28.5491555677479,1.00000000121052,0.521265738423045
8600.00000001376,28.2873358019591,1.00000000113908,0.502629326556994
8700.00000001412,28.0372684517929,1.00000000136218,0.517850706859229
8800.00000001448,27.7920345908181,1.00000000142449,0.535896110021438
8900.00000001485,27.5491582807138,1.00000000144998,0.530647376484929
9000.00000001521,27.3179102975225,1.00000000114163,0.513163580412069
9100.00000001557,27.1037338346754,1.00000000123709,0.522784004190396
9200.00000001594,26.8986691259538,1.00000000129346,0.531150764981851
9300.0000000163,26.7012199406093,1.000000001329,0.529959271311698
9400.00000001667,26.5080171302265,1.00000000133008,0.518930834304925
9500.00000001703,26.3192777621912,1.0000000013664,0.535745741499611
9600.00000001739,26.1371909175101,1.0000000012714,0.538941490013171
9700.00000001776,25.9648706182983,1.00000000121627,0.524129983517037
9800.00000001812,25.8022727922552,1.00000000129789,0.532780467447659
9900.00000001848,25.6447376345593,1.00000000142532,0.544375012689009
10000.0000000188,25.488793711819,1.00000000142365,0.536968998481787
10100.0000000192,25.3409552520957,1.00000000128855,0.533004370504732
10200.0000000196,25.2077747019553,1.00000000117196,0.52783682452427
10300.0000000199,25.0826886506804,1.0000000013587,0.53360816888139
10400.0000000203,24.9550784162889,1.00000000141628,0.545539262380204
10500.0000000207,24.8347670202875,1.00000000117686,0.524250967602168
10600.000000021,24.7293878169421,1.00000000121162,0.527427135414297
10700.0000000214,24.6280138395015,1.00000000130351,0.530043458392926
10800.0000000218,24.5207704395104,1.00000000144512,0.547313182525308
10900.0000000221,24.4068888927221,1.00000000146954,0.561187088253161
11000.0000000225,24.2940190062079,1.00000000120296,0.554625164406317
11100.0000000229,24.1879070344652,1.0000000012254,0.544971521301062
11200.0000000232,24.0879992854099,1.000000001309,0.546979664280132
11300.0000000236,23.9925600788138,1.00000000151893,0.549366091543348
11400.0000000239,23.9016109214165,1.00000000148872,0.544580606384219
11500.0000000243,23.8151274979139,1.00000000135792,0.540140183206366
11600.0000000247,23.7387373149555,1.00000000126747,0.544318773126735
11700.000000025,23.6717791454586,1.00000000127947,0.548941369303453
11800.0000000254,23.6091971288034,1.0000000013014,0.542121291406358
11900.0000000258,23.5445916090629,1.00000000141118,0.547470880203319
12000.0000000261,23.4801418739319,1.0000000012945,0.546684510730367
12100.0000000265,23.4237622154557,1.00000000125555,0.532310935346132
12200.0000000269,23.3780298449283,1.00000000126963,0.538528456276273
12300.0000000272,23.3351666221689,1.00000000133467,0.556421593421775
12400.0000000276,23.2909738334466,1.0000000012161,0.552644341823964
12500.0000000279,23.242443709263,1.00000000136952,0.554706054868142
12600.0000000283,23.1868259314264,1.00000000141543,0.563430283747511
12700.0000000287,23.1242839019308,1.00000000156597,0.574834124032252
12800.000000029,23.0548112756266,1.00000000138838,0.580853067119155
12900.0000000294,22.9828581773677,1.00000000134749,0.582833462279328
13000.0000000298,22.9155217049479,1.00000000125773,0.570449785785522
13100.0000000301,22.8570033122185,1.00000000128834,0.557516227205314
13200.0000000305,22.8043481805428,1.00000000136244,0.555849693422806
13300.0000000309,22.7582872906702,1.00000000139351,0.551785933417515
13400.0000000312,22.7164351708784,1.00000000131674,0.549629846593107
13500.0000000316,22.6810201148967,1.00000000133332,0.5598327284488
13600.0000000319,22.6533242339205,1.00000000131884,0.563512258831954
13700.0000000323,22.6300829172078,1.00000000135515,0.563260757831775
13800.0000000327,22.6051136745775,1.00000000141303,0.566329001347911
13900.000000033,22.5802977871076,1.00000000131641,0.558941860634489
14000.0000000334,22.5614779245449,1.0000000012959,0.55318321065197
14100.0000000338,22.5477532057152,1.00000000134748,0.5505187660926
14200.0000000341,22.5356999307436,1.00000000135364,0.554006119682565
14300.0000000345,22.5251107133522,1.0000000013266,0.562568960580262
14400.0000000349,22.5172413913377,1.00000000140072,0.574471682363578
14500.0000000352,22.5105100203335,1.00000000143027,0.581121284856092
14600.0000000356,22.4986667916209,1.00000000139587,0.592474488108422
14700.0000000359,22.4825920764164,1.00000000134718,0.592388450871264
14800.0000000363,22.4642397622094,1.00000000142573,0.595115587037408
14900.0000000367,22.4450195379695,1.00000000138787,0.59347445305803
15000.000000037,22.4221125727157,1.00000000138321,0.592286539109756
15100.0000000374,22.3929015651297,1.0000000015322,0.595361140800441
15200.0000000378,22.3530320495543,1.00000000152795,0.595731529648265
15300.0000000381,22.305189346553,1.00000000148068,0.599317743562064
15400.0000000385,22.251737416682,1.00000000140668,0.603780758624351
15500.0000000389,22.1980444452899,1.00000000134795,0.602463635090874
15600.0000000392,22.1497232085292,1.00000000131794,0.593744686557946
15700.0000000396,22.109276071289,1.00000000129282,0.585494655125368
15800.0000000399,22.0760871450578,1.00000000145653,0.584784637974307
15900.0000000403,22.0487861885168,1.00000000137473,0.583546511863977
16000.0000000407,22.0279597806185,1.00000000135179,0.578833668219498
16100.000000041,22.0136150827316,1.0000000013807,0.577212781599469
16200.0000000414,22.0035113346634,1.00000000139561,0.578175446382949
16300.0000000418,22.000831854064,1.00000000135985,0.588860669124969
16400.0000000418,22.0026179042641,1.00000000143601,0.585927453752902
16500.0000000404,22.0041012930364,1.00000000149461,0.584719749045866
16600.0000000389,22.0066836246703,1.00000000143679,0.579937296999439
16700.0000000375,22.0111940578451,1.00000000142165,0.571915139179718
16800.000000036,22.0174819164236,1.00000000139411,0.565813798040988
16900.0000000346,22.0280172723603,1.0000000013917,0.575805235761688
17000.0000000331,22.042432722849,1.0000000013577,0.581299996457482
17100.0000000317,22.0588545755133,1.00000000139111,0.583788136965598
17200.0000000302,22.0747045399641,1.00000000146083,0.587952636284175
17300.0000000287,22.0875239854507,1.00000000141152,0.577487548446505
17400.0000000273,22.100453499655,1.00000000149692,0.577428893936168
17500.0000000258,22.1123437029287,1.00000000144028,0.583010723922833
17600.0000000244,22.1249704113795,1.00000000138333,0.602664104721794
17700.0000000229,22.1369314876185,1.00000000148733,0.608799841704897
17800.0000000215,22.1457854498609,1.00000000145239,0.612295969773863
17900.00000002,22.150810426711,1.00000000154377,0.62210803191921
18000.0000000186,22.152654730463,1.0000000014667,0.618326000068131
18100.0000000171,22.148758115315,1.00000000150554,0.61639867225711
18200.0000000156,22.1428976565097,1.00000000141983,0.624768750637458
18300.0000000142,22.1350834651476,1.00000000151204,0.632154165409715
18400.0000000127,22.1233055553433,1.00000000157355,0.639132893560499
18500.0000000113,22.1077729736616,1.00000000139845,0.635645195558319
18600.0000000098,22.09004838222,1.00000000141052,0.630274117080046
18700.0000000084,22.0685323827716,1.00000000148453,0.628426756234317
18800.0000000069,22.0420241035891,1.00000000151424,0.629346473340964
18900.0000000055,22.0099045841458,1.00000000159606,0.625965617860902
19000.000000004,21.9715134629707,1.00000000157501,0.629312732898875
19100.0000000026,21.9272971268119,1.00000000155082,0.624476418408412
19200.0000000011,21.8791007573887,1.00000000149776,0.62637952098554
19299.9999999996,21.8315092957843,1.0000000014056,0.62838950545993
19399.9999999982,21.7870011978017,1.00000000136421,0.626443406176029
19499.9999999967,21.7473356543787,1.00000000135686,0.62418383412048
19599.9999999953,21.7144110103141,1.00000000142945,0.62289163834175
19699.9999999938,21.6877293895334,1.00000000146143,0.620524270680553
19799.9999999924,21.6663961318154,1.00000000150815,0.617180891160417
19899.9999999909,21.6505776698156,1.0000000014889,0.611894475280929
19999.9999999895,21.6402929341024,1.00000000154738,0.599446175262506
20099.999999988,21.6365716968625,1.00000000147847,0.587479162703776
20199.9999999865,21.6378306644844,1.0000000014193,0.58661841559742
20299.9999999851,21.6437203114731,1.00000000144457,0.591295795991101
20399.9999999836,21.6552755973377,1.00000000141908,0.593553366567455
20499.9999999822,21.6702746454811,1.00000000154975,0.605256897866644
20599.9999999807,21.6861595461601,1.00000000150134,0.604113459068723
20699.9999999793,21.7034221592038,1.00000000156342,0.603351403136191
20799.9999999778,21.7214920450068,1.00000000155486,0.601133807974978
20899.9999999764,21.7412129728746,1.0000000015298,0.591571183723468
20999.9999999749,21.7618318442136,1.00000000148245,0.584999462629204
21099.9999999734,21.7867667646661,1.00000000144642,0.584657048695379
21199.999999972,21.8157415407651,1.00000000151152,0.589621058877297
21299.9999999705,21.8455710851765,1.00000000149267,0.590245488070945
21399.9999999691,21.8735780698304,1.00000000155096,0.593064129406808
21499.9999999676,21.9014488493564,1.00000000142935,0.592510839259333
21599.9999999662,21.9309909665533,1.00000000150081,0.595532953667577
21699.9999999647,21.9598400222068,1.00000000157617,0.595040607867992
21799.9999999633,21.9846834456778,1.00000000168533,0.600565505052718
21899.9999999618,22.0044390202865,1.00000000148917,0.602053498680737
21999.9999999603,22.0240182303598,1.00000000156334,0.61428365259377
22099.9999999589,22.044484248886,1.00000000152982,0.626943640957782
22199.9999999574,22.0644222723556,1.00000000162612,0.630538752189661
22299.999999956,22.0808876534633,1.00000000157899,0.627940323831547
22399.9999999545,22.0937792368935,1.00000000159917,0.63279959630392
22499.9999999531,22.1043435611655,1.00000000154732,0.631390559221149
22599.9999999516,22.1154328486898,1.00000000149495,0.631063581890996
22699.9999999502,22.1282136539895,1.00000000147593,0.63268672236828
22799.9999999487,22.1420806490861,1.0000000015742,0.636124387724802
22899.9999999473,22.1561249775964,1.00000000159656,0.631323153265889
22999.9999999458,22.1667008874711,1.00000000168178,0.629608584713249
23099.9999999443,22.1729082621017,1.00000000165634,0.632863614067138
23199.9999999429,22.1778858732038,1.00000000157649,0.634703601711122
23299.9999999414,22.1803131342003,1.00000000157287,0.637585815875537
23399.99999994,22.18080690803,1.00000000163699,0.638322565659622
23499.9999999385,22.1779095834324,1.00000000158852,0.639914289686218
23599.9999999371,22.1744956898921,1.00000000152778,0.643511456084723
23699.9999999356,22.1724935575273,1.00000000156402,0.637204371720387
23799.9999999342,22.171126319248,1.0000000015803,0.6364624539333
23899.9999999327,22.1682852397889,1.00000000164793,0.640958763833813
23999.9999999312,22.1625373765663,1.00000000168633,0.637397059998326
24099.9999999298,22.152231975461,1.00000000164586,0.635156386795897
24199.9999999283,22.1385744856238,1.0000000016119,0.638400161935332
24299.9999999269,22.1245252986173,1.00000000154794,0.644961993744031
24399.9999999254,22.1091930893664,1.00000000173916,0.644310393459695
24499.999999924,22.0915496385658,1.00000000154319,0.640574249701462
24599.9999999225,22.0730123029863,1.00000000162754,0.646458435182511
24699.9999999211,22.0522379987622,1.00000000159807,0.648390193195369
24799.9999999196,22.0297387530817,1.00000000155839,0.642080039666326
24899.9999999181,22.0064361977957,1.00000000158733,0.643028453215352
24999.9999999167,21.9803396442223,1.00000000159043,0.639793811674299
25099.9999999152,21.9512474485756,1.00000000170651,0.641196930214397
25199.9999999138,21.9188776517624,1.00000000171275,0.646591074045576
25299.9999999123,21.8845668734499,1.00000000165141,0.650036363988746
25399.9999999109,21.8477035957849,1.00000000172967,0.650368656616687
25499.9999999094,21.8091118153386,1.00000000168475,0.64975490745404
25599.999999908,21.7692830194222,1.0000000017082,0.650217202907171
25699.9999999065,21.7284882083284,1.00000000165095,0.648515324044553
25799.9999999051,21.6875611741229,1.00000000162684,0.64604731772301
25899.9999999036,21.6482784691517,1.00000000154714,0.638034974262402
25999.9999999021,21.6125152251095,1.00000000156691,0.631601804077304
26099.9999999007,21.5812071210131,1.00000000141474,0.61441391537195
26199.9999998992,21.555597785777,1.00000000153978,0.614488982348085
26299.9999998978,21.5358910531126,1.00000000160628,0.612750750183453
26399.9999998963,21.5201120148262,1.00000000172879,0.61473148511095
26499.9999998949,21.5079249698929,1.00000000166233,0.618540077982447
26599.9999998934,21.5010230751666,1.00000000160198,0.615791843323138
26699.999999892,21.5004067919535,1.0000000016487,0.611190959326932
26799.9999998905,21.5048236055425,1.00000000159639,0.604967630802243
26899.999999889,21.5153721796498,1.00000000156382,0.600950179603281
26999.9999998876,21.5317965772482,1.00000000158847,0.59968977113342
27099.9999998861,21.5517801148708,1.00000000158945,0.603521624348115
27199.9999998847,21.5762589223643,1.00000000164755,0.605718842105862
27299.9999998832,21.60416041149,1.00000000166002,0.606788146111141
27399.9999998818,21.6314323257409,1.00000000170818,0.605160075759641
27499.9999998803,21.6618870035438,1.00000000171021,0.603523453031007
27599.9999998789,21.6944046531274,1.00000000171693,0.597726337982244
27699.9999998774,21.7271665120148,1.00000000176219,0.597114541247705
27799.9999998759,21.7623039321323,1.00000000166324,0.598102683815828
27899.9999998745,21.7994603908368,1.00000000168014,0.605112324690922
27999.999999873,21.837060670505,1.00000000164224,0.597407436902928
28099.9999998716,21.8771306033279,1.0000000016522,0.598811425463079
28199.9999998701,21.9198827699701,1.00000000166552,0.598957690330579
28299.9999998687,21.9665372257734,1.0000000016821,0.601354068670666
28399.9999998672,22.0136445930116,1.00000000174018,0.605037513002287
28499.9999998658,22.0592023719757,1.00000000166568,0.605559209656816
28599.9999998643,22.1056144369079,1.00000000166902,0.613709734507951
28699.9999998629,22.1517439393277,1.00000000172027,0.61406886954155
28799.9999998614,22.1973339564485,1.00000000171028,0.616486705295349
28899.9999998599,22.2413891275931,1.00000000175277,0.614842534202505
28999.9999998585,22.2847286677888,1.00000000167532,0.614884183739057
