Time,AGPnorm,Energy,Entropy
0,0,1,-7.57610368152239e-17
99.9999999999986,0.000887741583770654,1.00000000000054,0.00311283324287443
199.999999999993,0.0060857635346783,0.999999999999821,0.00916192283174512
300,0.0124208409143158,0.999999999999177,0.0169019801043305
400.000000000022,0.0190964914358217,0.999999999999821,0.0265421889598182
500.000000000045,0.026776623837577,1.00000000000009,0.0383044370853752
600.000000000068,0.037313052009589,1.00000000000012,0.051845524968058
700.000000000091,0.0481519956408725,0.999999999999401,0.0668035655083945
800.000000000113,0.0593922732755197,0.999999999999771,0.0832258882574244
900.000000000136,0.0717235370682046,1.00000000000008,0.102042256940149
1000.00000000016,0.0841521110954175,0.999999999999891,0.123177248857477
1100.0000000001,0.0980690716482199,1.00000000000059,0.147635597325181
1200,0.110151791754286,1.00000000000379,0.175850110478231
1299.99999999991,0.124171622466102,1.00000000002183,0.209902560293991
1399.99999999982,0.134311367837391,1.00000000007625,0.249601007422271
1499.99999999973,0.15219186821648,1.00000000017617,0.29198182347602
1599.99999999964,0.203376557610674,1.00000000032181,0.333121775113865
1699.99999999955,0.314145793473618,1.00000000048442,0.370296302315299
1799.99999999946,0.520893286378136,1.00000000062469,0.403834949293688
1899.99999999937,0.910286507752047,1.00000000079661,0.432744077123074
1999.99999999928,1.5831938587798,1.0000000009095,0.457976305931406
2099.99999999919,2.59124515423199,1.00000000104806,0.479262065695802
2199.99999999909,3.96830184873213,1.00000000108491,0.498112954223937
2299.999999999,5.77065781645054,1.00000000115676,0.5135333565959
2399.99999999891,8.02624696123101,1.0000000012609,0.52642858545455
2499.99999999882,10.7216795123749,1.00000000120762,0.537254873084545
2599.99999999873,13.8167479545945,1.00000000129481,0.546264039928164
2699.99999999864,17.2902027371393,1.00000000124595,0.553271444585868
2799.99999999855,21.0922880473859,1.00000000128421,0.558790301979056
2899.99999999846,25.1522451053407,1.00000000125077,0.563166595695293
2999.99999999837,29.4075241782899,1.00000000128683,0.56630535965747
3099.99999999828,33.8043717253709,1.00000000125668,0.568145441383273
3199.99999999819,38.2846901708315,1.00000000122552,0.56943938035355
3299.99999999809,42.7715583313078,1.00000000116538,0.570289153390789
3399.999999998,47.2086189215852,1.0000000012107,0.570344210114573
3499.99999999791,51.5582438128104,1.00000000116612,0.570263184472577
3599.99999999782,55.778971595688,1.00000000121865,0.56944786406526
3699.99999999773,59.8247156437527,1.00000000107397,0.567690960037105
3799.99999999764,63.6572133627346,1.00000000104799,0.565661293404104
3899.99999999755,67.2552584726503,1.00000000105827,0.566483036976976
3999.99999999746,70.6018283296135,1.00000000100041,0.563765759525085
4099.99999999738,73.6882013927418,1.00000000096505,0.560194427166599
4199.99999999775,76.4908873092073,1.00000000095794,0.561421124513304
4299.99999999811,79.0020316035332,1.00000000095114,0.557445060740822
4399.99999999848,81.2347084273961,1.00000000086106,0.556273677506087
4499.99999999884,83.1890774042674,1.00000000087411,0.555675980475885
4599.9999999992,84.8672566385038,1.0000000008372,0.550159463869447
4699.99999999957,86.271929087397,1.00000000080572,0.555220491237201
4799.99999999993,87.4204363389016,1.00000000076335,0.550172104720987
4900.00000000029,88.3157484265787,1.000000000773,0.545784922438163
5000.00000000066,88.9868144217092,1.00000000081346,0.559168780785261
5100.00000000102,89.4577975537499,1.0000000007642,0.546041336837857
5200.00000000139,89.698930146327,1.00000000070004,0.535953739356703
5300.00000000175,89.7636192507157,1.00000000080375,0.563432620324959
5400.00000000211,89.7054013687783,1.00000000078547,0.548436179613521
5500.00000000248,89.4684826243427,1.00000000058169,0.516428059811174
5600.00000000284,89.073886563823,1.00000000073963,0.553432174446478
5700.00000000321,88.6250854417553,1.00000000085978,0.567594369311549
5800.00000000357,88.0973181759066,1.0000000006183,0.515891842400886
5900.00000000393,87.4179840801487,1.00000000053695,0.502398458992363
6000.0000000043,86.6705147637224,1.00000000089628,0.565795164805997
6100.00000000466,85.9412988535133,1.00000000089552,0.565651579590825
6200.00000000502,85.1720283346148,1.00000000060216,0.496481357502701
6300.00000000539,84.288533966937,1.00000000048403,0.475373668489333
6400.00000000575,83.3605265855352,1.00000000086472,0.550920688407147
6500.00000000612,82.4763931614968,1.00000000104833,0.576334382155702
6600.00000000648,81.618937624455,1.00000000075443,0.518327619117538
6700.00000000684,80.7046227412004,1.00000000042864,0.44594049148699
6800.00000000721,79.7262951544915,1.00000000058469,0.476235334795541
6900.00000000757,78.7548975504144,1.000000000963,0.555474773719693
7000.00000000793,77.8397863102682,1.00000000103576,0.569759568396798
7100.0000000083,76.9591530279789,1.00000000081712,0.513805356059264
7200.00000000866,76.056478879635,1.0000000005004,0.436522784535986
7300.00000000903,75.1170485861996,1.00000000049782,0.437177714336234
7400.00000000939,74.173094750595,1.00000000086135,0.509328799375323
7500.00000000975,73.2616486316276,1.0000000010114,0.558136994749286
7600.00000001012,72.3944342772927,1.00000000103801,0.54958700388867
7700.00000001048,71.5507961259618,1.00000000075819,0.497115258273641
7800.00000001084,70.7036290378271,1.00000000052853,0.438968073792264
7900.00000001121,69.8494628286158,1.0000000005246,0.434251098292423
8000.00000001157,68.9982527473189,1.00000000069067,0.475352544635114
8100.00000001194,68.1635449323023,1.0000000009536,0.525297279942997
8200.0000000123,67.3551333379562,1.00000000099038,0.543823794121053
8300.00000001266,66.573022917067,1.00000000086076,0.533495168293095
8400.00000001303,65.8079281482162,1.00000000070991,0.489802471934323
8500.00000001339,65.0532049637201,1.00000000056596,0.452636361887509
8600.00000001376,64.3118488709476,1.00000000058244,0.444966463056467
8700.00000001412,63.5860568674188,1.00000000068626,0.47104664138277
8800.00000001448,62.8759129822652,1.00000000073484,0.489096481795765
8900.00000001485,62.1808639455345,1.00000000080119,0.512034296345995
9000.00000001521,61.4996309810098,1.0000000009284,0.529199592444593
9100.00000001557,60.83200122604,1.00000000092803,0.534575590922282
9200.00000001594,60.1786711689964,1.00000000075996,0.514001078421818
9300.0000000163,59.5436531044096,1.00000000059883,0.470258548934086
9400.00000001667,58.9318672357822,1.00000000058179,0.457172172821491
9500.00000001703,58.3429251522027,1.00000000068593,0.466368613296694
9600.00000001739,57.7702593264917,1.00000000078967,0.490930405461396
9700.00000001776,57.2123965336057,1.0000000007148,0.497113426973656
9800.00000001812,56.6718322957399,1.0000000006175,0.488527806354211
9900.00000001848,56.1466656845936,1.00000000074482,0.504201656956856
10000.0000000188,55.6291766940675,1.00000000090232,0.525551165368049
10100.0000000192,55.1114579903138,1.00000000093142,0.535375227402391
10200.0000000196,54.5979581355245,1.00000000083052,0.523619566486153
10300.0000000199,54.1012954984919,1.00000000061513,0.488110701568578
10400.0000000203,53.6335033405522,1.00000000056059,0.459547827321099
10500.0000000207,53.1929971266683,1.00000000064909,0.462005620606488
10600.000000021,52.7699299998418,1.0000000008334,0.481224354487328
10700.0000000214,52.3538165141093,1.00000000090155,0.495486822407557
10800.0000000218,51.9438436645546,1.00000000074443,0.506821902060387
10900.0000000221,51.547421390883,1.0000000006345,0.493737387225121
11000.0000000225,51.1704176611403,1.00000000063096,0.488245390955067
11100.0000000229,50.8057793470528,1.00000000073612,0.507659366192933
11200.0000000232,50.4423748113702,1.00000000088074,0.525844154506626
11300.0000000236,50.073307184954,1.00000000098351,0.538237400065797
11400.0000000239,49.6984225652111,1.00000000087442,0.537041462409164
11500.0000000243,49.328229753903,1.00000000072344,0.520086211280436
11600.0000000247,48.9765298158608,1.00000000063052,0.494023830828996
11700.000000025,48.6526281507622,1.00000000060955,0.47450048837355
11800.0000000254,48.3555059361036,1.00000000064094,0.475052817497544
11900.0000000258,48.0780404628791,1.00000000069951,0.481961445359127
12000.0000000261,47.8112121778604,1.00000000077525,0.497616654832968
12100.0000000265,47.547968225374,1.00000000079674,0.499119083211174
12200.0000000269,47.2884921549323,1.000000000762,0.503077944144634
12300.0000000272,47.0347114261762,1.00000000073263,0.51880645773853
12400.0000000276,46.7863688165711,1.00000000069724,0.521344514677
12500.0000000279,46.5449449317422,1.00000000073575,0.529694644303033
12600.0000000283,46.3073450825556,1.00000000071976,0.534102220456304
12700.0000000287,46.0733494173249,1.00000000074697,0.531588444824431
12800.000000029,45.8408861491874,1.00000000081444,0.52623188539437
12900.0000000294,45.6071434577253,1.00000000085554,0.533536372234057
13000.0000000298,45.3664939753554,1.00000000096584,0.542180928133067
13100.0000000301,45.1220585906124,1.00000000085083,0.54233064822984
13200.0000000305,44.8879920655037,1.00000000064979,0.522561266954745
13300.0000000309,44.678284055379,1.00000000058254,0.499662824496139
13400.0000000312,44.4952920277553,1.00000000060792,0.48305040453325
13500.0000000316,44.332007310661,1.00000000069893,0.493373766147459
13600.0000000319,44.1771434573153,1.00000000079815,0.506082365176111
13700.0000000323,44.0283399136891,1.00000000074801,0.500175215837396
13800.0000000327,43.8876501956477,1.0000000007286,0.501819106622515
13900.000000033,43.7568515998895,1.00000000070944,0.508707130561665
14000.0000000334,43.6372290882276,1.00000000066823,0.506465504940933
14100.0000000338,43.526152385472,1.00000000071187,0.51273101901564
14200.0000000341,43.4120144258896,1.00000000082682,0.530316457905539
14300.0000000345,43.2860608297615,1.00000000088723,0.547978982449932
14400.0000000349,43.1467280908684,1.00000000087156,0.554306944636863
14500.0000000352,42.9983092630513,1.00000000080389,0.557263450894005
14600.0000000356,42.8477210495098,1.00000000073857,0.556094648396046
14700.0000000359,42.7017941888805,1.00000000065948,0.544698882305117
14800.0000000363,42.5633006377298,1.00000000067464,0.53796846997287
14900.0000000367,42.4291005850209,1.00000000079931,0.535078664780342
15000.000000037,42.2930248124622,1.0000000008545,0.533494822684924
15100.0000000374,42.1517555723847,1.00000000088502,0.543408895528771
15200.0000000378,42.0041463990584,1.00000000089379,0.548675351995192
15300.0000000381,41.8550883135654,1.00000000076306,0.546118607654783
15400.0000000385,41.7146609070873,1.00000000069273,0.536385832036935
15500.0000000389,41.5932386833847,1.00000000064337,0.522521585543943
15600.0000000392,41.4946291102102,1.00000000067402,0.512214631850616
15700.0000000396,41.4158467177269,1.00000000067849,0.505200090242759
15800.0000000399,41.3515932863819,1.00000000069971,0.506307378559831
15900.0000000403,41.2941935460485,1.00000000076577,0.506505132671735
16000.0000000407,41.2354539111673,1.00000000081737,0.508681748861319
16100.000000041,41.179961111233,1.00000000073174,0.505397190001381
16200.0000000414,41.1337661292113,1.00000000071964,0.508430028202926
16300.0000000418,41.0960789026566,1.00000000073429,0.518273891131164
16400.0000000418,41.0605935386293,1.00000000076486,0.533459259434269
16500.0000000404,41.0235926002704,1.00000000081358,0.542681782824096
16600.0000000389,40.9872686579376,1.0000000007631,0.543846965625362
16700.0000000375,40.9507609062335,1.00000000075257,0.548353908966168
16800.000000036,40.9153408995809,1.00000000079293,0.548633794937294
16900.0000000346,40.8772245761396,1.0000000007847,0.545268337620879
17000.0000000331,40.8310866359139,1.00000000078827,0.555020848484913
17100.0000000317,40.7730005305711,1.00000000080607,0.555589641918954
17200.0000000302,40.7011763208924,1.00000000083842,0.547152635772186
17300.0000000287,40.6157352084286,1.00000000080204,0.551964455742485
17400.0000000273,40.5202130564724,1.00000000085342,0.56640545085675
17500.0000000258,40.4205166147838,1.00000000079396,0.564996791532068
17600.0000000244,40.3219199435068,1.00000000066766,0.552987223224206
17700.0000000229,40.2286245381978,1.00000000066771,0.545143853266767
17800.0000000215,40.142519233593,1.00000000071373,0.537980933620308
17900.00000002,40.0604758057309,1.00000000078073,0.532695891406813
18000.0000000186,39.9793241302614,1.00000000084394,0.5342673448789
18100.0000000171,39.8966913634586,1.00000000082475,0.542385399283925
18200.0000000156,39.8093922891385,1.00000000088575,0.552725504329747
18300.0000000142,39.7176946777269,1.00000000087515,0.559415440864626
18400.0000000127,39.6278348995216,1.00000000077305,0.557616261307655
18500.0000000113,39.5484993949593,1.00000000066591,0.546661954720056
18600.0000000098,39.4861004071535,1.00000000064909,0.538531330794375
18700.0000000084,39.4421618791131,1.00000000064783,0.529572607459377
18800.0000000069,39.4159806161184,1.00000000070036,0.523179698271906
18900.0000000055,39.4031406142004,1.00000000068177,0.514144665389577
19000.000000004,39.3950828605648,1.00000000076464,0.520069806642152
19100.0000000026,39.390131004434,1.00000000080245,0.523005125593653
19200.0000000011,39.3914818984953,1.00000000074498,0.518127733259779
19299.9999999996,39.3989041359089,1.00000000072778,0.510624579609554
19399.9999999982,39.4111151293018,1.00000000077224,0.512601776391574
19499.9999999967,39.4266952702272,1.00000000072602,0.513565372108502
19599.9999999953,39.4470197160238,1.0000000007371,0.512495521012254
19699.9999999938,39.4718272024438,1.00000000070866,0.513623792206367
19799.9999999924,39.4972632556405,1.00000000080569,0.531489265043768
19899.9999999909,39.5183405181486,1.00000000079705,0.549847196800756
19999.9999999895,39.5313418910223,1.00000000083107,0.556328018684351
20099.999999988,39.5370418252294,1.0000000008173,0.562693813791715
20199.9999999865,39.5398853656364,1.00000000076864,0.565982667384298
20299.9999999851,39.5437174266137,1.00000000073282,0.564006078241628
20399.9999999836,39.5483423904502,1.00000000077003,0.567444366359718
20499.9999999822,39.5488250955867,1.00000000084157,0.576215965741844
20599.9999999807,39.5433032757162,1.00000000082549,0.587422947926125
20699.9999999793,39.5328786018728,1.00000000078533,0.592354496964401
20799.9999999778,39.5185066760772,1.00000000080479,0.594844786384305
20899.9999999764,39.4972079927584,1.00000000076498,0.592893596342438
20999.9999999749,39.4695620805716,1.00000000074352,0.589519554549866
21099.9999999734,39.4369575270127,1.00000000075216,0.587294891084565
21199.999999972,39.3979747243992,1.00000000079872,0.580260607261431
21299.9999999705,39.3504878255434,1.00000000081861,0.570370193461338
21399.9999999691,39.2934067896774,1.00000000088131,0.56915670035405
21499.9999999676,39.2265546227639,1.00000000089087,0.581782186006198
21599.9999999662,39.150078752406,1.00000000085789,0.58865499569116
21699.9999999647,39.0677187442148,1.00000000083403,0.591200411147672
21799.9999999633,38.9837197337506,1.0000000007657,0.588268704085052
21899.9999999618,38.9018512843444,1.00000000070992,0.586673737937927
21999.9999999603,38.8234022055039,1.00000000067454,0.585610144693688
22099.9999999589,38.7497835307011,1.000000000684,0.587012512632352
22199.9999999574,38.6797016994624,1.00000000073881,0.585644555664483
22299.999999956,38.6129505472431,1.0000000007793,0.580868611015653
22399.9999999545,38.5488522676103,1.00000000080462,0.579451103318053
22499.9999999531,38.4858677825623,1.0000000007979,0.582471645770915
22599.9999999516,38.4235981514463,1.00000000083661,0.581021812962792
22699.9999999502,38.3603574501233,1.00000000084939,0.578745045847166
22799.9999999487,38.2964908945203,1.00000000085076,0.573385114875941
22899.9999999473,38.2313055220653,1.00000000079236,0.572283244275302
22999.9999999458,38.1682584337712,1.00000000077855,0.570863515770098
23099.9999999443,38.112660960339,1.00000000075821,0.568705745465366
23199.9999999429,38.06923059449,1.00000000069345,0.56445112996138
23299.9999999414,38.0412519105448,1.0000000006964,0.555962626561813
23399.99999994,38.0284701866497,1.00000000067947,0.551048250967046
23499.9999999385,38.0284800951685,1.00000000069684,0.549247159998144
23599.9999999371,38.039061124247,1.00000000074749,0.545608956150367
23699.9999999356,38.0551738919366,1.00000000079747,0.540584520326371
23799.9999999342,38.075270324713,1.00000000079553,0.538292867884725
23899.9999999327,38.1001548482862,1.00000000077838,0.535410527029399
23999.9999999312,38.1310374813224,1.00000000075245,0.53596059922552
24099.9999999298,38.1663818299315,1.0000000007658,0.535743851701371
24199.9999999283,38.2047590429831,1.00000000078074,0.537509924417447
24299.9999999269,38.247717638537,1.00000000072358,0.535892945654004
24399.9999999254,38.2952785106764,1.00000000074804,0.533309032246489
24499.999999924,38.346358973286,1.00000000074847,0.535622567389438
24599.9999999225,38.398901690815,1.00000000076009,0.542467834258344
24699.9999999211,38.449484332603,1.00000000082596,0.553806775618499
24799.9999999196,38.4955099471457,1.00000000084233,0.565549829297875
24899.9999999181,38.5355991225499,1.00000000074098,0.572501405854013
24999.9999999167,38.5716133010006,1.00000000084116,0.581152000397923
25099.9999999152,38.6022876264879,1.00000000083885,0.584194005319539
25199.9999999138,38.6283523935599,1.0000000008101,0.590242935612482
25299.9999999123,38.649950129244,1.00000000080858,0.591493621925987
25399.9999999109,38.6692050889787,1.00000000079877,0.59218398266571
25499.9999999094,38.6866133465868,1.00000000076176,0.593147569663239
25599.999999908,38.7040413762541,1.00000000078987,0.596627989104515
25699.9999999065,38.7202945311559,1.0000000008122,0.600528477063695
25799.9999999051,38.7337161384918,1.00000000075552,0.597957066383276
25899.9999999036,38.7446548028113,1.00000000081776,0.595595318034481
25999.9999999021,38.7522636681012,1.00000000085674,0.594567657298411
26099.9999999007,38.7537545472301,1.00000000081068,0.591307890748121
26199.9999998992,38.7497067469728,1.00000000082116,0.603947638329306
26299.9999998978,38.7420008156814,1.00000000082274,0.606529435586929
26399.9999998963,38.7325944356441,1.00000000078697,0.604768264078334
26499.9999998949,38.7227714331761,1.00000000079539,0.605366778446694
26599.9999998934,38.71079867147,1.00000000079579,0.605754685792818
26699.999999892,38.6956273907268,1.00000000080269,0.609018958272668
26799.9999998905,38.6784906639835,1.00000000077169,0.60079975022493
26899.999999889,38.658912788545,1.0000000007889,0.595263180443753
26999.9999998876,38.6365035011623,1.00000000080282,0.593642103510709
27099.9999998861,38.6111904429683,1.00000000078257,0.590182401905374
27199.9999998847,38.5816913811661,1.00000000085839,0.599036193612127
27299.9999998832,38.5472143804554,1.00000000085498,0.60129317073535
27399.9999998818,38.5088448084915,1.00000000077323,0.601461112141175
27499.9999998803,38.4696817031606,1.00000000078997,0.603066502040794
27599.9999998789,38.4306815645139,1.00000000078127,0.605139904065925
27699.9999998774,38.3916112719462,1.00000000074625,0.604778420498873
27799.9999998759,38.3503775901271,1.00000000080286,0.612495234040816
27899.9999998745,38.3061501884571,1.00000000082154,0.611985846523233
27999.999999873,38.2593916201273,1.00000000077029,0.607562346854104
28099.9999998716,38.2113615885591,1.00000000078266,0.602389977884058
28199.9999998701,38.1612277412308,1.00000000078301,0.602894453735701
28299.9999998687,38.1083193280437,1.00000000083081,0.604619648289618
28399.9999998672,38.0523048229361,1.00000000082083,0.608002638771698
28499.9999998658,37.992977799525,1.00000000087353,0.6098472258588
28599.9999998643,37.929819308147,1.00000000085272,0.60914968433242
28699.9999998629,37.8617377086675,1.00000000087157,0.610979602752439
28799.9999998614,37.7891072848388,1.00000000086536,0.6140736917081
28899.9999998599,37.7129751422301,1.00000000081522,0.621409246339217
28999.9999998585,37.6345116647405,1.00000000082923,0.625190208128009
