Time,AGPnorm,Energy,Entropy
0,0,1,5.8195581485971e-18
99.9999999999986,0.00757781910961685,0.999999999998604,0.0211521239394513
199.999999999993,0.0200794449896453,0.999999999999765,0.0608990028562656
300,0.0401975389027741,0.999999999999665,0.121279195709352
400.000000000022,0.0607891087874016,1.00000000003115,0.206880873407371
500.000000000045,0.0807889345244067,1.00000000044619,0.33177084106779
600.000000000068,0.264651598008511,1.00000000147741,0.44763631622811
700.000000000091,0.902933982833756,1.00000000230254,0.521486688084794
800.000000000113,2.35770196984587,1.00000000276533,0.559954799095146
900.000000000136,4.57795097864327,1.00000000267222,0.578207152929364
1000.00000000016,7.31198377258857,1.00000000279791,0.582001613808331
1100.0000000001,10.2320987444176,1.00000000267471,0.579324121788307
1200,13.0085238831875,1.0000000024835,0.570395003478405
1299.99999999991,15.4263315793444,1.00000000238474,0.56476660962952
1399.99999999982,17.3554617776256,1.00000000201456,0.556780548426677
1499.99999999973,18.7395625156787,1.00000000186523,0.551980493388561
1599.99999999964,19.6031571323488,1.00000000166658,0.52983865043124
1699.99999999955,20.0404469973103,1.00000000178707,0.542926270259012
1799.99999999946,20.0663576373529,1.00000000164846,0.5446729005359
1899.99999999937,19.9039445715367,1.00000000136145,0.499714872120138
1999.99999999928,19.4682421867366,1.00000000185085,0.543605160326111
2099.99999999919,19.0381242143186,1.000000001682,0.511239850645937
2199.99999999909,18.4347539557132,1.00000000133849,0.450990083063327
2299.999999999,17.8599446553293,1.00000000239106,0.583324324612159
2399.99999999891,17.313568661733,1.00000000114288,0.411377613976427
2499.99999999882,16.6987234101885,1.00000000168482,0.456373965510083
2599.99999999873,16.1177312414907,1.00000000245547,0.568939990269759
2699.99999999864,15.6065014481605,1.00000000157957,0.487441345338615
2799.99999999855,15.100352596694,1.0000000010105,0.373227614743827
2899.99999999846,14.6015144814196,1.00000000177297,0.499017579645704
2999.99999999837,14.1204705403033,1.00000000198813,0.534526884269644
3099.99999999828,13.6777163661753,1.00000000196549,0.564211793126108
3199.99999999819,13.2797066792953,1.00000000096714,0.406592521466383
3299.99999999809,12.9463752213487,1.00000000137423,0.406201615184345
3399.999999998,12.6191447920997,1.00000000205649,0.522235656749937
3499.99999999791,12.2964042478124,1.00000000149726,0.5254812686366
3599.99999999782,11.9816477999812,1.00000000214381,0.527434266346718
3699.99999999773,11.6611295154532,1.00000000231943,0.573459030177669
3799.99999999764,11.3764900262027,1.00000000117355,0.469566395492916
3899.99999999755,11.1831331679641,1.00000000108907,0.390665135873395
3999.99999999746,11.0572618429904,1.00000000170937,0.459820122005815
4099.99999999738,10.915124381197,1.00000000190906,0.523248869830586
4199.99999999775,10.7566981149436,1.00000000190875,0.552174924880559
4299.99999999811,10.5882567126441,1.00000000158372,0.548110052404822
4399.99999999848,10.4196383959119,1.00000000170136,0.547453459269962
4499.99999999884,10.2392073049739,1.00000000207089,0.535521543137151
4599.9999999992,10.0395262165752,1.00000000238338,0.576958345716609
4699.99999999957,9.84534341321252,1.00000000167195,0.544918978043919
4799.99999999993,9.71819028316431,1.0000000010144,0.433599650711567
4900.00000000029,9.70680207941295,1.00000000123281,0.408832188594011
5000.00000000066,9.75177636664559,1.00000000179695,0.460603917767164
5100.00000000102,9.7782474271941,1.00000000199048,0.522662865238565
5200.00000000139,9.77173081777179,1.0000000018268,0.553784427746688
5300.00000000175,9.75307979899334,1.00000000170676,0.5597193657847
5400.00000000211,9.71622917889819,1.00000000176322,0.57649384883744
5500.00000000248,9.65855728185976,1.00000000175396,0.563024225623623
5600.00000000284,9.58323672245008,1.0000000020651,0.569429678814494
5700.00000000321,9.49459141088811,1.00000000170256,0.578779083187596
5800.00000000357,9.41009091846776,1.00000000151609,0.575153481605654
5900.00000000393,9.31879903353362,1.00000000174902,0.580298136508632
6000.0000000043,9.21339032045103,1.00000000201431,0.587318835422719
6100.00000000466,9.0922894400743,1.000000002452,0.585875171943063
6200.00000000502,8.96145898111036,1.00000000201435,0.585902129896653
6300.00000000539,8.84408769291537,1.00000000146683,0.531852987452792
6400.00000000575,8.79115827286234,1.00000000106755,0.45613659615529
6500.00000000612,8.84856360602606,1.00000000123416,0.426177316605623
6600.00000000648,8.99121964357713,1.00000000152143,0.455510926380839
6700.00000000684,9.15029937527332,1.00000000193624,0.492491521855142
6800.00000000721,9.28333177523628,1.00000000201558,0.522837558846674
6900.00000000757,9.39734715404591,1.00000000185115,0.554700944328052
7000.00000000793,9.48516548309148,1.00000000196696,0.572061306481147
7100.0000000083,9.54690416712524,1.00000000193545,0.587787636578355
7200.00000000866,9.58403150267068,1.00000000193204,0.601224480123534
7300.00000000903,9.5900660240487,1.00000000204241,0.608770755566851
7400.00000000939,9.57470059002761,1.00000000173079,0.592209973154062
7500.00000000975,9.55544126254678,1.00000000199255,0.584933024763035
7600.00000001012,9.53556989514263,1.000000001763,0.577881626306128
7700.00000001048,9.51175823739437,1.00000000193004,0.560997043191422
7800.00000001084,9.47696429905005,1.00000000195583,0.575953256111082
7900.00000001121,9.43779158735823,1.00000000180935,0.586684660107339
8000.00000001157,9.40516395944127,1.0000000018738,0.586576679293992
8100.00000001194,9.36825663317538,1.00000000174795,0.593794530963127
8200.0000000123,9.32986885920537,1.00000000182576,0.589955575334077
8300.00000001266,9.28531747891637,1.00000000181722,0.588231402738604
8400.00000001303,9.23520265204201,1.00000000184337,0.584110336168813
8500.00000001339,9.17343812336864,1.0000000020743,0.61004253964411
8600.00000001376,9.10258419876745,1.00000000188527,0.622938332724312
8700.00000001412,9.03030658481259,1.00000000158514,0.609178503402101
8800.00000001448,8.95853513871989,1.00000000174913,0.616191834625711
8900.00000001485,8.8839107281339,1.00000000192324,0.610642271777205
9000.00000001521,8.80580835391417,1.00000000233633,0.612042063005733
9100.00000001557,8.72750824263312,1.00000000237223,0.605067471421526
9200.00000001594,8.64990851723692,1.000000002396,0.588818175316986
9300.0000000163,8.56702921864708,1.00000000225278,0.579793834130791
9400.00000001667,8.47958070561628,1.00000000179697,0.557613606105223
9500.00000001703,8.4052379904556,1.00000000153988,0.514434232779241
9600.00000001739,8.37949553407322,1.00000000110617,0.459451244092624
9700.00000001776,8.4392744675614,1.00000000132591,0.442101474998297
9800.00000001812,8.59333307138988,1.00000000141663,0.441127602816402
9900.00000001848,8.81036464060811,1.00000000171416,0.460748665263623
10000.0000000188,9.05814877251361,1.00000000193849,0.478016742949162
10100.0000000192,9.2909199313573,1.00000000206243,0.509171452467096
10200.0000000196,9.51190439757282,1.00000000207022,0.532433033814491
10300.0000000199,9.70783920765315,1.00000000211525,0.545270260908474
10400.0000000203,9.88728060486929,1.00000000216217,0.564195779139583
10500.0000000207,10.0471468409851,1.00000000198583,0.587061911167763
10600.000000021,10.1860347091828,1.00000000202803,0.60673463224299
10700.0000000214,10.2976739557961,1.00000000227422,0.608287783876619
10800.0000000218,10.3882975453134,1.00000000200188,0.618657233503286
10900.0000000221,10.4550775590951,1.00000000213453,0.640924761321533
11000.0000000225,10.4992432654203,1.00000000209902,0.637388092200226
11100.0000000229,10.525264113257,1.00000000198326,0.641795934489971
11200.0000000232,10.5441669071949,1.00000000204847,0.63736350450326
11300.0000000236,10.5547423969412,1.00000000203106,0.644470982884749
11400.0000000239,10.5580885502067,1.00000000199082,0.63532458091067
11500.0000000243,10.5531087256435,1.00000000219349,0.639949712312402
11600.0000000247,10.5341276626843,1.0000000020361,0.631113064417487
11700.000000025,10.5154697724942,1.00000000179553,0.61788994324449
11800.0000000254,10.4900128932256,1.0000000020283,0.635303493057216
11900.0000000258,10.4550216113503,1.00000000200401,0.636611095040638
12000.0000000261,10.4165883907492,1.00000000203593,0.646709670964677
12100.0000000265,10.3742441514791,1.00000000208977,0.650849048383009
12200.0000000269,10.3280235121596,1.00000000203358,0.652447806596457
12300.0000000272,10.2813121374809,1.00000000201008,0.646568221261133
12400.0000000276,10.2408354819936,1.00000000190429,0.626376829217418
12500.0000000279,10.2076246858189,1.00000000192996,0.619072732735047
12600.0000000283,10.1810529811606,1.00000000199451,0.61754836268766
12700.0000000287,10.1601600941088,1.0000000019863,0.618385301799042
12800.000000029,10.1441228760254,1.00000000200678,0.625929844751282
12900.0000000294,10.1274069367603,1.00000000213934,0.630348660545377
13000.0000000298,10.1063822930948,1.00000000230867,0.637014518323773
13100.0000000301,10.0846836530409,1.00000000201481,0.624029437828957
13200.0000000305,10.0636943598309,1.00000000206594,0.613653195194348
13300.0000000309,10.0434526783554,1.0000000019729,0.620443750758313
13400.0000000312,10.0274310991802,1.00000000200451,0.611145647782043
13500.0000000316,10.0133459763588,1.00000000191825,0.599198684769693
13600.0000000319,9.99535882139581,1.00000000224336,0.604117453290665
13700.0000000323,9.973430110188,1.00000000212812,0.606065190038447
13800.0000000327,9.95463018741712,1.00000000206245,0.604400429604553
13900.000000033,9.93532877088552,1.00000000217564,0.634562392551542
14000.0000000334,9.91711270701106,1.00000000202858,0.632623077263313
14100.0000000338,9.90290094944592,1.00000000203413,0.625537145364367
14200.0000000341,9.88476779400357,1.00000000221521,0.624701204465018
14300.0000000345,9.86495186574603,1.00000000208112,0.637527939404361
14400.0000000349,9.84729349030966,1.0000000020345,0.629184894007447
14500.0000000352,9.82723067885478,1.00000000223376,0.650780311556399
14600.0000000356,9.80118901307152,1.00000000201049,0.642401059059422
14700.0000000359,9.783073845334,1.00000000191145,0.633196457716601
14800.0000000363,9.76528570826359,1.00000000231367,0.654735868591456
14900.0000000367,9.7388980133929,1.00000000209448,0.642095762349959
15000.000000037,9.7103664022505,1.00000000196244,0.630613665034995
15100.0000000374,9.67996242069576,1.00000000201293,0.637616684037568
15200.0000000378,9.65267780865535,1.0000000018861,0.657130452078736
15300.0000000381,9.62710576131552,1.00000000213913,0.663444455086324
15400.0000000385,9.59890534727597,1.00000000209558,0.651721659884124
15500.0000000389,9.56624192491872,1.00000000216284,0.64657799960606
15600.0000000392,9.53477813714946,1.00000000201137,0.630987688206554
15700.0000000396,9.50528284527249,1.00000000229712,0.649980267092302
15800.0000000399,9.47008975441654,1.00000000228853,0.651840667824708
15900.0000000403,9.43459575870309,1.00000000214021,0.642143051347335
16000.0000000407,9.40110914128296,1.00000000206156,0.647533602234901
16100.000000041,9.36703346316568,1.00000000210646,0.643162170392401
16200.0000000414,9.33243210077884,1.00000000208901,0.663712831443306
16300.0000000418,9.29514275446785,1.00000000207309,0.662166583369801
16400.0000000418,9.25464005695639,1.00000000223683,0.658079043432501
16500.0000000404,9.21420448581634,1.00000000192683,0.635061065046824
16600.0000000389,9.17191206164074,1.00000000223536,0.64856811272735
16700.0000000375,9.12534344665195,1.00000000236111,0.662631489467631
16800.000000036,9.07882559316117,1.00000000186008,0.637762015301161
16900.0000000346,9.03215816186805,1.00000000233147,0.662560451131527
17000.0000000331,8.9819808051089,1.00000000233972,0.663628929268654
17100.0000000317,8.93113612782684,1.00000000225607,0.66143151576315
17200.0000000302,8.88020212132053,1.00000000219255,0.649593751618466
17300.0000000287,8.82960864873807,1.00000000211861,0.668844672497966
17400.0000000273,8.77932229056743,1.00000000196834,0.653991674871989
17500.0000000258,8.72966657555242,1.00000000189143,0.648144906185292
17600.0000000244,8.68101530622212,1.00000000204184,0.657308763702445
17700.0000000229,8.63473043759417,1.00000000227653,0.657725410451893
17800.0000000215,8.59179962216368,1.00000000250387,0.665144404103915
17900.00000002,8.55385416399747,1.00000000237887,0.670706458138046
18000.0000000186,8.52404020812015,1.00000000246241,0.679639249200321
18100.0000000171,8.50099589259586,1.00000000248868,0.675089295540267
18200.0000000156,8.49259984587387,1.00000000336721,0.674773675347898
18300.0000000142,8.48804901431915,1.00000000289295,0.681175596340938
18400.0000000127,8.49894369848922,1.00000000223851,0.674369556533963
18500.0000000113,8.5031627974824,1.00000000271593,0.666501947948655
18600.0000000098,8.51140146928636,1.00000000264738,0.651377017931189
18700.0000000084,8.5022117649535,1.00000000238494,0.629326192886892
18800.0000000069,8.48256158049846,1.00000000206731,0.615949695323574
18900.0000000055,8.44839932532068,1.00000000182555,0.596780647186621
19000.000000004,8.40857177378287,1.00000000186633,0.56605975466397
19100.0000000026,8.38081092814874,1.00000000144968,0.534313102942719
19200.0000000011,8.38370440571185,1.00000000148335,0.511315600387203
19299.9999999996,8.44411868081014,1.00000000141862,0.49219284963477
19399.9999999982,8.57271585966113,1.00000000173868,0.479269708955209
19499.9999999967,8.78488395554377,1.00000000162685,0.48054836179851
19599.9999999953,9.06374926337471,1.00000000175361,0.47898325653495
19699.9999999938,9.42871104450516,1.00000000191664,0.488487944562324
19799.9999999924,9.82573873950009,1.00000000219131,0.491930535318833
19899.9999999909,10.281648078545,1.00000000221092,0.504554329810314
19999.9999999895,10.7262727313189,1.00000000247068,0.515089239799598
20099.999999988,11.1885385306198,1.00000000255708,0.52577932990164
20199.9999999865,11.6246655782055,1.00000000247053,0.53448185595373
20299.9999999851,12.0534715423531,1.0000000024783,0.540328920564309
20399.9999999836,12.4732952705638,1.00000000227356,0.542803449889594
20499.9999999822,12.8731049441885,1.00000000240496,0.555117992396408
20599.9999999807,13.2712603834108,1.00000000239809,0.566922159495595
20699.9999999793,13.6383070659964,1.00000000255347,0.577160010527319
20799.9999999778,14.0036505592261,1.00000000223985,0.586587079849044
20899.9999999764,14.3508274756625,1.00000000246564,0.599584144497578
20999.9999999749,14.6895818644931,1.00000000235012,0.597049255393743
21099.9999999734,15.0232105879277,1.00000000230773,0.616880567255985
21199.999999972,15.3228624074388,1.0000000025734,0.626874679120479
21299.9999999705,15.6077950403599,1.00000000242686,0.635909772064378
21399.9999999691,15.8697904700024,1.00000000266705,0.650519426821685
21499.9999999676,16.1212315463091,1.00000000243565,0.651019467041967
21599.9999999662,16.3453876498225,1.00000000237601,0.652493167152092
21699.9999999647,16.5599464159849,1.00000000255969,0.66886118557009
21799.9999999633,16.7547682793803,1.00000000243187,0.669214321688539
21899.9999999618,16.9316564282961,1.0000000023877,0.671922603023398
21999.9999999603,17.0988842975841,1.00000000244671,0.672671573394976
22099.9999999589,17.25260683299,1.00000000246166,0.675235615056759
22199.9999999574,17.4061332418335,1.00000000272231,0.665101806832894
22299.999999956,17.5387942739154,1.0000000027304,0.666438450851488
22399.9999999545,17.6609367150401,1.00000000271829,0.671550145170566
22499.9999999531,17.7761774839719,1.00000000250451,0.670852165845747
22599.9999999516,17.8875879399742,1.00000000225792,0.680431223464503
22699.9999999502,17.9947867447773,1.00000000256601,0.681784763544177
22799.9999999487,18.0908945478561,1.00000000247358,0.681965644944808
22899.9999999473,18.1895349295499,1.0000000026921,0.676769061270984
22999.9999999458,18.2788734581939,1.00000000281623,0.667268506899738
23099.9999999443,18.3629271431566,1.00000000240824,0.657261726656204
23199.9999999429,18.4331506379096,1.00000000252639,0.67538343608152
23299.9999999414,18.5047298557445,1.00000000224921,0.66451204808043
23399.99999994,18.5825852141087,1.00000000251999,0.679036116190323
23499.9999999385,18.6608868204306,1.00000000258276,0.668733698885161
23599.9999999371,18.7400189692183,1.00000000278147,0.670272725138117
23699.9999999356,18.8124823346316,1.00000000264933,0.677788109572632
23799.9999999342,18.8736938705624,1.00000000291019,0.673847148518173
23899.9999999327,18.924935152758,1.00000000263522,0.668537276010206
23999.9999999312,18.9764915492072,1.00000000239661,0.680556335104476
24099.9999999298,19.0349652320432,1.00000000257133,0.663170044760037
24199.9999999283,19.0908203073618,1.00000000257905,0.661867154334735
24299.9999999269,19.1462014252736,1.00000000256158,0.666787467810098
24399.9999999254,19.1906176172266,1.00000000269491,0.666419028411399
24499.999999924,19.2321229508498,1.00000000260576,0.659053914586587
24599.9999999225,19.2804837626435,1.00000000265782,0.654880476948467
24699.9999999211,19.3363527366601,1.00000000241819,0.672299252039615
24799.9999999196,19.3898740578995,1.00000000286991,0.687048009335655
24899.9999999181,19.4340488772072,1.00000000257936,0.673024610398301
24999.9999999167,19.481528947993,1.00000000239155,0.672326048324451
25099.9999999152,19.5404431443602,1.00000000244457,0.656690972059647
25199.9999999138,19.6106187870776,1.0000000024197,0.669624686686583
25299.9999999123,19.6759290319967,1.00000000288579,0.674162202373438
25399.9999999109,19.7415739361758,1.00000000235184,0.659711506311868
25499.9999999094,19.821122952072,1.00000000245125,0.65956567560726
25599.999999908,19.8963566997937,1.00000000275795,0.678573830158049
25699.9999999065,19.9627113531057,1.0000000027323,0.678695606078126
25799.9999999051,20.0219422646379,1.00000000239093,0.66625145390179
25899.9999999036,20.0818419519992,1.00000000244202,0.658716352911367
25999.9999999021,20.1484307086577,1.00000000318194,0.67171608417689
26099.9999999007,20.2146256943025,1.00000000249535,0.689130001066207
26199.9999998992,20.2753140577923,1.00000000280442,0.676286106505877
26299.9999998978,20.3286849045461,1.0000000026153,0.677159592100294
26399.9999998963,20.3889529063162,1.000000002571,0.658205202184439
26499.9999998949,20.451812290224,1.00000000267644,0.662628631685931
26599.9999998934,20.5104078678549,1.00000000301838,0.661287290069754
26699.999999892,20.5646229168441,1.00000000279996,0.650661790653383
26799.9999998905,20.6163239108202,1.00000000278199,0.65057558676129
26899.999999889,20.6695478298567,1.00000000227607,0.653132145232346
26999.9999998876,20.728501293802,1.00000000247346,0.642452157271781
27099.9999998861,20.7895911623463,1.00000000274312,0.653085396729592
27199.9999998847,20.8478563110877,1.00000000257892,0.642125172975548
27299.9999998832,20.9014632874587,1.0000000029424,0.656798855069613
27399.9999998818,20.9483663101399,1.00000000260193,0.665661607135789
27499.9999998803,20.9919702621734,1.00000000284779,0.670246801349681
27599.9999998789,21.0347873322261,1.00000000314959,0.662102097795218
27699.9999998774,21.0770462244043,1.00000000274056,0.65866371957712
27799.9999998759,21.119513533282,1.00000000265129,0.660913478604114
27899.9999998745,21.1703325952608,1.0000000024389,0.656259328846357
27999.999999873,21.2350869505232,1.00000000243175,0.647603951699452
28099.9999998716,21.3225378850135,1.00000000254166,0.656677834217876
28199.9999998701,21.4230327613873,1.00000000267654,0.67977794201415
28299.9999998687,21.5238775481792,1.00000000290829,0.674282331792608
28399.9999998672,21.6255030080865,1.00000000266293,0.676277525225427
28499.9999998658,21.7291392044473,1.00000000303876,0.671567427476155
28599.9999998643,21.8306954975629,1.00000000268217,0.670377205202316
28699.9999998629,21.9297986825032,1.00000000263056,0.67164081125126
28799.9999998614,22.0286977705127,1.00000000261645,0.67154546294099
28899.9999998599,22.1255506991038,1.00000000273454,0.678922597919925
28999.9999998585,22.2216424453547,1.00000000267544,0.665437223754707
29099.999999857,22.3203695006219,1.00000000258583,0.672325028827199
