Time,AGPnorm,Energy,Entropy
0,0,1,-1.31540700812899e-17
99.9999999999986,1.23263481699397e-05,0.999999999994207,0.000569731484505202
199.999999999993,0.00112628906031368,0.999999999999522,0.000923252436684331
300,0.00272571798487853,0.999999999997192,0.0015697057845318
400.000000000022,0.00371642097623056,0.999999999995464,0.00279606700090828
500.000000000045,0.00448894669343552,1.00000000000041,0.00368614358545166
600.000000000068,0.00658841026468389,0.999999999994565,0.00515006109789217
700.000000000091,0.00803857553178012,0.999999999998563,0.00670081251117877
800.000000000113,0.0101492453775979,0.999999999998294,0.00813410357154677
900.000000000136,0.0129142977824721,0.999999999994748,0.0101518675945787
1000.00000000016,0.0150714952903726,1.0000000000004,0.0118909096444771
1100.0000000001,0.0182062619267627,0.999999999995275,0.0139098608412017
1200,0.0211671737026053,0.999999999997476,0.0162279733798105
1299.99999999991,0.0242887985817542,0.999999999999245,0.0182556521757114
1399.99999999982,0.0282548570440584,0.9999999999944,0.0208126241284745
1499.99999999973,0.0316927794322107,0.999999999999999,0.0232387176175097
1599.99999999964,0.0358170583650172,0.999999999996217,0.0257069165361639
1699.99999999955,0.0401326069124588,0.999999999996424,0.0286197504836877
1799.99999999946,0.0443065853490541,0.999999999999918,0.031193840143507
1899.99999999937,0.0492342852225124,0.999999999994449,0.0341868786958927
1999.99999999928,0.0536929230088536,0.999999999999261,0.0372331227296615
2099.99999999919,0.0586203455550722,0.999999999997258,0.0401365262477673
2199.99999999909,0.0641198008780701,0.999999999995567,0.0435603746833524
2299.999999999,0.0692981048209741,1.00000000000022,0.0466930430198109
2399.99999999891,0.0749673442737165,0.999999999994849,0.0500998994277241
2499.99999999882,0.0802693995507579,0.999999999998316,0.0537366931654361
2599.99999999873,0.0858509290389025,0.999999999998276,0.057122461747304
2699.99999999864,0.0922080843176744,0.999999999995023,0.0610376473689854
2799.99999999855,0.0981873328238084,1.0000000000001,0.0647858235710971
2899.99999999846,0.104359186392419,0.999999999995516,0.0686429978101028
2999.99999999837,0.110442378605706,0.999999999997314,0.0728914714333979
3099.99999999828,0.116596218203164,0.999999999999154,0.076853116677316
3199.99999999819,0.123462458844537,0.999999999994836,0.0813110463130688
3299.99999999809,0.129895632159583,0.999999999999617,0.085772731175991
3399.999999998,0.136365302404155,0.999999999996332,0.0901932490140405
3499.99999999791,0.143117768252126,0.999999999996405,0.095151752713504
3599.99999999782,0.149796556884005,0.999999999999729,0.0998628562356471
3699.99999999773,0.15689006309434,0.999999999994952,0.105010881596997
3799.99999999764,0.163476111359771,0.999999999998907,0.110357074716688
3899.99999999755,0.170119756670782,0.999999999997227,0.11558446628308
3999.99999999746,0.177284910395656,0.999999999995775,0.121481032103719
4099.99999999738,0.184308051257296,0.999999999999921,0.127278428696728
4199.99999999775,0.191376145347884,0.999999999995399,0.133449962637972
4299.99999999811,0.197964855517818,0.999999999998193,0.140082514124587
4399.99999999848,0.204718937306914,0.999999999998416,0.146628316015826
4499.99999999884,0.212046865500497,0.999999999995923,0.15402944046344
4599.9999999992,0.21895992651741,1.00000000000053,0.161600986765881
4699.99999999957,0.226052401346188,0.999999999997464,0.169550377279828
4799.99999999993,0.23244683132408,0.999999999999813,0.17830170566135
4900.00000000029,0.239456219272573,1.00000000000354,0.187038882444322
5000.00000000066,0.247448914489164,1.00000000000263,0.196693617635139
5100.00000000102,0.253579643726748,1.00000000000966,0.206620188949228
5200.00000000139,0.262741094932938,1.00000000001221,0.216634830876942
5300.00000000175,0.270523591059098,1.00000000001765,0.227349806541547
5400.00000000211,0.280238555113188,1.00000000002957,0.237723088823232
5500.00000000248,0.296739372967928,1.00000000003273,0.248480499420849
5600.00000000284,0.309305239444965,1.00000000004587,0.259245615709884
5700.00000000321,0.335624815875501,1.00000000005336,0.269484975785419
5800.00000000357,0.368134236519738,1.00000000006472,0.280169667176103
5900.00000000393,0.407535529192198,1.00000000007773,0.290308742667213
6000.0000000043,0.476811738847578,1.00000000008515,0.300307204227359
6100.00000000466,0.551249548406492,1.00000000010044,0.310385118670088
6200.00000000502,0.662628118575492,1.00000000011541,0.319593839175117
6300.00000000539,0.812736227513999,1.00000000012317,0.329275070824104
6400.00000000575,0.986283372314706,1.00000000014747,0.338436679998681
6500.00000000612,1.23503840508028,1.00000000016296,0.34715060501951
6600.00000000648,1.52381020034538,1.00000000016344,0.356250868104147
6700.00000000684,1.88315576998908,1.00000000018076,0.364380684108512
6800.00000000721,2.34192868633894,1.000000000197,0.372725224520556
6900.00000000757,2.85748268805703,1.00000000020214,0.380954248890845
7000.00000000793,3.50442996129039,1.00000000021376,0.388357311919426
7100.0000000083,4.25229202985761,1.00000000023272,0.396201624338652
7200.00000000866,5.10695288330176,1.00000000024709,0.403309156795064
7300.00000000903,6.13406023636712,1.00000000025058,0.410336324286993
7400.00000000939,7.26523118679697,1.00000000026482,0.417487332017328
7500.00000000975,8.57607536246056,1.00000000027016,0.423677527298403
7600.00000001012,10.0605510710202,1.00000000027279,0.430336316603162
7700.00000001048,11.6839187542862,1.00000000029668,0.436478112365834
7800.00000001084,13.5423541226565,1.00000000029685,0.442209245113114
7900.00000001121,15.557648378367,1.00000000030119,0.448284215054951
8000.00000001157,17.7795038522654,1.00000000030676,0.453515278042118
8100.00000001194,20.240579972475,1.00000000032682,0.458872473523361
8200.0000000123,22.8650230653939,1.00000000033146,0.4641722437272
8300.00000001266,25.7593179250185,1.00000000033836,0.468690328609216
8400.00000001303,28.8588416608499,1.00000000034283,0.473783143196697
8500.00000001339,32.1677862711284,1.0000000003434,0.478186941308107
8600.00000001376,35.7584605628595,1.0000000003474,0.482399724244017
8700.00000001412,39.5286215695758,1.00000000035676,0.486934952648235
8800.00000001448,43.5700753902642,1.00000000033852,0.490543337934714
8900.00000001485,47.8507903553781,1.00000000035818,0.494577911778377
9000.00000001521,52.325593358059,1.00000000037108,0.498271972523803
9100.00000001557,57.0932528912252,1.00000000036329,0.501519436886884
9200.00000001594,62.047819083526,1.00000000037421,0.505222564857169
9300.0000000163,67.2459981186354,1.00000000037823,0.508030458215015
9400.00000001667,72.6964717909593,1.00000000037409,0.511246945537051
9500.00000001703,78.315502923946,1.00000000036617,0.514354498596284
9600.00000001739,84.2075965908786,1.00000000037136,0.516674695255849
9700.00000001776,90.2846548660428,1.00000000037623,0.519665117078356
9800.00000001812,96.5579322794698,1.00000000038052,0.521994694387563
9900.00000001848,103.074418291709,1.00000000038696,0.524209517850158
10000.0000000188,109.729905094598,1.0000000003712,0.526897700053282
10100.0000000192,116.613069795257,1.00000000038431,0.528465891256554
10200.0000000196,123.669186535271,1.0000000003724,0.530866655796615
10300.0000000199,130.866573837578,1.00000000038475,0.532782963979656
10400.0000000203,138.2768262326,1.00000000037523,0.53430770158409
10500.0000000207,145.795612885262,1.00000000037818,0.536469757158998
10600.000000021,153.482637319937,1.00000000038412,0.537518364186037
10700.0000000214,161.319699465567,1.00000000037028,0.539366609011361
10800.0000000218,169.243730235827,1.00000000037826,0.541001440222424
10900.0000000221,177.334969175663,1.00000000036229,0.541749030650494
11000.0000000225,185.504591030103,1.00000000038242,0.54357558293554
11100.0000000229,193.778891415438,1.00000000036841,0.544512216537319
11200.0000000232,202.169757617479,1.00000000038607,0.545205888166912
11300.0000000236,210.599139062225,1.00000000037561,0.547086173294999
11400.0000000239,219.141522718068,1.00000000037077,0.547079603583798
11500.0000000243,227.730382183528,1.00000000037457,0.548442666175019
11600.0000000247,236.362773457638,1.00000000037727,0.549538988423055
11700.000000025,245.074153344936,1.00000000036196,0.549510944954125
11800.0000000254,253.78059278508,1.00000000036627,0.551182830858498
11900.0000000258,262.543293661565,1.00000000035841,0.551157167974828
12000.0000000261,271.323066271326,1.00000000037167,0.551291472838899
12100.0000000265,280.089984868155,1.00000000035909,0.552995490502914
12200.0000000269,288.895672408367,1.0000000003498,0.552403445916378
12300.0000000272,297.661073736013,1.00000000036541,0.552992293867834
12400.0000000276,306.428071060882,1.00000000034729,0.553969710185596
12500.0000000279,315.183773833139,1.00000000034236,0.55354714411737
12600.0000000283,323.879631375044,1.00000000035967,0.554465376315239
12700.0000000287,332.572233962145,1.00000000034838,0.554199127907861
12800.000000029,341.200846048618,1.00000000034887,0.554101238079601
12900.0000000294,349.778779648991,1.00000000034192,0.555216942275194
13000.0000000298,358.319627115365,1.00000000033151,0.554595356073789
13100.0000000301,366.766153668281,1.00000000033947,0.554674672469125
13200.0000000305,375.167955122389,1.00000000033626,0.555110569951758
13300.0000000309,383.485334931011,1.00000000033426,0.55475542495126
13400.0000000312,391.712264420051,1.00000000031909,0.555190990794347
13500.0000000316,399.874170264362,1.0000000003292,0.554907621620518
13600.0000000319,407.919747582373,1.0000000003319,0.554604947876749
13700.0000000323,415.883394404754,1.00000000032877,0.554752549909594
13800.0000000327,423.746856026631,1.00000000031778,0.554841009460232
13900.000000033,431.491307922039,1.00000000031338,0.554591007104911
14000.0000000334,439.145064308756,1.0000000003203,0.554382555706899
14100.0000000338,446.665857896425,1.00000000031596,0.554403070735224
14200.0000000341,454.079649228442,1.00000000031192,0.553915779405939
14300.0000000345,461.375853650902,1.00000000030154,0.553769463068629
14400.0000000349,468.533143238546,1.00000000030144,0.554166754285955
14500.0000000352,475.582081600574,1.00000000028934,0.553611179253357
14600.0000000356,482.486562080622,1.00000000030505,0.552929160734675
14700.0000000359,489.261151119383,1.00000000030133,0.553062055355091
14800.0000000363,495.910377342228,1.00000000028583,0.553057373453159
14900.0000000367,502.407411778546,1.00000000027824,0.552758660255316
15000.000000037,508.777708259612,1.000000000287,0.552312613267646
15100.0000000374,515.000220640089,1.00000000028755,0.552276409178258
15200.0000000378,521.078855694501,1.00000000027054,0.551788550668132
15300.0000000381,527.023657488036,1.00000000028576,0.551085411904907
15400.0000000385,532.808075030527,1.00000000027915,0.551383564886486
15500.0000000389,538.456792351229,1.00000000027565,0.551433979424873
15600.0000000392,543.956034526169,1.00000000027716,0.550378689158862
15700.0000000396,549.300980030353,1.00000000026586,0.550219998826184
15800.0000000399,554.508127104482,1.00000000026988,0.550292986542
15900.0000000403,559.55402385665,1.00000000027317,0.549648892548248
16000.0000000407,564.459169918026,1.00000000026578,0.549778964761374
16100.000000041,569.213982146434,1.00000000026227,0.548872075593201
16200.0000000414,573.815378773163,1.00000000027006,0.550009145025566
16300.0000000418,578.277740553884,1.00000000026226,0.548536724693942
16400.0000000418,582.584383347646,1.00000000025392,0.548699783394728
16500.0000000404,586.745339796565,1.0000000002415,0.547593345551905
16600.0000000389,590.763799774205,1.00000000025829,0.54791421491053
16700.0000000375,594.627954095112,1.00000000025495,0.54747166014872
16800.000000036,598.354871997351,1.00000000025451,0.547688985838954
16900.0000000346,601.92923534667,1.00000000024555,0.547087539431043
17000.0000000331,605.361041758712,1.00000000025767,0.546869487278378
17100.0000000317,608.653802673664,1.00000000023794,0.545357678048536
17200.0000000302,611.795583271496,1.00000000024098,0.545074778001037
17300.0000000287,614.801182990145,1.00000000023717,0.545025759305372
17400.0000000273,617.662722394821,1.00000000024249,0.54604733227272
17500.0000000258,620.385829776927,1.00000000023004,0.546547454182072
17600.0000000244,622.976984057983,1.00000000022861,0.545945393969992
17700.0000000229,625.425841497178,1.00000000022829,0.544169397425991
17800.0000000215,627.742889773436,1.00000000022603,0.542485249796823
17900.00000002,629.922898068845,1.00000000022703,0.541332267779081
18000.0000000186,631.965767642434,1.00000000022551,0.542543234199433
18100.0000000171,633.883214230724,1.00000000022289,0.54493680776146
18200.0000000156,635.66880989343,1.00000000023366,0.546728226926222
18300.0000000142,637.336093468624,1.00000000023026,0.546667261233633
18400.0000000127,638.88228673704,1.00000000021273,0.54322192463304
18500.0000000113,640.302053058988,1.0000000002117,0.539602266320317
18600.0000000098,641.599582311574,1.0000000002075,0.536605423703116
18700.0000000084,642.765466618674,1.00000000020857,0.537757303299642
18800.0000000069,643.811822571075,1.00000000020981,0.542260601133637
18900.0000000055,644.746886737106,1.00000000021439,0.54723787201665
19000.000000004,645.576715759278,1.00000000021989,0.549805364119006
19100.0000000026,646.312240673315,1.000000000214,0.547357124640338
19200.0000000011,646.944648611161,1.00000000020929,0.540915896866354
19299.9999999996,647.468640451352,1.00000000019645,0.533424411222094
19399.9999999982,647.877108851737,1.0000000001867,0.529508002370072
19499.9999999967,648.165080464402,1.00000000018741,0.532375953031557
19599.9999999953,648.348738768634,1.00000000019607,0.540858674498182
19699.9999999938,648.440776252259,1.00000000021645,0.549499006608358
19799.9999999924,648.45893676115,1.00000000022503,0.55383203619211
19899.9999999909,648.412407292049,1.00000000022595,0.551429650799191
19999.9999999895,648.29226860226,1.00000000020642,0.542001495421018
20099.999999988,648.088510982133,1.00000000018546,0.529983372750911
20199.9999999865,647.782514465471,1.00000000016751,0.520295476308539
20299.9999999851,647.367990809763,1.00000000016099,0.520511764965868
20399.9999999836,646.857161675211,1.00000000017421,0.530679971473101
20499.9999999822,646.265869511159,1.00000000020794,0.544662260129066
20599.9999999807,645.623339706973,1.00000000022999,0.555675027680794
20699.9999999793,644.944154655447,1.00000000024569,0.558529553151415
20799.9999999778,644.231075261088,1.00000000023222,0.552199199211433
20899.9999999764,643.474192644528,1.0000000002124,0.537182868555711
20999.9999999749,642.647270597914,1.00000000017572,0.518998144573594
21099.9999999734,641.734034155114,1.00000000015084,0.506133069813826
21199.999999972,640.726111512271,1.00000000014579,0.505879319524068
21299.9999999705,639.632997258875,1.00000000016513,0.520600661738139
21399.9999999691,638.483418601517,1.00000000020651,0.540965403479341
21499.9999999676,637.302667516949,1.00000000023781,0.557053398512143
21599.9999999662,636.114200447357,1.00000000027093,0.563214609495594
21699.9999999647,634.924153849614,1.00000000025626,0.558627419905449
21799.9999999633,633.719904977497,1.00000000023393,0.543898789240245
21899.9999999618,632.482564651353,1.00000000019118,0.520791530954671
21999.9999999603,631.182403631041,1.00000000015028,0.497566738484254
22099.9999999589,629.803794508595,1.00000000012915,0.485728791643236
22199.9999999574,628.347233769159,1.00000000013365,0.49274606317671
22299.999999956,626.82767424729,1.00000000017549,0.516894476139917
22399.9999999545,625.277461809318,1.00000000022526,0.542822456352292
22499.9999999531,623.722003512325,1.00000000027201,0.560603055354955
22599.9999999516,622.1812618397,1.0000000002785,0.56754704001509
22699.9999999502,620.660798972231,1.00000000028432,0.562756510876122
22799.9999999487,619.147725320914,1.00000000025016,0.547277058098011
22899.9999999473,617.622693729644,1.00000000019959,0.521583907234927
22999.9999999458,616.057193458039,1.00000000015719,0.49129562311719
23099.9999999443,614.42933190042,1.00000000012136,0.470544939735675
23199.9999999429,612.735041873461,1.00000000011424,0.469061787770743
23299.9999999414,610.981226702846,1.00000000014121,0.490277369013458
23399.99999994,609.194823767027,1.00000000019064,0.523084442493952
23499.9999999385,607.402853757712,1.00000000024501,0.550085480145798
23599.9999999371,605.626981079552,1.0000000002907,0.565678153258057
23699.9999999356,603.881614148728,1.00000000030807,0.570198317445724
23799.9999999342,602.165804951438,1.00000000029146,0.564103517358483
23899.9999999327,600.469854506212,1.00000000025557,0.547923202196018
23999.9999999312,598.774113777678,1.00000000021524,0.520692314434128
24099.9999999298,597.052957597621,1.00000000016854,0.487015684040161
24199.9999999283,595.288680886408,1.00000000011766,0.459444755215295
24299.9999999269,593.469144921944,1.00000000010427,0.450426147070563
24399.9999999254,591.601083950105,1.00000000011878,0.465146394560708
24499.999999924,589.702389828564,1.00000000016674,0.49836657920272
24599.9999999225,587.794006437253,1.00000000022413,0.532905625211123
24699.9999999211,585.899071020558,1.00000000028497,0.55642802313245
24799.9999999196,584.031164895593,1.00000000030487,0.567393648432598
24899.9999999181,582.197960865477,1.0000000003184,0.569025068177393
24999.9999999167,580.398527514368,1.00000000029364,0.562164203560598
25099.9999999152,578.621801914742,1.00000000026176,0.545732211024739
25199.9999999138,576.853041743357,1.00000000022641,0.520070203682283
25299.9999999123,575.072684917103,1.00000000017648,0.48606545556154
25399.9999999109,573.263664252901,1.00000000012672,0.455207707723959
25499.9999999094,571.418891056533,1.00000000010387,0.439095365108969
25599.999999908,569.536249546638,1.00000000011132,0.444263210168609
25699.9999999065,567.627266904288,1.00000000014326,0.468824081305159
25799.9999999051,565.70680604755,1.00000000018948,0.504729323788483
25899.9999999036,563.790810281338,1.00000000024278,0.536237470028302
25999.9999999021,561.894254010253,1.00000000028278,0.556608481502082
26099.9999999007,560.025436145544,1.00000000030274,0.563895793340451
26199.9999998992,558.188692172074,1.00000000031835,0.563901693423224
26299.9999998978,556.382970299249,1.00000000029916,0.556489184714359
26399.9999998963,554.600316033173,1.00000000027732,0.542421464607424
26499.9999998949,552.831303495289,1.00000000024186,0.522592984921954
26599.9999998934,551.062827526319,1.00000000019578,0.493713717773621
26699.999999892,549.282671772167,1.00000000015999,0.463509814055067
26799.9999998905,547.483897236681,1.00000000012534,0.440872880124835
26899.999999889,545.661810299816,1.00000000010913,0.433254697850185
26999.9999998876,543.821419885639,1.00000000012881,0.441894458771654
27099.9999998861,541.968304368925,1.0000000001561,0.465002450922363
27199.9999998847,540.11257143063,1.00000000019646,0.496491427442394
27299.9999998832,538.26500735459,1.00000000024822,0.525607621130975
27399.9999998818,536.433342678224,1.00000000027819,0.545091746291199
27499.9999998803,534.623760600595,1.00000000030057,0.554013391057173
27599.9999998789,532.839425936847,1.00000000030535,0.554475243015125
27699.9999998774,531.080031653312,1.0000000002933,0.548493556282426
27799.9999998759,529.342832803645,1.00000000029341,0.539994098929315
27899.9999998745,527.622600857174,1.0000000002568,0.526332648008641
27999.999999873,525.912081092684,1.00000000022612,0.508719406410664
28099.9999998716,524.204869456356,1.00000000019842,0.488583762226108
28199.9999998701,522.493994530177,1.00000000016088,0.464915088719419
28299.9999998687,520.776759694925,1.00000000014328,0.447691608030024
28399.9999998672,519.050569891156,1.00000000013388,0.437105971584186
28499.9999998658,517.317375943152,1.00000000013374,0.438609193685389
28599.9999998643,515.580322892265,1.00000000014606,0.450832932974172
28699.9999998629,513.8430604626,1.00000000018039,0.471855328487275
28799.9999998614,512.111543159584,1.00000000020877,0.495647867563604
