Time,AGPnorm,Energy,Entropy
0,0,1,-1.68179891450285e-18
99.9999999999986,0.00265646715859531,1.0000000000014,0.00902427488343994
199.999999999993,0.00751627769813529,1.0000000000003,0.0264511684278842
300,0.0160001484342703,1.00000000000109,0.0516201621425727
400.000000000022,0.0256282767266889,1.00000000000103,0.0827558951939136
500.000000000045,0.0371682480191689,1.00000000000119,0.121081548221708
600.000000000068,0.0496786353879836,1.00000000000618,0.168703491587588
700.000000000091,0.0614685375305729,1.00000000003433,0.229122164780868
800.000000000113,0.0911369643985292,1.00000000014824,0.302184003565993
900.000000000136,0.175916585974181,1.00000000034208,0.376590270642916
1000.00000000016,0.500860825139649,1.00000000059624,0.439399035781914
1100.0000000001,1.27471774023922,1.00000000077801,0.485777919646211
1200,2.74663852438217,1.00000000089657,0.516733337276925
1299.99999999991,5.0466922206933,1.00000000104567,0.536350509064064
1399.99999999982,8.17359680654219,1.00000000107456,0.546744065677663
1499.99999999973,12.0303967662374,1.00000000114526,0.551309342398046
1599.99999999964,16.426533242682,1.00000000107025,0.551031880309001
1699.99999999955,21.146032874366,1.00000000106811,0.548152828017728
1799.99999999946,25.9826827093544,1.00000000100164,0.543900180376119
1899.99999999937,30.7173076817191,1.00000000099456,0.53536202055529
1999.99999999928,35.2153520925785,1.00000000096519,0.531349705408711
2099.99999999919,39.3109043151392,1.00000000088805,0.519264027923285
2199.99999999909,42.9517219156411,1.00000000082728,0.517178393626636
2299.999999999,46.0577757560232,1.0000000007685,0.511405214944754
2399.99999999891,48.6125177133801,1.00000000069827,0.490901227702536
2499.99999999882,50.6096816140928,1.00000000071224,0.50921915669564
2599.99999999873,52.1323983466837,1.0000000006814,0.505681095083932
2699.99999999864,53.1187220497032,1.00000000056559,0.455601939872724
2799.99999999855,53.5960832699806,1.00000000060596,0.490106197290984
2899.99999999846,53.8167875466561,1.00000000073268,0.537115028376072
2999.99999999837,53.7884356319715,1.00000000058748,0.46933548951795
3099.99999999828,53.335936786274,1.0000000003554,0.396636404701406
3199.99999999819,52.5973173156086,1.00000000062422,0.491814537909792
3299.99999999809,51.8791790125772,1.00000000088132,0.559649284099516
3399.999999998,51.214717493553,1.00000000073888,0.510476734995284
3499.99999999791,50.3766087616322,1.00000000031314,0.360055560880405
3599.99999999782,49.3003364637662,1.00000000030144,0.350331317226681
3699.99999999773,48.1676623292025,1.00000000073569,0.485808864448358
3799.99999999764,47.1380535223594,1.00000000093604,0.551101576634901
3899.99999999755,46.2567012338362,1.00000000090612,0.552687722763691
3999.99999999746,45.4232833631858,1.0000000006244,0.45988058435064
4099.99999999738,44.500091091016,1.00000000028508,0.306262523246867
4199.99999999775,43.5071733163123,1.00000000026265,0.290224619264495
4299.99999999811,42.527117824475,1.00000000056497,0.424744526736771
4399.99999999848,41.5743283992687,1.00000000078033,0.507850690977612
4499.99999999884,40.6710306049475,1.00000000087732,0.508796131317514
4599.9999999992,39.8465716903653,1.00000000089503,0.539835978241326
4699.99999999957,39.0987995184477,1.00000000081452,0.546607865086744
4799.99999999993,38.3688666909805,1.00000000052109,0.454099581633808
4900.00000000029,37.6256960133356,1.00000000028174,0.315995077448673
5000.00000000066,36.9312046814371,1.00000000026908,0.263228652006561
5100.00000000102,36.3360996559225,1.00000000040692,0.33361548796584
5200.00000000139,35.7925597995057,1.0000000006567,0.440622622993892
5300.00000000175,35.2228741068822,1.0000000008426,0.524820923145615
5400.00000000211,34.6303109510752,1.00000000071283,0.526299235187999
5500.00000000248,34.048139952565,1.00000000053992,0.45831570232686
5600.00000000284,33.4736975647644,1.00000000071806,0.459228543671378
5700.00000000321,32.89431912576,1.00000000091383,0.527136798373971
5800.00000000357,32.3327011847549,1.0000000009407,0.565154909223277
5900.00000000393,31.8010101312945,1.00000000077324,0.545214970168967
6000.0000000043,31.286144144427,1.00000000050918,0.458473510418944
6100.00000000466,30.808163416083,1.00000000026747,0.343923029114977
6200.00000000502,30.4440575354557,1.00000000020662,0.265195422408736
6300.00000000539,30.2482500351401,1.00000000032687,0.273683615599046
6400.00000000575,30.1888148653613,1.00000000049129,0.351509603755968
6500.00000000612,30.1743080416507,1.00000000065893,0.440897801387947
6600.00000000648,30.1165713181609,1.00000000074786,0.498876399930709
6700.00000000684,29.9709663779755,1.00000000076527,0.510673659270157
6800.00000000721,29.7371839075561,1.00000000079753,0.521433691597699
6900.00000000757,29.4446018748584,1.00000000073336,0.540997499707765
7000.00000000793,29.1377846088029,1.00000000057554,0.51775167992317
7100.0000000083,28.8578843802941,1.00000000043889,0.467512642342613
7200.00000000866,28.6062283485563,1.00000000051716,0.46682272029012
7300.00000000903,28.3459733796595,1.00000000066565,0.494610072189768
7400.00000000939,28.0555744665461,1.00000000068631,0.502596227661396
7500.00000000975,27.7359611806835,1.00000000077386,0.501967634370235
7600.00000001012,27.3927974245099,1.0000000009526,0.525586427752283
7700.00000001048,27.0422446694629,1.00000000093791,0.55914986961325
7800.00000001084,26.7019830241642,1.00000000090738,0.567869988114045
7900.00000001121,26.3718744122048,1.00000000069137,0.535707048420191
8000.00000001157,26.0509235499214,1.00000000043234,0.464885420088986
8100.00000001194,25.7709870061954,1.00000000028967,0.377642355018726
8200.0000000123,25.6011752971388,1.00000000020871,0.308038334146132
8300.00000001266,25.6115086235794,1.0000000002158,0.268751358370061
8400.00000001303,25.8299739161134,1.0000000003253,0.281601817076435
8500.00000001339,26.2216394129048,1.00000000044637,0.3337868528212
8600.00000001376,26.6992005456075,1.00000000061108,0.393547106121146
8700.00000001412,27.1575338219284,1.00000000073878,0.457020109210605
8800.00000001448,27.5291533469524,1.00000000078474,0.499772238522949
8900.00000001485,27.8015465609996,1.00000000073805,0.520145805520732
9000.00000001521,27.9769771189594,1.00000000074613,0.537280137457924
9100.00000001557,28.062241563979,1.00000000070255,0.55822099824111
9200.00000001594,28.0806470834995,1.00000000064385,0.549257874578915
9300.0000000163,28.0607118053118,1.00000000058134,0.523341244629628
9400.00000001667,28.012895694906,1.00000000064052,0.506085523255791
9500.00000001703,27.9253621388831,1.00000000073285,0.515988032715091
9600.00000001739,27.7898683174463,1.00000000076887,0.532917784526938
9700.00000001776,27.6286524874856,1.00000000064234,0.535256133327839
9800.00000001812,27.4753587623597,1.00000000049505,0.511874851003277
9900.00000001848,27.3453060950436,1.00000000053661,0.489436812406991
10000.0000000188,27.2283644216912,1.00000000062163,0.485458294032327
10100.0000000192,27.1143416576957,1.00000000063297,0.492160646260377
10200.0000000196,26.9998846738197,1.00000000062805,0.500749727374794
10300.0000000199,26.8823424450443,1.00000000062921,0.509749789577041
10400.0000000203,26.7582967829002,1.00000000064652,0.52121998483821
10500.0000000207,26.6208892745161,1.00000000067212,0.536389945932952
10600.000000021,26.4700926063839,1.00000000059672,0.545217953756894
10700.0000000214,26.3145479029465,1.00000000055166,0.543458675493253
10800.0000000218,26.1595818654056,1.00000000052494,0.540868167271424
10900.0000000221,26.0017766549817,1.00000000056007,0.539083664170188
11000.0000000225,25.8327321734368,1.00000000062078,0.542300794978632
11100.0000000229,25.6470606604493,1.0000000007052,0.545720074152997
11200.0000000232,25.4449871189421,1.00000000080612,0.54924884955721
11300.0000000236,25.2322640154988,1.00000000083458,0.555359698055993
11400.0000000239,25.0192607237874,1.00000000088964,0.557804601250566
11500.0000000243,24.8179113578702,1.00000000093888,0.567337308594458
11600.0000000247,24.6368747238497,1.0000000009214,0.574843427873248
11700.000000025,24.4736762169745,1.00000000087176,0.574488325580474
11800.0000000254,24.3144579254054,1.00000000080346,0.561088137797957
11900.0000000258,24.1420323187846,1.00000000058161,0.525135655594601
12000.0000000261,23.9520414925555,1.00000000042506,0.473861959299665
12100.0000000265,23.7635350942791,1.00000000033025,0.417416138907545
12200.0000000269,23.6177405921228,1.00000000025365,0.360727125115074
12300.0000000272,23.5712152856377,1.00000000018285,0.313778779984542
12400.0000000276,23.6803363953651,1.00000000021245,0.29119341998642
12500.0000000279,23.9839625568808,1.000000000224,0.283151121150141
12600.0000000283,24.5034060376682,1.00000000027145,0.290073422808968
12700.0000000287,25.2084262559107,1.00000000044501,0.321241474714264
12800.000000029,26.0379392378052,1.00000000052419,0.361696467377141
12900.0000000294,26.9287987343996,1.00000000063261,0.402819875497787
13000.0000000298,27.8061153046813,1.00000000073431,0.442755913976971
13100.0000000301,28.6150426611603,1.00000000078392,0.478358240297135
13200.0000000305,29.3362283403802,1.00000000071198,0.501516267523169
13300.0000000309,29.9653364629434,1.00000000076237,0.517215804720948
13400.0000000312,30.4997212939584,1.00000000071917,0.539352229393788
13500.0000000316,30.9431995866856,1.00000000071973,0.558891744769581
13600.0000000319,31.3025338774862,1.0000000007315,0.564117956304447
13700.0000000323,31.5891401654233,1.0000000006651,0.555902260892349
13800.0000000327,31.8191956131616,1.00000000062561,0.549848266392829
13900.000000033,31.998486310865,1.00000000066101,0.56291084724179
14000.0000000334,32.1250454327909,1.00000000070188,0.5802016949973
14100.0000000338,32.2018354920942,1.00000000068128,0.576862914599651
14200.0000000341,32.2402718654056,1.00000000063227,0.565916720615322
14300.0000000345,32.244794097485,1.00000000073307,0.54925808730879
14400.0000000349,32.2210793901101,1.00000000063475,0.540813993298942
14500.0000000352,32.1840526609763,1.00000000060518,0.531308065729816
14600.0000000356,32.1358302275519,1.0000000006345,0.540482110622592
14700.0000000359,32.0687982840262,1.0000000006499,0.547579090287333
14800.0000000363,31.9853024690797,1.00000000061151,0.549421502568144
14900.0000000367,31.8923582167563,1.00000000062973,0.559556632007372
15000.000000037,31.7877658222963,1.00000000067863,0.560647416685011
15100.0000000374,31.6704775633715,1.00000000062854,0.557295399000504
15200.0000000378,31.5448105957872,1.00000000067173,0.554948189376123
15300.0000000381,31.4152097935896,1.00000000062336,0.55220263322243
15400.0000000385,31.2874692506917,1.00000000052865,0.540378766398856
15500.0000000389,31.1668377179949,1.00000000049928,0.534886816797385
15600.0000000392,31.0509362750837,1.00000000058302,0.534761334184865
15700.0000000396,30.9308479654513,1.00000000067998,0.535648412988329
15800.0000000399,30.8033221046692,1.00000000067572,0.542650820123644
15900.0000000403,30.6699755447088,1.00000000070048,0.546401950321036
16000.0000000407,30.5273421539841,1.00000000076033,0.557635863343879
16100.000000041,30.3768903974265,1.00000000071534,0.564646814947406
16200.0000000414,30.2243461625263,1.00000000064666,0.558625128109783
16300.0000000418,30.077462051298,1.00000000057468,0.551727136504336
16400.0000000418,29.9422622842208,1.00000000057551,0.541633945449253
16500.0000000404,29.8249187594706,1.00000000055065,0.528524370322725
16600.0000000389,29.7281198227099,1.00000000051014,0.515778268783431
16700.0000000375,29.6515793733324,1.00000000053382,0.501688278747301
16800.000000036,29.5860212891268,1.00000000062868,0.493144285890763
16900.0000000346,29.522470064326,1.00000000065864,0.499191913563308
17000.0000000331,29.4617123675335,1.00000000058389,0.505585475873307
17100.0000000317,29.4083830537617,1.00000000057504,0.508114810704397
17200.0000000302,29.3621549017433,1.00000000060853,0.524100511803595
17300.0000000287,29.3173523056907,1.00000000061711,0.54398982513603
17400.0000000273,29.2708274395195,1.0000000006472,0.554919297434857
17500.0000000258,29.2152766131884,1.00000000067767,0.558504869862057
17600.0000000244,29.1481381383758,1.00000000072709,0.547676499668355
17700.0000000229,29.0748332964906,1.00000000061434,0.541031783629434
17800.0000000215,29.0019722171952,1.0000000005952,0.54474365646891
17900.00000002,28.9292815266313,1.00000000064925,0.554540188224792
18000.0000000186,28.8508896463471,1.00000000061835,0.562954005752902
18100.0000000171,28.7690139071187,1.00000000063417,0.577280658200067
18200.0000000156,28.6875378046007,1.000000000592,0.578978153133599
18300.0000000142,28.6021001010584,1.00000000066587,0.584948296038355
18400.0000000127,28.508707850741,1.0000000006751,0.585175335181016
18500.0000000113,28.4082757238189,1.00000000068902,0.584714691736222
18600.0000000098,28.3015980331691,1.00000000068458,0.586773985532683
18700.0000000084,28.1899992115939,1.00000000065859,0.591792334321985
18800.0000000069,28.0789844025721,1.00000000056017,0.588258498182217
18900.0000000055,27.9726046584961,1.00000000055749,0.576077736256371
19000.000000004,27.8691727615714,1.00000000063077,0.57216821990721
19100.0000000026,27.7625481757969,1.00000000070007,0.568820415729687
19200.0000000011,27.6532189600268,1.00000000065683,0.558436732421173
19299.9999999996,27.5463971331168,1.00000000056797,0.556017948415272
19399.9999999982,27.4436786544747,1.00000000059522,0.565537697151505
19499.9999999967,27.3422044645045,1.00000000063905,0.567985740360197
19599.9999999953,27.2402726051291,1.00000000059858,0.571027403109922
19699.9999999938,27.1399566558029,1.00000000060097,0.573192058013564
19799.9999999924,27.0411787881167,1.00000000059557,0.577376246356361
19899.9999999909,26.9417386848916,1.00000000067466,0.565213302681869
19999.9999999895,26.8380176092486,1.00000000068008,0.573393107313313
20099.999999988,26.7284301393975,1.00000000068527,0.577145426087435
20199.9999999865,26.6154245373064,1.00000000065872,0.566080346716078
20299.9999999851,26.500906440483,1.00000000063521,0.560824990017495
20399.9999999836,26.384733202476,1.00000000067019,0.572925762305619
20499.9999999822,26.2655458096961,1.00000000073725,0.593996801188182
20599.9999999807,26.1445330793018,1.00000000068576,0.601162890412061
20699.9999999793,26.0233133738945,1.00000000062239,0.595128636369668
20799.9999999778,25.9035528054835,1.00000000055301,0.583669148646657
20899.9999999764,25.785799236945,1.00000000060707,0.584127754670162
20999.9999999749,25.6668963974839,1.00000000069905,0.591977690037097
21099.9999999734,25.5468776697594,1.00000000071279,0.603249007450933
21199.999999972,25.4273339371905,1.00000000063632,0.601327598622203
21299.9999999705,25.3088225013953,1.00000000051109,0.57644206655346
21399.9999999691,25.1914917442873,1.00000000053161,0.577755207997782
21499.9999999676,25.0750778632979,1.00000000060608,0.587970289074006
21599.9999999662,24.9595920056943,1.0000000005503,0.591395203890536
21699.9999999647,24.845404303911,1.00000000054309,0.585827863299314
21799.9999999633,24.7326023558244,1.00000000059872,0.583529318408872
21899.9999999618,24.6220591994378,1.00000000063158,0.592781031967007
21999.9999999603,24.5146079021241,1.00000000064166,0.59544814553791
22099.9999999589,24.4126108882225,1.00000000066519,0.586339576359612
22199.9999999574,24.3184497534726,1.00000000073812,0.591894622714182
22299.999999956,24.2352683271756,1.00000000075581,0.602051876525145
22399.9999999545,24.1693060519342,1.00000000077276,0.603067449963556
22499.9999999531,24.1230661072566,1.00000000081756,0.600821618577979
22599.9999999516,24.1063054130034,1.00000000084221,0.608477498454696
22699.9999999502,24.1186240327876,1.00000000089622,0.612528424829919
22799.9999999487,24.1745490106867,1.00000000090649,0.616868506863536
22899.9999999473,24.2704714816504,1.00000000094701,0.621853904181454
22999.9999999458,24.416272164937,1.00000000087386,0.621014356864222
23099.9999999443,24.6055447637143,1.00000000096406,0.615659656516841
23199.9999999429,24.8419160068248,1.00000000094098,0.609790503642197
23299.9999999414,25.1206938231818,1.00000000095425,0.601317427469113
23399.99999994,25.4241222382747,1.00000000084822,0.59198523190526
23499.9999999385,25.7409282904937,1.0000000008384,0.584065851035864
23599.9999999371,26.0355023307228,1.00000000073288,0.576000415748656
23699.9999999356,26.3006332821342,1.00000000065507,0.558822116764722
23799.9999999342,26.5045913512553,1.00000000056244,0.536996063399502
23899.9999999327,26.6451401939453,1.00000000051392,0.510934976534268
23999.9999999312,26.7142442819259,1.00000000046458,0.483646573708971
24099.9999999298,26.7146724719556,1.00000000036313,0.452225253723601
24199.9999999283,26.6655202806582,1.00000000030169,0.421059489195421
24299.9999999269,26.5765900357836,1.0000000002834,0.393729398753085
24399.9999999254,26.4851760258034,1.00000000024599,0.365076118836968
24499.999999924,26.4107081665912,1.00000000022756,0.340746993712529
24599.9999999225,26.3932484323178,1.00000000021944,0.319683258424051
24699.9999999211,26.4637362234719,1.00000000018308,0.301279940965597
24799.9999999196,26.6549394691229,1.00000000019454,0.290681747533703
24899.9999999181,26.9946580651347,1.00000000019604,0.283278701130532
24999.9999999167,27.5102964936045,1.00000000022407,0.284751599567664
25099.9999999152,28.1995398334578,1.00000000025924,0.292243948515521
25199.9999999138,29.0927746361474,1.00000000029908,0.302157881649064
25299.9999999123,30.1436491399445,1.00000000036541,0.312247356434237
25399.9999999109,31.3816426306427,1.00000000043025,0.330420983788186
25499.9999999094,32.7259825001507,1.00000000048012,0.349743221538714
25599.999999908,34.1996683316011,1.0000000005921,0.368298649901703
25699.9999999065,35.7084992968184,1.00000000062822,0.388343815351894
25799.9999999051,37.2647005798794,1.0000000006499,0.402290909310927
25899.9999999036,38.8093544949794,1.0000000007748,0.420509748276243
25999.9999999021,40.3201901766435,1.00000000073535,0.438792560973927
26099.9999999007,41.7977593228357,1.00000000077211,0.455898846642499
26199.9999998992,43.1987525084687,1.00000000077822,0.465261401798025
26299.9999998978,44.5407043550532,1.0000000007785,0.476049881052557
26399.9999998963,45.7857057033062,1.00000000078478,0.496280289890544
26499.9999998949,46.9661775285416,1.00000000070565,0.509406104879378
26599.9999998934,48.0580137294867,1.00000000077091,0.51520920066283
26699.999999892,49.0719247310429,1.00000000070496,0.518656186959499
26799.9999998905,50.0076724661582,1.00000000075725,0.532349477881981
26899.999999889,50.8598880920814,1.00000000071801,0.545497882376488
26999.9999998876,51.6540377787191,1.00000000071592,0.554440371747672
27099.9999998861,52.3756791357223,1.00000000068988,0.557249173939112
27199.9999998847,53.0466495248752,1.00000000071574,0.561482954471717
27299.9999998832,53.6505007707146,1.00000000065444,0.564517231981572
27399.9999998818,54.2012731187045,1.00000000074695,0.574827630452775
27499.9999998803,54.6919090685026,1.00000000070411,0.586362336473668
27599.9999998789,55.1293568726577,1.00000000069106,0.58843546674046
27699.9999998774,55.5287551149897,1.00000000068803,0.58943298181538
27799.9999998759,55.8835298501365,1.00000000064131,0.58010091032664
27899.9999998745,56.2039632454777,1.00000000072998,0.586642675501591
27999.999999873,56.4673027663986,1.00000000075859,0.597831768888254
28099.9999998716,56.687377883574,1.00000000073953,0.608678801902728
28199.9999998701,56.8636000959349,1.0000000006922,0.612020446059317
28299.9999998687,57.0170864005136,1.00000000061576,0.599718415989606
28399.9999998672,57.1505708518414,1.00000000061174,0.586159213661388
28499.9999998658,57.2610976152185,1.00000000066809,0.583341289445491
28599.9999998643,57.3395433145236,1.00000000077557,0.596346983067337
28699.9999998629,57.3764043480776,1.00000000077457,0.597357829135617
28799.9999998614,57.3894317120417,1.00000000068454,0.597701415076767
28899.9999998599,57.3868978958943,1.00000000062138,0.592576129522116
28999.9999998585,57.379448443681,1.00000000062078,0.590136250954994
