Time,AGPnorm,Energy,Entropy
0,0,1,-7.44110213600447e-17
99.9999999999986,0.00156679855737383,0.999999999997399,0.00497939432975214
199.999999999993,0.0108614828615416,0.999999999995155,0.0142420124258367
300,0.02150968318431,0.99999999999737,0.0261673319561903
400.000000000022,0.0319514764545884,1.00000000000012,0.0415502590608365
500.000000000045,0.0445209745642411,0.99999999999832,0.0603427973548393
600.000000000068,0.061845142357618,0.999999999995647,0.0819053206762664
700.000000000091,0.0777889560173614,0.999999999996296,0.106358195067173
800.000000000113,0.0942569597187337,1.00000000000005,0.135517569940647
900.000000000136,0.109937237454541,1.00000000000413,0.171754992776288
1000.00000000016,0.126754324948193,1.00000000004039,0.217377719651401
1100.0000000001,0.146455199500119,1.00000000018959,0.271611002878111
1200,0.189757733489135,1.00000000050381,0.326671823730647
1299.99999999991,0.27015465913387,1.00000000082956,0.377507606475453
1399.99999999982,0.466334386308355,1.00000000116042,0.421206850492456
1499.99999999973,0.914261339512604,1.00000000157155,0.457222892717293
1599.99999999964,1.68418924725697,1.00000000182718,0.486997960498363
1699.99999999955,2.80193453460134,1.00000000196653,0.512863427326006
1799.99999999946,4.34731092940957,1.00000000197642,0.533617066494672
1899.99999999937,6.36162591939349,1.00000000218842,0.548909326225655
1999.99999999928,8.77018451445163,1.00000000224718,0.561044715345232
2099.99999999919,11.4822268512738,1.0000000023462,0.571408814889642
2199.99999999909,14.4765027393415,1.00000000224042,0.578664231577422
2299.999999999,17.7046397665022,1.00000000215201,0.583130219292698
2399.99999999891,21.0467245947111,1.00000000213891,0.585571265943944
2499.99999999882,24.3909963168667,1.00000000190983,0.588823577075301
2599.99999999873,27.6933875029397,1.000000001952,0.589152909242099
2699.99999999864,30.9229637705163,1.0000000020159,0.588034316742151
2799.99999999855,34.0099674070559,1.00000000173907,0.587213552388199
2899.99999999846,36.8849468108081,1.00000000183307,0.585916386181837
2999.99999999837,39.5174131686756,1.00000000166693,0.583938484841925
3099.99999999828,41.9096906064176,1.0000000015592,0.580591936049934
3199.99999999819,44.0495513976932,1.00000000162893,0.578378949859123
3299.99999999809,45.9117544272419,1.00000000148427,0.577047050176764
3399.999999998,47.4867175548853,1.00000000145604,0.575083140926396
3499.99999999791,48.7880098890745,1.00000000141365,0.572877665102881
3599.99999999782,49.8313727747326,1.00000000133252,0.574564889682113
3699.99999999773,50.6266113090959,1.00000000128281,0.564721832935429
3799.99999999764,51.189460751742,1.00000000131643,0.573122213161461
3899.99999999755,51.517953519897,1.00000000117755,0.564550330210436
3999.99999999746,51.6657221770026,1.00000000122646,0.571142006190347
4099.99999999738,51.6349948735557,1.00000000107216,0.553368489676045
4199.99999999775,51.4657426123148,1.0000000013307,0.576093008856298
4299.99999999811,51.1779577825373,1.00000000100861,0.542730751001933
4399.99999999848,50.7637668362265,1.00000000137355,0.575665979841828
4499.99999999884,50.3084344921815,1.00000000126095,0.553753589268957
4599.9999999992,49.7479562976071,1.00000000101296,0.527049153044003
4699.99999999957,49.1612944903742,1.00000000154508,0.579224531525833
4799.99999999993,48.5533719246704,1.00000000094302,0.520120577407866
4900.00000000029,47.8699582099613,1.00000000118747,0.533858940165186
5000.00000000066,47.2025736348711,1.00000000158068,0.575161016418717
5100.00000000102,46.5379923934335,1.00000000100573,0.508258813651338
5200.00000000139,45.8251022157892,1.00000000108656,0.505736258593687
5300.00000000175,45.123387930085,1.0000000016942,0.576878064625978
5400.00000000211,44.4503313374578,1.00000000116959,0.517581637226365
5500.00000000248,43.759220331334,1.00000000095684,0.482283973258488
5600.00000000284,43.0585853050016,1.00000000139932,0.524520189984102
5700.00000000321,42.3868837415941,1.00000000161906,0.557701429562436
5800.00000000357,41.7358627673185,1.00000000112005,0.496782035554809
5900.00000000393,41.0819718155286,1.00000000100398,0.487666753414666
6000.0000000043,40.4304547392841,1.00000000122514,0.507599474591532
6100.00000000466,39.799098148655,1.00000000164411,0.543834861562974
6200.00000000502,39.190170831419,1.0000000013913,0.516070601413057
6300.00000000539,38.5940512499322,1.00000000106523,0.491658193417574
6400.00000000575,38.0079486633734,1.00000000119825,0.508496325207685
6500.00000000612,37.434279310412,1.00000000123989,0.506091403983556
6600.00000000648,36.8765805430257,1.00000000144332,0.528652527777916
6700.00000000684,36.335174097304,1.00000000138015,0.522578699985102
6800.00000000721,35.8113745031893,1.00000000104453,0.492494891287828
6900.00000000757,35.3048580473757,1.00000000121079,0.515956909702143
7000.00000000793,34.8129089505813,1.00000000126964,0.525629479262461
7100.0000000083,34.3378061808286,1.00000000112724,0.499689461439556
7200.00000000866,33.8775608693551,1.00000000141661,0.525588959852649
7300.00000000903,33.4277554743719,1.00000000147344,0.523979552087257
7400.00000000939,32.9949558389441,1.00000000114934,0.501892495056844
7500.00000000975,32.5828491892113,1.00000000115175,0.50945077605448
7600.00000001012,32.1824527348223,1.00000000136864,0.527924014561823
7700.00000001048,31.7940325690557,1.00000000122202,0.520456146361731
7800.00000001084,31.4267042261156,1.00000000109511,0.485101460704222
7900.00000001121,31.0741504058188,1.00000000143429,0.517654038891731
8000.00000001157,30.7250991479147,1.00000000141954,0.526745644275858
8100.00000001194,30.385187410113,1.00000000120441,0.515419907434109
8200.0000000123,30.0649103758577,1.00000000113147,0.506134511579252
8300.00000001266,29.7610189644632,1.00000000128524,0.520275272491339
8400.00000001303,29.460550653525,1.00000000148507,0.525111441096411
8500.00000001339,29.1670576854704,1.00000000124771,0.524183504740819
8600.00000001376,28.8932406316479,1.00000000114546,0.501533368164266
8700.00000001412,28.6356587711179,1.00000000125852,0.505973284918632
8800.00000001448,28.3853443417179,1.0000000014403,0.534250344786696
8900.00000001485,28.1357801452042,1.00000000146431,0.534398211510292
9000.00000001521,27.8928668684816,1.00000000125375,0.518733900603517
9100.00000001557,27.6668885439477,1.00000000122891,0.520773975507671
9200.00000001594,27.4518293815759,1.00000000120898,0.532544768154329
9300.0000000163,27.2453518826751,1.00000000135879,0.530461800212314
9400.00000001667,27.0437039422421,1.00000000131036,0.520485005508253
9500.00000001703,26.8470402756308,1.00000000136233,0.526044571074057
9600.00000001739,26.6568660675218,1.00000000127767,0.538067233891648
9700.00000001776,26.4771171574015,1.00000000119762,0.526291679339311
9800.00000001812,26.3081466240601,1.00000000125367,0.527886231637967
9900.00000001848,26.1460971086574,1.0000000013695,0.54089782835619
10000.0000000188,25.9863309914663,1.00000000140896,0.537312619955801
10100.0000000192,25.8302706810823,1.00000000128255,0.537265404699685
10200.0000000196,25.6860906628402,1.0000000011607,0.531044392594298
10300.0000000199,25.5537277683585,1.00000000128309,0.530790201156561
10400.0000000203,25.4204832180665,1.00000000148998,0.546800505178025
10500.0000000207,25.2901409405769,1.00000000124123,0.530927243563247
10600.000000021,25.1754653278435,1.00000000115532,0.521913824379289
10700.0000000214,25.0693181014921,1.00000000131412,0.527709626021603
10800.0000000218,24.9611213534638,1.00000000140164,0.537074492537801
10900.0000000221,24.8454078410912,1.00000000142064,0.557338851971347
11000.0000000225,24.7275934723919,1.00000000132179,0.55995445247622
11100.0000000229,24.6156299964692,1.00000000123694,0.547026803601777
11200.0000000232,24.5111456230958,1.00000000131103,0.547395645679285
11300.0000000236,24.4136851596372,1.00000000147915,0.54955649761672
11400.0000000239,24.3204377294576,1.00000000136822,0.545822253177205
11500.0000000243,24.2292487823691,1.00000000139294,0.542792502944138
11600.0000000247,24.1446312819577,1.00000000129643,0.547210103306312
11700.000000025,24.0696412478711,1.00000000122174,0.548274177092954
11800.0000000254,23.9999395276688,1.00000000125253,0.545913838824844
11900.0000000258,23.9312038161061,1.00000000136943,0.549234938066272
12000.0000000261,23.8611116043361,1.00000000139392,0.549593689246726
12100.0000000265,23.7966534568075,1.00000000120636,0.537690307564208
12200.0000000269,23.7436914413414,1.00000000123279,0.531509282845172
12300.0000000272,23.6980120116601,1.00000000135763,0.54766026835879
12400.0000000276,23.652405865591,1.0000000012886,0.558662584125703
12500.0000000279,23.6042412328753,1.00000000133195,0.550612157384035
12600.0000000283,23.5501183571899,1.00000000140555,0.56379593562941
12700.0000000287,23.4882717601665,1.00000000146399,0.568535418079989
12800.000000029,23.4188985280092,1.00000000142963,0.581137171367819
12900.0000000294,23.3454917698361,1.00000000134147,0.584127143850565
13000.0000000298,23.2750446709145,1.00000000123925,0.574693531538408
13100.0000000301,23.2133762818843,1.00000000120493,0.559941060321707
13200.0000000305,23.1598588921618,1.00000000143539,0.558343919205647
13300.0000000309,23.1128915095404,1.00000000134278,0.549403985807329
13400.0000000312,23.0687218237389,1.00000000133828,0.548471560849498
13500.0000000316,23.0283797522264,1.0000000013119,0.560208573958951
13600.0000000319,22.9943902146072,1.00000000133675,0.565649570678649
13700.0000000323,22.9663247334455,1.00000000135849,0.564610288052493
13800.0000000327,22.9391644480721,1.00000000147168,0.565141401036672
13900.000000033,22.9098625998276,1.00000000136196,0.563513012827136
14000.0000000334,22.8859747863369,1.0000000013435,0.557858504990522
14100.0000000338,22.8682169643368,1.00000000123739,0.547408681912923
14200.0000000341,22.8528597778566,1.0000000013132,0.546270006839828
14300.0000000345,22.8402205241457,1.00000000128948,0.555838934917549
14400.0000000349,22.8316352802291,1.00000000138941,0.568605324449527
14500.0000000352,22.8253376637827,1.00000000126936,0.576806193294046
14600.0000000356,22.8161700038369,1.00000000152259,0.58739866396403
14700.0000000359,22.8018729290587,1.00000000146224,0.59393504297578
14800.0000000363,22.7837605476671,1.00000000135453,0.598556351800664
14900.0000000367,22.7648904635766,1.00000000129721,0.592101218049532
15000.000000037,22.7440190489544,1.0000000013822,0.5941889613088
15100.0000000374,22.7188584615406,1.00000000147405,0.594636859251564
15200.0000000378,22.6834297184151,1.0000000015481,0.597646872043884
15300.0000000381,22.6392185180737,1.00000000150083,0.597626144048318
15400.0000000385,22.5873404683413,1.00000000145063,0.602387168915261
15500.0000000389,22.5332814110447,1.00000000137207,0.607000511226345
15600.0000000392,22.4828587298471,1.00000000134691,0.600136365207407
15700.0000000396,22.4398775920425,1.00000000128309,0.588679683306277
15800.0000000399,22.4059126883633,1.00000000133385,0.586124428005135
15900.0000000403,22.3778313865383,1.00000000135451,0.582496101854176
16000.0000000407,22.3553353553307,1.00000000138318,0.579076447438319
16100.000000041,22.3385438926286,1.00000000135526,0.57654897236717
16200.0000000414,22.3244556288915,1.0000000014008,0.576839782395386
16300.0000000418,22.3159868764143,1.00000000132271,0.587826550530731
16400.0000000418,22.3131698850699,1.00000000132664,0.589125325197771
16500.0000000404,22.3122277282701,1.0000000014387,0.58545112153801
16600.0000000389,22.3112292079509,1.00000000140533,0.581180552611484
16700.0000000375,22.3114981082351,1.00000000134971,0.575894804269827
16800.000000036,22.3133912150371,1.00000000136975,0.56580199155647
16900.0000000346,22.3191853661835,1.00000000135996,0.568671694688384
17000.0000000331,22.3296201098131,1.00000000127055,0.573726815302173
17100.0000000317,22.3446365190042,1.00000000136448,0.579257181018543
17200.0000000302,22.3607878423632,1.0000000013866,0.58107687688811
17300.0000000287,22.3745942726887,1.00000000143805,0.582224158838872
17400.0000000273,22.3893439084598,1.00000000142543,0.573319181588973
17500.0000000258,22.4035832336586,1.00000000144091,0.573164044465296
17600.0000000244,22.4189319897343,1.00000000142994,0.593854837457276
17700.0000000229,22.4335228868671,1.00000000146254,0.60697221059589
17800.0000000215,22.4448637649725,1.00000000147651,0.608762750833169
17900.00000002,22.4525355009869,1.00000000144239,0.61946365378739
18000.0000000186,22.4567242766093,1.00000000137035,0.615427252172497
18100.0000000171,22.4551149417875,1.00000000151378,0.613092587737129
18200.0000000156,22.4492178396099,1.0000000014654,0.614565819681515
18300.0000000142,22.4430280100996,1.00000000138168,0.627585265309292
18400.0000000127,22.434150142677,1.00000000147458,0.633695567428527
18500.0000000113,22.4206898404165,1.0000000014058,0.636679599804449
18600.0000000098,22.4042401716745,1.00000000143009,0.633118741187506
18700.0000000084,22.3847085719885,1.00000000142767,0.628513612639205
18800.0000000069,22.3613589823751,1.00000000152785,0.629212822683064
18900.0000000055,22.3329211312757,1.00000000151657,0.626785563445471
19000.000000004,22.2980823392809,1.0000000015384,0.623005800234107
19100.0000000026,22.2571595081312,1.00000000157387,0.627561859543845
19200.0000000011,22.2104116827239,1.00000000157549,0.622222840441386
19299.9999999996,22.1622304779299,1.00000000142683,0.625733449048446
19399.9999999982,22.1162177552193,1.00000000142481,0.625052092006823
19499.9999999967,22.0742380917011,1.00000000139267,0.618354344061791
19599.9999999953,22.0387626862624,1.00000000132965,0.617467970603643
19699.9999999938,22.010568462827,1.00000000135192,0.613394592391536
19799.9999999924,21.9879188389778,1.0000000014431,0.608532542628697
19899.9999999909,21.969853656264,1.00000000143972,0.612365926342619
19999.9999999895,21.9574710150148,1.00000000145248,0.606508695558716
20099.999999988,21.9495657240817,1.00000000136516,0.588149723377769
20199.9999999865,21.9467290078767,1.00000000141501,0.583001275118004
20299.9999999851,21.9480761048971,1.00000000145986,0.588520440924666
20399.9999999836,21.9535219869022,1.00000000146366,0.591043949544416
20499.9999999822,21.9636318351187,1.00000000146896,0.59802496067226
20599.9999999807,21.9749663519894,1.00000000150081,0.605964570160064
20699.9999999793,21.9882772413804,1.00000000147557,0.603768168597321
20799.9999999778,22.0033566330298,1.00000000145438,0.598207476892197
20899.9999999764,22.0195213475925,1.00000000146177,0.592448746883628
20999.9999999749,22.0359983088278,1.00000000149583,0.584793176791389
21099.9999999734,22.055838614388,1.00000000140231,0.580807255755397
21199.999999972,22.0818769589308,1.00000000139828,0.580601608643921
21299.9999999705,22.1106978613915,1.00000000146515,0.585413422646375
21399.9999999691,22.1386861925748,1.00000000159394,0.58769019489622
21499.9999999676,22.1662729187082,1.0000000015521,0.589160138405563
21599.9999999662,22.1973672117237,1.00000000145336,0.589917297697598
21699.9999999647,22.2295830739597,1.00000000148315,0.591402991037529
21799.9999999633,22.2600260236597,1.00000000158408,0.594752783331615
21899.9999999618,22.2849647852414,1.00000000161863,0.600540758610414
21999.9999999603,22.3072830356538,1.00000000151166,0.607202160316663
22099.9999999589,22.3290230137869,1.00000000147033,0.616249908551621
22199.9999999574,22.3507550670059,1.00000000148438,0.631389580973866
22299.999999956,22.3696795823821,1.00000000162822,0.63014889554698
22399.9999999545,22.3853047460238,1.0000000015954,0.631387520117451
22499.9999999531,22.3972294296533,1.00000000157932,0.629309613675059
22599.9999999516,22.4085512956265,1.00000000152705,0.632515527454627
22699.9999999502,22.4218010812486,1.00000000149429,0.636196438248194
22799.9999999487,22.436511759622,1.00000000151453,0.637803531210961
22899.9999999473,22.4522280988302,1.0000000015328,0.63882829002263
22999.9999999458,22.4661100647161,1.00000000157623,0.636808002799657
23099.9999999443,22.4751498173059,1.00000000167065,0.635000312711541
23199.9999999429,22.4808560868443,1.00000000150131,0.638568525620066
23299.9999999414,22.4850387009683,1.00000000157821,0.642786945376452
23399.99999994,22.4866522884428,1.00000000152269,0.639026419274011
23499.9999999385,22.4849196154142,1.00000000163886,0.641704158547576
23599.9999999371,22.4814793090012,1.00000000152494,0.645342030021366
23699.9999999356,22.4782591584717,1.00000000150518,0.646161193691804
23799.9999999342,22.4758000707297,1.00000000152648,0.6363986310686
23899.9999999327,22.4733922551259,1.00000000150215,0.63894126352106
23999.9999999312,22.4696693066577,1.00000000161521,0.640343474443685
24099.9999999298,22.4623138155708,1.00000000160118,0.640190415680291
24199.9999999283,22.4503399387179,1.00000000162229,0.636670865915324
24299.9999999269,22.4361101072283,1.00000000151273,0.63908342729199
24399.9999999254,22.4220498986633,1.00000000154715,0.646504232579342
24499.999999924,22.4037708479231,1.0000000015582,0.642680945225035
24599.9999999225,22.3845994163186,1.00000000148099,0.642641585012036
24699.9999999211,22.364602286322,1.0000000015836,0.651190304662794
24799.9999999196,22.3424519908794,1.00000000159851,0.650749125777647
24899.9999999181,22.3191624133777,1.00000000147354,0.637981959877214
24999.9999999167,22.2942783004659,1.00000000160168,0.641895122431627
25099.9999999152,22.266744075694,1.00000000169485,0.642221293308565
25199.9999999138,22.2362318453511,1.00000000162989,0.641428035379587
25299.9999999123,22.2030685955957,1.00000000159488,0.643728916030878
25399.9999999109,22.1678988245697,1.00000000169901,0.653533899252232
25499.9999999094,22.1304434855498,1.00000000169447,0.64632918012971
25599.999999908,22.0912550217307,1.00000000157299,0.648232563781725
25699.9999999065,22.0505871816046,1.00000000163054,0.644797481524237
25799.9999999051,22.0096085884136,1.00000000158982,0.647692663424378
25899.9999999036,21.9692256445012,1.0000000015635,0.644659921046936
25999.9999999021,21.9318876702815,1.00000000143747,0.631221474682758
26099.9999999007,21.8981470771846,1.00000000155713,0.625758669130487
26199.9999998992,21.8703093056976,1.00000000158064,0.620433797472484
26299.9999998978,21.8479305734023,1.00000000149234,0.613322404338033
26399.9999998963,21.8303805079166,1.00000000162255,0.614077916167303
26499.9999998949,21.8160089022308,1.00000000165361,0.616997392199737
26599.9999998934,21.80541958542,1.00000000162156,0.624880477228957
26699.999999892,21.8006323052625,1.00000000158386,0.62019520329044
26799.9999998905,21.8004219959692,1.00000000159129,0.619567864010397
26899.999999889,21.8044804854707,1.00000000160867,0.61484297730517
26999.9999998876,21.8143612018555,1.00000000159003,0.610083682016709
27099.9999998861,21.8281347309676,1.00000000164104,0.608689906524052
27199.9999998847,21.8443460492111,1.00000000160352,0.616772561771759
27299.9999998832,21.8650966845113,1.00000000158655,0.609355462113613
27399.9999998818,21.8865379323981,1.00000000180134,0.614861129934404
27499.9999998803,21.9097964663258,1.00000000158893,0.606445757218261
27599.9999998789,21.9364389579671,1.00000000159612,0.607004971460722
27699.9999998774,21.9633927829123,1.00000000161584,0.597255944491719
27799.9999998759,21.9913450326586,1.00000000164195,0.598374798215557
27899.9999998745,22.022305834655,1.00000000151518,0.60247530102707
27999.999999873,22.0541467146179,1.00000000161135,0.606205841251673
28099.9999998716,22.0871265999653,1.0000000016604,0.60163255535678
28199.9999998701,22.1233571036259,1.00000000156318,0.596087575915958
28299.9999998687,22.1639222942535,1.00000000159997,0.598697658331741
28399.9999998672,22.2074594763249,1.00000000168182,0.600650701201911
28499.9999998658,22.2505144354961,1.00000000160704,0.601093217902259
28599.9999998643,22.296871191333,1.00000000164993,0.606336754803177
28699.9999998629,22.344560587752,1.00000000167963,0.609846402369591
28799.9999998614,22.3906604037481,1.0000000016713,0.610918593906782
28899.9999998599,22.4367233266914,1.00000000170933,0.618180101938588
28999.9999998585,22.4809050148883,1.00000000165434,0.60995220391843
