Time,AGPnorm,Energy,Entropy
0,0,1,5.63269160254121e-18
99.9999999999986,0.0145807595707591,0.999999999996052,0.0361244875143971
199.999999999993,0.0365932559671052,1.0000000000007,0.106800733459798
300,0.0667604864698222,1.000000000096,0.230416227776006
400.000000000022,0.131119327639864,1.00000000197266,0.408525729613506
500.000000000045,0.567985156989697,1.00000000410347,0.52814770118691
600.000000000068,1.75514712408366,1.00000000523733,0.583567578197116
700.000000000091,3.64339924740983,1.00000000507939,0.601274654386704
800.000000000113,5.70264373832937,1.00000000493124,0.604071836298282
900.000000000136,7.62545489362566,1.00000000434257,0.594280858193201
1000.00000000016,9.092108390715,1.00000000373564,0.5858389501239
1100.0000000001,10.0601986375297,1.00000000350252,0.572849434277474
1200,10.5373285427076,1.00000000324045,0.57349620258229
1299.99999999991,10.6111104599546,1.0000000030675,0.567606684862517
1399.99999999982,10.4293510893996,1.0000000026636,0.53272071943593
1499.99999999973,10.125244065352,1.00000000222549,0.4924672419683
1599.99999999964,9.75491247802616,1.00000000376751,0.556256815327651
1699.99999999955,9.32615502055488,1.00000000318665,0.509202837217891
1799.99999999946,8.92591801967532,1.00000000250836,0.485942083792868
1899.99999999937,8.51284831448639,1.00000000336578,0.49995762975304
1999.99999999928,8.12775652074257,1.00000000345016,0.523685342891812
2099.99999999919,7.77765413700924,1.00000000286298,0.48041331389045
2199.99999999909,7.43476288113278,1.00000000341574,0.542824972815735
2299.999999999,7.12184202207435,1.00000000319281,0.510595845587153
2399.99999999891,6.86640910000058,1.00000000303944,0.48272291087692
2499.99999999882,6.61197346611198,1.0000000030024,0.51903272291283
2599.99999999873,6.37314689314978,1.00000000368761,0.555980806242459
2699.99999999864,6.15803458736907,1.00000000298473,0.498635955318183
2799.99999999855,6.00877793946485,1.00000000287624,0.492732946108259
2899.99999999846,5.85044955501115,1.00000000338717,0.547400973819135
2999.99999999837,5.70611475390562,1.00000000322884,0.552435121654191
3099.99999999828,5.55647219601374,1.00000000324461,0.567075875341896
3199.99999999819,5.40983725626583,1.00000000363681,0.545868704120871
3299.99999999809,5.32982713005826,1.00000000232633,0.483692156053516
3399.999999998,5.28010302933321,1.00000000355242,0.545530079154589
3499.99999999791,5.21757839393533,1.00000000346643,0.555645074490189
3599.99999999782,5.15905785938166,1.00000000329884,0.570864566210604
3699.99999999773,5.08921661454896,1.00000000389589,0.588012775374312
3799.99999999764,5.00273286943672,1.00000000322296,0.600808528650967
3899.99999999755,4.91617405248433,1.00000000359085,0.582424145501638
3999.99999999746,4.83145644830943,1.00000000363756,0.563444148485104
4099.99999999738,4.80102682542918,1.00000000255024,0.515614899849555
4199.99999999775,4.83074466034092,1.00000000355934,0.542464041648142
4299.99999999811,4.8461357895329,1.00000000351811,0.565652538863344
4399.99999999848,4.85613690617029,1.00000000334848,0.571685731412874
4499.99999999884,4.85235012524178,1.0000000036607,0.604201485093906
4599.9999999992,4.84448196401928,1.00000000356053,0.602794786725374
4699.99999999957,4.83691443565611,1.00000000388164,0.637759877894166
4799.99999999993,4.81308294119853,1.00000000334889,0.618784466943587
4900.00000000029,4.77777194992014,1.00000000412646,0.630681485459191
5000.00000000066,4.72883288099057,1.00000000374543,0.637978356785951
5100.00000000102,4.67691911787834,1.0000000037489,0.643458128151784
5200.00000000139,4.62315011683461,1.00000000410511,0.63312538359262
5300.00000000175,4.57147965149004,1.00000000391585,0.599396993436592
5400.00000000211,4.53905874391127,1.0000000031088,0.561474554312495
5500.00000000248,4.5751279446667,1.00000000296149,0.544744368150056
5600.00000000284,4.65644795175433,1.00000000363757,0.568480569401349
5700.00000000321,4.72968646544647,1.00000000388804,0.58893124003063
5800.00000000357,4.79150034912291,1.00000000378004,0.59710768815904
5900.00000000393,4.84635342547187,1.0000000039054,0.613914967190972
6000.0000000043,4.88999063977297,1.00000000351289,0.628074011157749
6100.00000000466,4.92419695420922,1.00000000414495,0.65042212597728
6200.00000000502,4.94237513548634,1.00000000412011,0.652011944945647
6300.00000000539,4.95501758915181,1.00000000414407,0.663890396333299
6400.00000000575,4.95814967662958,1.00000000404038,0.656799759734263
6500.00000000612,4.96711949241895,1.00000000337935,0.650904088472306
6600.00000000648,4.97852723398727,1.00000000378989,0.674920789968315
6700.00000000684,4.98180621376278,1.00000000405313,0.641632951694649
6800.00000000721,4.97602966464455,1.00000000392654,0.650031820233691
6900.00000000757,4.97432998707906,1.0000000038522,0.66307232814048
7000.00000000793,4.96884336227572,1.00000000433058,0.675706656435741
7100.0000000083,4.95375513883929,1.00000000412232,0.681497983546535
7200.00000000866,4.93781498391523,1.00000000396844,0.652898869888366
7300.00000000903,4.9198799338281,1.00000000413173,0.665551308498519
7400.00000000939,4.89339003407851,1.00000000425464,0.678667129963518
7500.00000000975,4.85615252265182,1.00000000463255,0.673740041555157
7600.00000001012,4.81574799650433,1.00000000400056,0.678430376791374
7700.00000001048,4.77526790087388,1.00000000431806,0.680094758336991
7800.00000001084,4.73842755148448,1.00000000454071,0.67200272946197
7900.00000001121,4.70475265733921,1.0000000049152,0.676742427411203
8000.00000001157,4.67337341443933,1.0000000042111,0.624596001186937
8100.00000001194,4.65675176822466,1.00000000372873,0.586088212772989
8200.0000000123,4.69054789678351,1.00000000346436,0.571587370223158
8300.00000001266,4.78467706865373,1.00000000391113,0.577728480373113
8400.00000001303,4.91120016678333,1.00000000404497,0.587620962636386
8500.00000001339,5.04274395394386,1.00000000425438,0.590855427062075
8600.00000001376,5.1688166977556,1.00000000486087,0.602336537906422
8700.00000001412,5.29134357067251,1.00000000468947,0.602910944835261
8800.00000001448,5.40246569508941,1.00000000386362,0.607687327727582
8900.00000001485,5.50471485322226,1.00000000459991,0.626951951304018
9000.00000001521,5.59623320969468,1.00000000408872,0.6395129822761
9100.00000001557,5.67860849230878,1.00000000455688,0.664931264651218
9200.00000001594,5.75658316528197,1.0000000044093,0.668648680540526
9300.0000000163,5.82572333181332,1.00000000451514,0.655027388106019
9400.00000001667,5.88172086014593,1.00000000453053,0.676522427347484
9500.00000001703,5.92644233030911,1.00000000451447,0.692795576223435
9600.00000001739,5.96951993600352,1.00000000431233,0.681440202392151
9700.00000001776,6.01396795974395,1.00000000441461,0.684038282519225
9800.00000001812,6.0613792159846,1.00000000458568,0.702731358000786
9900.00000001848,6.09121918071993,1.00000000457851,0.705490210859202
10000.0000000188,6.12631842475087,1.00000000454913,0.705246830211596
10100.0000000192,6.15621368090537,1.00000000459236,0.697471987510581
10200.0000000196,6.18613901194939,1.00000000437202,0.695651213018475
10300.0000000199,6.20370687358527,1.00000000491605,0.69945809167171
10400.0000000203,6.21793383245281,1.00000000459023,0.704197496215645
10500.0000000207,6.23337810094363,1.00000000429533,0.681316797359984
10600.000000021,6.24572075637875,1.00000000496825,0.685023157001873
10700.0000000214,6.26586235123137,1.00000000472441,0.672153369972748
10800.0000000218,6.29322315134558,1.00000000461302,0.699762754908542
10900.0000000221,6.33140557736277,1.00000000477601,0.693340036575325
11000.0000000225,6.37191192027694,1.00000000466481,0.688086591063109
11100.0000000229,6.41464098235974,1.0000000053847,0.685096514853587
11200.0000000232,6.46080599527149,1.00000000439166,0.669131305408471
11300.0000000236,6.50335735530495,1.0000000054377,0.667945234304976
11400.0000000239,6.54006322054273,1.00000000455597,0.668959585670545
11500.0000000243,6.59233176925001,1.00000000497779,0.705100881456305
11600.0000000247,6.62858352018191,1.00000000537975,0.689943024740775
11700.000000025,6.66386198399305,1.00000000471266,0.714743681165525
11800.0000000254,6.69966865355766,1.00000000470024,0.70688064135433
11900.0000000258,6.73236008433933,1.0000000044804,0.693560688399042
12000.0000000261,6.75936711934614,1.00000000505737,0.672148090294269
12100.0000000265,6.79903974173271,1.00000000472582,0.669546281634311
12200.0000000269,6.83891473812417,1.00000000494882,0.700934306327352
12300.0000000272,6.88000651733286,1.00000000485775,0.686689451767798
12400.0000000276,6.91854404218646,1.00000000521075,0.677531832078675
12500.0000000279,6.9558226244814,1.00000000519149,0.694365226227846
12600.0000000283,6.98898690016909,1.00000000458003,0.699106579666383
12700.0000000287,7.02032794664606,1.00000000502198,0.69974161570383
12800.000000029,7.05539755659394,1.00000000459824,0.692548154205355
12900.0000000294,7.09901840773039,1.00000000522766,0.706340480651265
13000.0000000298,7.14051467746255,1.00000000475725,0.701627049632419
13100.0000000301,7.1742098551664,1.0000000052388,0.703974518993069
13200.0000000305,7.19903452941653,1.00000000531827,0.713512039905307
13300.0000000309,7.22861066010744,1.00000000464673,0.702472612625641
13400.0000000312,7.26285996631995,1.00000000478814,0.712893818647871
13500.0000000316,7.29101390354429,1.00000000533279,0.720167899240698
13600.0000000319,7.32149002373827,1.00000000532939,0.68202330787782
13700.0000000323,7.35271511842806,1.00000000522583,0.704843917749954
13800.0000000327,7.37496593563939,1.00000000536174,0.70986979779775
13900.000000033,7.38684912911086,1.00000000551432,0.712255154942364
14000.0000000334,7.40664373135896,1.00000000533934,0.716857626365787
14100.0000000338,7.42789739967131,1.00000000545951,0.720867386718853
14200.0000000341,7.4486076302668,1.00000000558968,0.721929614381662
14300.0000000345,7.4687041857586,1.00000000525073,0.712712228027245
14400.0000000349,7.48683604955933,1.00000000553372,0.704146238237347
14500.0000000352,7.49499285395148,1.00000000568605,0.703898054258748
14600.0000000356,7.50305334432868,1.0000000048175,0.673624035139392
14700.0000000359,7.50729217282373,1.00000000579367,0.721864698555054
14800.0000000363,7.50027517138216,1.00000000573898,0.70770203395176
14900.0000000367,7.49340103418856,1.00000000601348,0.702767296233803
15000.000000037,7.48114183113318,1.00000000541895,0.702830273961103
15100.0000000374,7.46173432446915,1.00000000605957,0.71679918349834
15200.0000000378,7.44153959592265,1.00000000571142,0.726881648140474
15300.0000000381,7.41869132698288,1.00000000579312,0.721630228771766
15400.0000000385,7.39871778580448,1.00000000610456,0.738263505623853
15500.0000000389,7.38087758752744,1.00000000584431,0.721948872854885
15600.0000000392,7.36749407734557,1.00000000609079,0.727650468647339
15700.0000000396,7.3603322698361,1.00000000580353,0.73009438815278
15800.0000000399,7.35469797719862,1.00000000587307,0.716974479248795
15900.0000000403,7.35625040717617,1.00000000591956,0.708901052352365
16000.0000000407,7.36037235276554,1.00000000553913,0.701499068783791
16100.000000041,7.3879891725484,1.00000000538251,0.683893645648783
16200.0000000414,7.4368977927819,1.00000000544923,0.669278693522123
16300.0000000418,7.52503828278709,1.00000000531025,0.654357311964137
16400.0000000418,7.65616299613979,1.00000000517734,0.637292697251218
16500.0000000404,7.85116867113327,1.00000000519862,0.646251997996508
16600.0000000389,8.0922015680898,1.00000000538986,0.642103252419285
16700.0000000375,8.38991929110055,1.00000000581427,0.647683718690051
16800.000000036,8.69858987667225,1.00000000603375,0.650494966937246
16900.0000000346,9.03737541056202,1.00000000579491,0.645167864770384
17000.0000000331,9.35970683630883,1.00000000572689,0.654391820563329
17100.0000000317,9.69598144828664,1.00000000618979,0.659251449206609
17200.0000000302,10.0235979462132,1.0000000062338,0.664478125696891
17300.0000000287,10.3602269908012,1.00000000605829,0.659127989102133
17400.0000000273,10.6981417639277,1.00000000554693,0.664556047767281
17500.0000000258,11.0367290369235,1.000000006327,0.658044706870649
17600.0000000244,11.3968756868942,1.00000000612461,0.674345852087048
17700.0000000229,11.7585354749799,1.00000000585385,0.682370188926507
17800.0000000215,12.1391978131722,1.00000000585814,0.68077751003207
17900.00000002,12.5306339203571,1.0000000062439,0.698819429461228
18000.0000000186,12.9117729184607,1.00000000664243,0.703009766676947
18100.0000000171,13.3056233534878,1.00000000674377,0.707480921367216
18200.0000000156,13.6807672775654,1.00000000713858,0.701443989050989
18300.0000000142,14.0575089119759,1.0000000065654,0.729046386298955
18400.0000000127,14.4041341539624,1.00000000590883,0.721159295367909
18500.0000000113,14.766598823419,1.00000000622638,0.724024533037895
18600.0000000098,15.110995336309,1.0000000068246,0.720482494252419
18700.0000000084,15.4551052159292,1.00000000628557,0.717777374218772
18800.0000000069,15.7990226280404,1.00000000640072,0.7331900891956
18900.0000000055,16.1200942189558,1.000000006193,0.737168561258322
19000.000000004,16.4460713950651,1.00000000725372,0.739093664579284
19100.0000000026,16.7660331609321,1.00000000692288,0.724035951901012
19200.0000000011,17.0937448828839,1.00000000680287,0.717417832760508
19299.9999999996,17.4094427114582,1.00000000727567,0.725038291400848
19399.9999999982,17.7200488825149,1.00000000691646,0.729803946250216
19499.9999999967,18.0302476826163,1.00000000666647,0.740947165922946
19599.9999999953,18.34278328384,1.00000000687334,0.740797303252491
19699.9999999938,18.6692682288762,1.00000000683039,0.731847799838108
19799.9999999924,19.0059152757471,1.00000000655874,0.735591711088817
19899.9999999909,19.3546149825342,1.00000000705063,0.730058863234031
19999.9999999895,19.6956950009808,1.00000000673516,0.734539155801439
20099.999999988,20.038186205661,1.00000000682078,0.724058221995017
20199.9999999865,20.3874403893183,1.00000000690161,0.733687494259176
20299.9999999851,20.7332945404608,1.00000000678707,0.734007200005393
20399.9999999836,21.09178637455,1.00000000668453,0.731746661993332
20499.9999999822,21.4386174212986,1.00000000652053,0.739276788673526
20599.9999999807,21.7972059361545,1.0000000063381,0.732663060134357
20699.9999999793,22.1704402677903,1.00000000679283,0.733552888533742
20799.9999999778,22.544717329833,1.00000000663425,0.732351378616671
20899.9999999764,22.9133058158003,1.00000000686576,0.742236223418577
20999.9999999749,23.2690252989895,1.00000000724708,0.741607082934308
21099.9999999734,23.625711220796,1.00000000687204,0.729262694225686
21199.999999972,23.9806365464841,1.00000000677543,0.733154455287079
21299.9999999705,24.3506624420001,1.00000000672594,0.721055162860149
21399.9999999691,24.7340443504071,1.00000000699596,0.742212871071994
21499.9999999676,25.1122964062524,1.00000000682528,0.738852272971874
21599.9999999662,25.4929315619801,1.00000000724577,0.73745817203071
21699.9999999647,25.8765740922607,1.00000000751766,0.740906320658592
21799.9999999633,26.2475658127679,1.00000000764745,0.736205304260444
21899.9999999618,26.6160020006827,1.00000000753835,0.741734292262375
21999.9999999603,26.9778374079946,1.00000000800682,0.746041306743926
22099.9999999589,27.3423799482387,1.00000000740252,0.735770715236543
22199.9999999574,27.7265653699838,1.00000000706879,0.730502836069584
22299.999999956,28.1310968211348,1.00000000744515,0.740364868502553
22399.9999999545,28.5350482111436,1.00000000726521,0.744786058356285
22499.9999999531,28.9614776518746,1.00000000678053,0.740076914652872
22599.9999999516,29.3918542108702,1.00000000727515,0.735302728842262
22699.9999999502,29.832457186847,1.00000000764407,0.729059905569196
22799.9999999487,30.2780665127881,1.00000000776015,0.749179475201638
22899.9999999473,30.7009005651017,1.00000000829006,0.746670872116083
22999.9999999458,31.1291478410471,1.00000000703096,0.732278576277263
23099.9999999443,31.5821388195013,1.00000000724531,0.721786593915863
23199.9999999429,32.039109728069,1.00000000819003,0.7446064050465
23299.9999999414,32.490247976927,1.00000000753249,0.72163193243513
23399.99999994,32.9313730244641,1.00000000737103,0.744168709840605
23499.9999999385,33.3574986654409,1.00000000860049,0.751736949219297
23599.9999999371,33.7829473336736,1.00000000766836,0.736092836027438
23699.9999999356,34.2322067359719,1.00000000683883,0.728054774556287
23799.9999999342,34.7100405077316,1.00000000710175,0.722123819351534
23899.9999999327,35.2182378424451,1.0000000074721,0.708242973137724
23999.9999999312,35.7625173797589,1.00000000697044,0.714963708988195
24099.9999999298,36.3135767300614,1.00000000831017,0.726163807379634
24199.9999999283,36.8459611552631,1.00000000790634,0.739142008384663
24299.9999999269,37.3675950168468,1.00000000759208,0.738402458925596
24399.9999999254,37.8901564771169,1.000000007329,0.743167584851111
24499.999999924,38.4143475867446,1.00000000737461,0.745147476063378
24599.9999999225,38.9358618400138,1.00000000770531,0.748727984374865
24699.9999999211,39.4466072106227,1.00000000723925,0.740217530595183
24799.9999999196,39.9623284019513,1.00000000802722,0.733075141880502
24899.9999999181,40.5020443726461,1.00000000765588,0.737481708995919
24999.9999999167,41.0742365092958,1.00000000836191,0.742098947548659
25099.9999999152,41.6397012320632,1.00000000803043,0.758354241854778
25199.9999999138,42.1997908491322,1.00000000798455,0.750228288407982
25299.9999999123,42.7587303811524,1.00000000806726,0.749582018264231
25399.9999999109,43.3223505864549,1.00000000809706,0.741786275392791
25499.9999999094,43.8814087838266,1.00000000797471,0.742282008151614
25599.999999908,44.4305697150175,1.00000000811984,0.749662052214263
25699.9999999065,44.9789247604431,1.00000000732211,0.745486002271821
25799.9999999051,45.5365837473654,1.00000000838083,0.746318970857057
25899.9999999036,46.1223596422211,1.00000000803787,0.731504577922277
25999.9999999021,46.7343476098048,1.00000000787197,0.735093386220207
26099.9999999007,47.3686557463125,1.00000000848782,0.746535685509307
26199.9999998992,48.0145802483188,1.00000000838339,0.756240422369979
26299.9999998978,48.6403842500728,1.00000000897863,0.758089494308629
26399.9999998963,49.2616540875228,1.00000000863539,0.754092608326417
26499.9999998949,49.8800819868576,1.00000000837511,0.751472704083936
26599.9999998934,50.4977524869167,1.00000000869421,0.743808496919889
26699.999999892,51.1130493992236,1.00000000897031,0.743734646311692
26799.9999998905,51.7372212594801,1.00000000929935,0.740810494422524
26899.999999889,52.3658483561747,1.00000000868077,0.74662919394426
26999.9999998876,53.0147012925425,1.00000000823927,0.742261375270253
27099.9999998861,53.6843315533632,1.00000000868133,0.744083640876696
27199.9999998847,54.3759956172198,1.00000000865745,0.745623096034707
27299.9999998832,55.0935820590705,1.00000000966534,0.739244827442045
27399.9999998818,55.8084756400997,1.00000000898958,0.744945046330319
27499.9999998803,56.5366999041845,1.00000000789242,0.74531410616342
27599.9999998789,57.250798507065,1.00000000881477,0.75873562003292
27699.9999998774,57.94506567646,1.00000000919541,0.754603473705775
27799.9999998759,58.6517863697554,1.00000000847851,0.74609219010086
27899.9999998745,59.3621271458623,1.00000000881277,0.754123728386338
27999.999999873,60.0703002853992,1.00000000865351,0.754701836724338
28099.9999998716,60.7591885586404,1.00000000866157,0.754288925073151
28199.9999998701,61.4579650349035,1.00000000889806,0.746995993146532
28299.9999998687,62.1723185588585,1.00000000845209,0.739592263129445
28399.9999998672,62.9038394469629,1.00000000923069,0.750276749606741
28499.9999998658,63.6312025254435,1.00000000867668,0.751989354996922
28599.9999998643,64.3609103510556,1.00000000904687,0.745045677407165
28699.9999998629,65.094688117713,1.00000000851455,0.744622817634453
28799.9999998614,65.8234170919273,1.00000000852512,0.754867068673124
28899.9999998599,66.5639847680752,1.00000000921372,0.75365794544283
28999.9999998585,67.3281365638458,1.00000000857191,0.746777802515639
29099.999999857,68.1104590465227,1.00000000935574,0.756896839968704
