Time,AGPnorm,Energy,Entropy
0,0,1,-7.69051177094435e-17
99.9999999999986,0.00194899173161786,1.00000000000293,0.00571882730676097
199.999999999993,0.0122596417221966,1.00000000000007,0.0166850566096864
300,0.0253217264785176,0.999999999996721,0.0301592018523824
400.000000000022,0.0375704319002389,0.999999999998486,0.0470520165456553
500.000000000045,0.0517628573289511,1.00000000000162,0.0682270496940715
600.000000000068,0.0701433960740872,1.00000000000129,0.0934358100184739
700.000000000091,0.0882993161964832,0.999999999998333,0.122280424270368
800.000000000113,0.105981707011125,0.999999999999792,0.156734642652759
900.000000000136,0.123470662385659,1.0000000000289,0.201849184486704
1000.00000000016,0.13691348964987,1.00000000016914,0.25906486042357
1100.0000000001,0.168699415665323,1.00000000048541,0.319584662472698
1200,0.266804515218636,1.00000000094054,0.373767967029292
1299.99999999991,0.460762248902158,1.0000000013854,0.420599610336786
1399.99999999982,0.842455797677752,1.00000000174245,0.460884807475754
1499.99999999973,1.57471150533318,1.00000000211479,0.493244953550622
1599.99999999964,2.73535181833567,1.00000000229812,0.51912768697558
1699.99999999955,4.29268517585436,1.00000000240998,0.540123612749057
1799.99999999946,6.23565032353942,1.00000000243257,0.557176917768904
1899.99999999937,8.57270041630805,1.00000000255083,0.5694234903957
1999.99999999928,11.2447132320795,1.00000000242839,0.578886679998692
2099.99999999919,14.1436094736733,1.00000000244743,0.585238598016492
2199.99999999909,17.1731225076066,1.0000000023761,0.589874010164941
2299.999999999,20.2661194340334,1.00000000231672,0.592342873035845
2399.99999999891,23.3490847937102,1.00000000237521,0.59278965830238
2499.99999999882,26.3453632117558,1.00000000220582,0.593373544756081
2599.99999999873,29.1952567954073,1.00000000200289,0.593078701739595
2699.99999999864,31.8536742937684,1.00000000207484,0.590708593897703
2799.99999999855,34.2876432296772,1.00000000196235,0.589146084426197
2899.99999999846,36.4708398518786,1.00000000190914,0.587675030666276
2999.99999999837,38.3860353433074,1.00000000188306,0.585121432239103
3099.99999999828,40.0312530022343,1.0000000016619,0.582083130681269
3199.99999999819,41.4060089835501,1.00000000166624,0.57987250292991
3299.99999999809,42.5130569422821,1.00000000161927,0.580182634411494
3399.999999998,43.3642761934622,1.0000000015529,0.574017908139227
3499.99999999791,43.9796123171642,1.00000000149436,0.577623125718921
3599.99999999782,44.3653220741637,1.0000000014605,0.574555060186531
3699.99999999773,44.560738623812,1.00000000136704,0.570568451306835
3799.99999999764,44.570762204122,1.00000000138811,0.57189249904583
3899.99999999755,44.4406832588187,1.00000000135868,0.570096947465323
3999.99999999746,44.1676309483235,1.00000000129625,0.560719380238007
4099.99999999738,43.8174287242478,1.00000000145499,0.567937128505559
4199.99999999775,43.361235168958,1.00000000114914,0.540457350911769
4299.99999999811,42.858811999838,1.00000000164103,0.577385513416677
4399.99999999848,42.3061690120419,1.00000000111975,0.527925038494282
4499.99999999884,41.700055316415,1.00000000171354,0.577292622084643
4599.9999999992,41.1052540544976,1.00000000152138,0.544377855188582
4699.99999999957,40.4642096363426,1.00000000114915,0.512818434617276
4799.99999999993,39.8183675711102,1.00000000187566,0.579265248306736
4900.00000000029,39.1924882372689,1.00000000133586,0.516373814249275
5000.00000000066,38.5390415176271,1.00000000122828,0.507325461077212
5100.00000000102,37.8906475487401,1.00000000184757,0.564904242658498
5200.00000000139,37.2704850880632,1.00000000148908,0.51978169287257
5300.00000000175,36.6469635312851,1.0000000011769,0.498220576367575
5400.00000000211,36.0195556154046,1.00000000155463,0.527843304340351
5500.00000000248,35.4158104277627,1.00000000180698,0.546787255338013
5600.00000000284,34.830284966016,1.00000000136855,0.497812677697675
5700.00000000321,34.251547082264,1.00000000122313,0.507641876784602
5800.00000000357,33.6802375439409,1.00000000152578,0.520862344736636
5900.00000000393,33.1265906548524,1.00000000169889,0.536712914268409
6000.0000000043,32.5907439675025,1.00000000152385,0.511243401049314
6100.00000000466,32.0709358911508,1.00000000126077,0.5052897582111
6200.00000000502,31.5649457108894,1.00000000151081,0.53574243371826
6300.00000000539,31.0733404177887,1.0000000014004,0.515285219155534
6400.00000000575,30.5975200346153,1.000000001696,0.531198291057338
6500.00000000612,30.1362873450102,1.00000000145702,0.513267508224281
6600.00000000648,29.6952608518958,1.00000000120036,0.504575425499394
6700.00000000684,29.2697565689167,1.0000000016146,0.537983468017957
6800.00000000721,28.857536192837,1.00000000131996,0.52358657918176
6900.00000000757,28.4642148217512,1.00000000141084,0.505905249607996
7000.00000000793,28.0829764803199,1.00000000164197,0.524501948097292
7100.0000000083,27.7123991919918,1.00000000137557,0.509180145321142
7200.00000000866,27.3620344628719,1.00000000128209,0.509633530677813
7300.00000000903,27.0252285842234,1.00000000159592,0.532081482879706
7400.00000000939,26.6949178043894,1.00000000157253,0.535290374286743
7500.00000000975,26.3823997603479,1.00000000126583,0.506985242897912
7600.00000001012,26.0864201102784,1.00000000144745,0.510735391245709
7700.00000001048,25.798680105057,1.00000000166319,0.528283829730659
7800.00000001084,25.5191218694198,1.00000000147852,0.512440870603303
7900.00000001121,25.2551547789165,1.00000000139529,0.514653280145429
8000.00000001157,25.0038023429391,1.00000000145172,0.533410763195882
8100.00000001194,24.7583629109396,1.00000000167731,0.529656788557333
8200.0000000123,24.5179354186197,1.0000000015189,0.529312249070056
8300.00000001266,24.2897476173867,1.00000000135613,0.528453890801406
8400.00000001303,24.0749804887592,1.00000000141358,0.507216974785301
8500.00000001339,23.8710583368707,1.00000000154514,0.531597193329626
8600.00000001376,23.674290325079,1.00000000163322,0.533820162451241
8700.00000001412,23.485611012911,1.00000000136946,0.525835907989812
8800.00000001448,23.3094243320147,1.00000000145402,0.530291730239038
8900.00000001485,23.1390400688543,1.00000000150546,0.541796280358062
9000.00000001521,22.9778782157298,1.00000000141017,0.53351398152921
9100.00000001557,22.8251282684115,1.00000000150879,0.530582470964957
9200.00000001594,22.6721633085451,1.00000000162766,0.541233589858052
9300.0000000163,22.5184520503901,1.00000000152221,0.550324234537666
9400.00000001667,22.3727938489707,1.0000000013672,0.530403468688986
9500.00000001703,22.2414943259137,1.000000001486,0.529697978990312
9600.00000001739,22.1180188375067,1.00000000160835,0.550411582827605
9700.00000001776,21.9969939370751,1.00000000155988,0.541014308515884
9800.00000001812,21.8832522535921,1.00000000146488,0.541867272558284
9900.00000001848,21.7791074477227,1.0000000014212,0.541914739066482
10000.0000000188,21.6800344295229,1.00000000154876,0.54286186025669
10100.0000000192,21.5790934182921,1.00000000157502,0.552475541246468
10200.0000000196,21.4868645330379,1.00000000140414,0.529725689196023
10300.0000000199,21.4063657567194,1.00000000144545,0.541243471698167
10400.0000000203,21.3240935266511,1.00000000164443,0.547355944331546
10500.0000000207,21.2347498724555,1.00000000168224,0.550921981231775
10600.000000021,21.1403900703413,1.00000000162889,0.564908704233744
10700.0000000214,21.0516776378752,1.00000000140424,0.560462961779108
10800.0000000218,20.9674999835808,1.00000000153892,0.562169115994268
10900.0000000221,20.888750048503,1.00000000156772,0.563109940555805
11000.0000000225,20.8157568154255,1.00000000157948,0.55291145605141
11100.0000000229,20.7506430075113,1.00000000153039,0.548739108376172
11200.0000000232,20.6926626532036,1.00000000151473,0.549548115854969
11300.0000000236,20.642485238022,1.0000000015434,0.557979186535764
11400.0000000239,20.5924818505257,1.00000000152623,0.565737015507927
11500.0000000243,20.5473068451169,1.00000000152908,0.558262509499424
11600.0000000247,20.5023347276561,1.00000000159094,0.559940416273113
11700.000000025,20.459010140855,1.00000000152253,0.56322366311588
11800.0000000254,20.4211244500488,1.00000000146686,0.556003749772159
11900.0000000258,20.386817364761,1.00000000167838,0.566614877750458
12000.0000000261,20.3515775700797,1.00000000162431,0.573554014872553
12100.0000000265,20.3173686552046,1.00000000141912,0.56262373897687
12200.0000000269,20.2811490770243,1.00000000157468,0.5768708452236
12300.0000000272,20.237811756326,1.00000000172941,0.588469529044053
12400.0000000276,20.1849248747515,1.00000000168797,0.606393931209515
12500.0000000279,20.1265086136643,1.00000000158935,0.606252308687967
12600.0000000283,20.0701998253676,1.00000000149112,0.594066921704486
12700.0000000287,20.0225612375674,1.00000000153904,0.586706595284615
12800.000000029,19.9827950289131,1.00000000154221,0.578678089554632
12900.0000000294,19.9515989792373,1.00000000148623,0.566064209328468
13000.0000000298,19.9270421425827,1.00000000162571,0.568887264685077
13100.0000000301,19.9073804897024,1.00000000160936,0.576067432644403
13200.0000000305,19.8924259835885,1.00000000166626,0.585624052952614
13300.0000000309,19.8801924133183,1.00000000165307,0.583293672307194
13400.0000000312,19.8640158192151,1.00000000158876,0.581994994771452
13500.0000000316,19.8526511905923,1.00000000148074,0.578244792145029
13600.0000000319,19.8492844664403,1.00000000150301,0.573842606205944
13700.0000000323,19.8456447487923,1.00000000177536,0.574962350504801
13800.0000000327,19.8378124579366,1.00000000164695,0.581185637471671
13900.000000033,19.8312202799957,1.00000000152568,0.58149380720422
14000.0000000334,19.8299840651768,1.00000000159891,0.587674454375717
14100.0000000338,19.8292135526422,1.00000000167219,0.596200543255758
14200.0000000341,19.8225977270829,1.00000000165767,0.607903784832518
14300.0000000345,19.8127669176066,1.0000000016312,0.611714392206818
14400.0000000349,19.8014730856939,1.00000000159495,0.61417845134648
14500.0000000352,19.7894022387429,1.00000000158094,0.608769797457343
14600.0000000356,19.7718867960269,1.00000000170122,0.612628221038522
14700.0000000359,19.7470611296091,1.00000000170277,0.612626719901203
14800.0000000363,19.7133792930721,1.00000000181946,0.607217757845005
14900.0000000367,19.671698868944,1.00000000173209,0.610708379311791
15000.000000037,19.6258401256429,1.00000000160358,0.615920276147136
15100.0000000374,19.5830189029861,1.00000000155548,0.61134233738341
15200.0000000378,19.547836860888,1.00000000155777,0.603229349749908
15300.0000000381,19.52015373145,1.00000000156848,0.595156947291608
15400.0000000385,19.4994433026281,1.00000000164664,0.590423515706878
15500.0000000389,19.4870132834481,1.00000000160192,0.58892903096872
15600.0000000392,19.4805934218361,1.00000000157214,0.584943156876724
15700.0000000396,19.4806938292674,1.00000000163584,0.591802563392581
15800.0000000399,19.4848689040332,1.00000000162368,0.598451039556289
15900.0000000403,19.4903433938333,1.00000000167233,0.59959785560173
16000.0000000407,19.4975011047175,1.00000000158992,0.598480032761287
16100.000000041,19.5062247557805,1.00000000168412,0.595819058743128
16200.0000000414,19.5169987818174,1.00000000157831,0.585746940476679
16300.0000000418,19.5313780692154,1.00000000168888,0.590314422504031
16400.0000000418,19.5453889445828,1.00000000159801,0.592567212439701
16500.0000000404,19.558820072603,1.00000000167625,0.600216753112864
16600.0000000389,19.5718577984823,1.00000000172373,0.599702721813979
16700.0000000375,19.5827590648169,1.00000000166464,0.593380091996662
16800.000000036,19.5919812275231,1.0000000016859,0.590689042488058
16900.0000000346,19.603098676084,1.00000000160553,0.58448879436232
17000.0000000331,19.6144722211615,1.00000000166606,0.5934997893788
17100.0000000317,19.625804004261,1.00000000166275,0.609536783401293
17200.0000000302,19.6386292244547,1.00000000170626,0.61386243183192
17300.0000000287,19.6486142101296,1.00000000162549,0.615233436332992
17400.0000000273,19.6560368499255,1.00000000174074,0.621335808839949
17500.0000000258,19.6569890413902,1.00000000171657,0.624580967059319
17600.0000000244,19.6544151001607,1.0000000017453,0.628726526422974
17700.0000000229,19.649486900816,1.00000000169917,0.633237511326006
17800.0000000215,19.6411815131819,1.00000000169658,0.635886507334561
17900.00000002,19.6311862252595,1.00000000173645,0.633689742154626
18000.0000000186,19.617887990026,1.00000000165658,0.634721604411521
18100.0000000171,19.6035109098629,1.00000000165973,0.630853428118242
18200.0000000156,19.5886689151556,1.00000000172805,0.632076592049461
18300.0000000142,19.5692801258609,1.00000000177295,0.628833623144426
18400.0000000127,19.5430445472125,1.00000000182166,0.628752149501267
18500.0000000113,19.5083867927469,1.00000000176182,0.627279236690868
18600.0000000098,19.4690602091235,1.00000000179653,0.62482489295106
18700.0000000084,19.4267305935509,1.00000000182357,0.623619183054037
18800.0000000069,19.3867949044547,1.00000000155935,0.615226900010151
18900.0000000055,19.351215155664,1.00000000164367,0.614970503597855
19000.000000004,19.3217545576752,1.00000000168364,0.619873428714189
19100.0000000026,19.2982886492919,1.00000000166859,0.616342937158294
19200.0000000011,19.28084467906,1.00000000170113,0.612803630639442
19299.9999999996,19.270669377437,1.00000000175983,0.614206654031721
19399.9999999982,19.2681271033538,1.00000000164776,0.608143075528545
19499.9999999967,19.2707059283294,1.00000000167544,0.596807743850623
19599.9999999953,19.2782578203742,1.00000000178527,0.588038090343208
19699.9999999938,19.290373259375,1.00000000171456,0.593359924901929
19799.9999999924,19.3055642537426,1.00000000182767,0.606754329122659
19899.9999999909,19.3216885172602,1.00000000179201,0.608236224759035
19999.9999999895,19.3407589646799,1.00000000178535,0.60729221226564
20099.999999988,19.3603447981617,1.0000000017066,0.605451956864347
20199.9999999865,19.3820320297031,1.00000000178386,0.605630302586932
20299.9999999851,19.4075894927331,1.00000000173087,0.60035809420364
20399.9999999836,19.4348034718629,1.00000000178779,0.596526798464102
20499.9999999822,19.4636959216478,1.00000000172635,0.599398870919732
20599.9999999807,19.4933135504886,1.00000000186028,0.605624125968544
20699.9999999793,19.5215374566323,1.00000000181121,0.602063348929916
20799.9999999778,19.5461745126454,1.00000000173941,0.604068669521161
20899.9999999764,19.5709410085692,1.00000000173188,0.605596676961307
20999.9999999749,19.5980836363297,1.00000000186273,0.602984870822196
21099.9999999734,19.6222517097573,1.00000000188287,0.609786595555619
21199.999999972,19.643892244976,1.00000000178081,0.611424826700628
21299.9999999705,19.6643620133813,1.00000000181263,0.61588688769777
21399.9999999691,19.6863473025238,1.00000000176597,0.620339323509743
21499.9999999676,19.7086226160428,1.00000000180757,0.636514131914555
21599.9999999662,19.7295950295382,1.00000000189933,0.643621449518291
21699.9999999647,19.7475564652213,1.00000000192255,0.647417222440785
21799.9999999633,19.7618182800726,1.0000000019308,0.647158661340311
21899.9999999618,19.771544703285,1.00000000187199,0.648167036523889
21999.9999999603,19.7819754436156,1.00000000179224,0.64257307179018
22099.9999999589,19.7948917522797,1.00000000182044,0.647437923531293
22199.9999999574,19.8081473086746,1.00000000177813,0.644677009646663
22299.999999956,19.8221637578248,1.00000000172229,0.644675250565241
22399.9999999545,19.8337839891458,1.00000000197151,0.647087794976253
22499.9999999531,19.8415137056453,1.00000000173324,0.651481209436172
22599.9999999516,19.8488169823623,1.0000000017902,0.649980528454062
22699.9999999502,19.8546262880356,1.00000000192146,0.652658763131597
22799.9999999487,19.8576358596655,1.00000000199637,0.657331754556937
22899.9999999473,19.8593130950688,1.00000000185002,0.657138940588609
22999.9999999458,19.8613981340569,1.00000000178157,0.653810788803959
23099.9999999443,19.8661152727103,1.00000000181848,0.641619450975435
23199.9999999429,19.8671759187915,1.0000000019577,0.64726419939363
23299.9999999414,19.8638559676152,1.00000000191177,0.650079998587556
23399.99999994,19.8597000485374,1.00000000183878,0.649834413185629
23499.9999999385,19.8529960647473,1.0000000019632,0.649871382180771
23599.9999999371,19.8413540241083,1.00000000197315,0.661730544865491
23699.9999999356,19.827904887602,1.00000000179893,0.661022477203387
23799.9999999342,19.8137854840003,1.00000000180684,0.654830487178216
23899.9999999327,19.8005710374184,1.00000000176202,0.662441732611299
23999.9999999312,19.7851571481588,1.00000000194433,0.66716184481881
24099.9999999298,19.7675706563439,1.00000000191389,0.664617644231186
24199.9999999283,19.7494073693951,1.00000000187018,0.656374406957181
24299.9999999269,19.7304922912804,1.00000000183548,0.65660811295756
24399.9999999254,19.710362635348,1.00000000185312,0.658792031046733
24499.999999924,19.6898844158792,1.00000000191348,0.657519064230453
24599.9999999225,19.666962395801,1.00000000198459,0.659654206912616
24699.9999999211,19.6409189665437,1.00000000199998,0.661054614667459
24799.9999999196,19.6111929936702,1.00000000205501,0.671438472609414
24899.9999999181,19.5782822863575,1.00000000200888,0.669312780202762
24999.9999999167,19.5441980585963,1.00000000202898,0.66769937001929
25099.9999999152,19.5098113748068,1.00000000193346,0.664263218504064
25199.9999999138,19.4776637926627,1.00000000183041,0.653631286715451
25299.9999999123,19.4497204967562,1.00000000179591,0.65095856070614
25399.9999999109,19.4267464955134,1.00000000178501,0.648138115353614
25499.9999999094,19.4101242858312,1.00000000186707,0.650976406483883
25599.999999908,19.3993933467323,1.00000000184506,0.654987395547445
25699.9999999065,19.3937277343858,1.00000000188493,0.657960589487406
25799.9999999051,19.3932535654899,1.00000000196842,0.65146701911232
25899.9999999036,19.3991496998016,1.00000000195063,0.649394177751182
25999.9999999021,19.4096976583397,1.00000000200388,0.643622352939322
26099.9999999007,19.4259889832747,1.00000000188418,0.632808211484237
26199.9999998992,19.4464968226105,1.00000000197605,0.631389431813543
26299.9999998978,19.4695793800914,1.00000000197927,0.627209101982323
26399.9999998963,19.4963911996642,1.00000000197856,0.629590105419624
26499.9999998949,19.5262179246755,1.00000000200465,0.626859486296413
26599.9999998934,19.5573565767992,1.00000000193895,0.631250196089236
26699.999999892,19.5905258919372,1.00000000195932,0.629477984247241
26799.9999998905,19.6264194875347,1.00000000193715,0.624017403373032
26899.999999889,19.6627714239083,1.00000000211343,0.620843356388354
26999.9999998876,19.7014052594208,1.00000000187981,0.622028630004952
27099.9999998861,19.7445819608547,1.00000000181012,0.622222696076308
27199.9999998847,19.7899910226015,1.00000000198604,0.619719488007111
27299.9999998832,19.8371855620443,1.00000000209142,0.618599621896194
27399.9999998818,19.883054671829,1.00000000209947,0.62950141097256
27499.9999998803,19.9293616870342,1.00000000196826,0.62283121182911
27599.9999998789,19.9759572831899,1.00000000209953,0.628983882546545
27699.9999998774,20.0212934835435,1.00000000200523,0.625472623452051
27799.9999998759,20.0665215570142,1.00000000212788,0.624834235924851
27899.9999998745,20.1116637689146,1.00000000206372,0.62546214708144
27999.999999873,20.1567851712432,1.00000000197908,0.619247260948529
28099.9999998716,20.2029865348532,1.00000000212614,0.622004286516964
28199.9999998701,20.2479321339424,1.00000000209051,0.619734626530545
28299.9999998687,20.2916698631314,1.00000000210509,0.625355344945352
28399.9999998672,20.332807617757,1.00000000214645,0.633717509549118
28499.9999998658,20.3724371190123,1.00000000213724,0.635644790803716
28599.9999998643,20.4123843785453,1.0000000019997,0.643040744333944
28699.9999998629,20.4533015467387,1.00000000210397,0.642577554408293
28799.9999998614,20.4942407827997,1.0000000020197,0.644733722001674
28899.9999998599,20.5355484799517,1.00000000210279,0.644263337138918
28999.9999998585,20.5729420464399,1.00000000222637,0.659014926841134
