Time,AGPnorm,Energy,Entropy
0,0,1,-7.2855071343906e-17
99.9999999999986,0.00139026602718564,0.99999999999869,0.00463186166415938
199.999999999993,0.00992073099379877,0.999999999999704,0.0135485837774368
300,0.0199836126234856,1.0000000000015,0.0251882117466211
400.000000000022,0.0300270582089243,1.00000000000111,0.0399264123793261
500.000000000045,0.0427603123296986,0.999999999998684,0.0576556322319938
600.000000000068,0.0586299325982784,0.999999999998796,0.0781167609043242
700.000000000091,0.074485645267502,1.00000000000103,0.101752088336841
800.000000000113,0.0896024546663494,1.000000000002,0.129310002976986
900.000000000136,0.106347609721076,1.00000000000253,0.162789599561898
1000.00000000016,0.122210285841219,1.00000000002552,0.204493798206356
1100.0000000001,0.14029451817956,1.00000000013034,0.255777013763469
1200,0.172757497227725,1.00000000036303,0.310634198590962
1299.99999999991,0.235918018731934,1.00000000073104,0.361576672177169
1399.99999999982,0.387502447585141,1.00000000101733,0.40625313994562
1499.99999999973,0.738045586310881,1.00000000133371,0.443644512665374
1599.99999999964,1.37570471527061,1.00000000156081,0.475608442933829
1699.99999999955,2.36021819539268,1.00000000182158,0.502295877031864
1799.99999999946,3.76641104678699,1.0000000019094,0.523989995155385
1899.99999999937,5.61940273118347,1.00000000199935,0.540670418861848
1999.99999999928,7.86958809242619,1.0000000019909,0.55477793425076
2099.99999999919,10.478301310592,1.00000000202989,0.565885063693792
2199.99999999909,13.4250677431651,1.0000000021273,0.573873428357233
2299.999999999,16.6376644841724,1.00000000195752,0.579073153057793
2399.99999999891,19.9903606864669,1.0000000020005,0.58301231158761
2499.99999999882,23.3973213078707,1.00000000192452,0.586451082413247
2599.99999999873,26.8272453837905,1.00000000191519,0.587528785831395
2699.99999999864,30.2236162074472,1.00000000190135,0.586603458383939
2799.99999999855,33.4994113238533,1.00000000171726,0.586417442816118
2899.99999999846,36.583007277793,1.00000000185311,0.585467622584898
2999.99999999837,39.4576070579268,1.00000000159342,0.583655663683946
3099.99999999828,42.1169634735484,1.00000000157372,0.580420523214762
3199.99999999819,44.5300840056962,1.00000000157479,0.578622906622909
3299.99999999809,46.6622044104885,1.00000000155323,0.578663820573089
3399.999999998,48.5049026078384,1.00000000149745,0.576421509229738
3499.99999999791,50.0781463800976,1.0000000014284,0.573062252752081
3599.99999999782,51.3892394150743,1.00000000131374,0.573239456791772
3699.99999999773,52.4389456881043,1.00000000131557,0.566512987740356
3799.99999999764,53.2324300712254,1.00000000129984,0.572163194944652
3899.99999999755,53.7837953989865,1.00000000116524,0.564910708458393
3999.99999999746,54.1217403574899,1.00000000117847,0.570327427502071
4099.99999999738,54.2798340829067,1.00000000114303,0.558696685157015
4199.99999999775,54.248282410948,1.00000000114718,0.568075995285567
4299.99999999811,54.0934390805115,1.00000000111996,0.561089149300211
4399.99999999848,53.780367680047,1.00000000103889,0.547454265309614
4499.99999999884,53.393832274318,1.00000000138895,0.577199223695333
4599.9999999992,52.9238220167561,1.00000000093868,0.528034104275476
4699.99999999957,52.3595151626332,1.0000000012983,0.567230760779621
4799.99999999993,51.7873948648536,1.00000000123065,0.555071811245382
4900.00000000029,51.1452655868314,1.0000000008314,0.508505045005069
5000.00000000066,50.4576771617175,1.0000000014488,0.569817311275871
5100.00000000102,49.7972615941235,1.00000000134723,0.549750058260476
5200.00000000139,49.1000130230779,1.00000000085106,0.492554935423629
5300.00000000175,48.3631676972064,1.00000000139104,0.544955288927854
5400.00000000211,47.6603777101839,1.00000000161856,0.565134652717772
5500.00000000248,46.965961832566,1.00000000100283,0.494169942612866
5600.00000000284,46.2429511209252,1.0000000009723,0.486471610713716
5700.00000000321,45.5233492512733,1.00000000152428,0.555686149845751
5800.00000000357,44.8389976241566,1.00000000141693,0.538955139258827
5900.00000000393,44.1636960774096,1.00000000096045,0.479994663469715
6000.0000000043,43.4806448471094,1.00000000107072,0.485879249669448
6100.00000000466,42.8047887065155,1.00000000145705,0.523461808512374
6200.00000000502,42.1542891718313,1.00000000155178,0.546280004432614
6300.00000000539,41.5240648504869,1.00000000114558,0.494621665759926
6400.00000000575,40.9027170845567,1.00000000103484,0.483951701692035
6500.00000000612,40.2902655255484,1.00000000116032,0.504751682633039
6600.00000000648,39.691179055101,1.00000000131589,0.515580906219823
6700.00000000684,39.1099702899744,1.00000000137205,0.536444546737548
6800.00000000721,38.5459309140796,1.00000000130336,0.512174140821022
6900.00000000757,37.998707499151,1.00000000100246,0.485128382188078
7000.00000000793,37.4683305005352,1.00000000121435,0.511381275850573
7100.0000000083,36.9522759093601,1.00000000117482,0.518372280557773
7200.00000000866,36.4522896786565,1.00000000113542,0.505665861386874
7300.00000000903,35.9670969194015,1.00000000135778,0.525571078426335
7400.00000000939,35.493083464774,1.00000000128193,0.51614862036468
7500.00000000975,35.0376791450328,1.00000000101035,0.492422798799026
7600.00000001012,34.6038622696772,1.00000000111138,0.505990551469032
7700.00000001048,34.1821185370157,1.00000000138509,0.523529699536005
7800.00000001084,33.7726239182781,1.00000000112545,0.515263690964396
7900.00000001121,33.3826006469108,1.00000000107689,0.489586105274741
8000.00000001157,33.0054277939416,1.00000000138541,0.522271947145662
8100.00000001194,32.6322937669308,1.00000000138774,0.526052935724139
8200.0000000123,32.2711075396718,1.00000000110006,0.503574233428363
8300.00000001266,31.9313230457534,1.00000000107147,0.497100015551576
8400.00000001303,31.6080685457511,1.00000000127777,0.514277538877453
8500.00000001339,31.2894883276254,1.00000000139615,0.522299013114357
8600.00000001376,30.9778524067034,1.00000000117091,0.522866094094139
8700.00000001412,30.6847835705563,1.00000000100274,0.500046850442067
8800.00000001448,30.405917928514,1.00000000119901,0.508244351072486
8900.00000001485,30.1314085057004,1.00000000139908,0.535721261970336
9000.00000001521,29.8594179852308,1.00000000136417,0.529973783670591
9100.00000001557,29.5968755483766,1.00000000114696,0.511550426717868
9200.00000001594,29.3524891572171,1.00000000111809,0.508691356111514
9300.0000000163,29.1208333257222,1.00000000122962,0.526223269697176
9400.00000001667,28.8975380953933,1.0000000012374,0.524997522648235
9500.00000001703,28.6797317488275,1.00000000127893,0.522371830234192
9600.00000001739,28.4674462439306,1.00000000126122,0.523101530665543
9700.00000001776,28.261653636079,1.00000000115868,0.538077411339646
9800.00000001812,28.0632512841122,1.0000000011316,0.52914861353482
9900.00000001848,27.8733533760168,1.00000000118894,0.524928394822918
10000.0000000188,27.6900130118452,1.00000000129588,0.538593679993881
10100.0000000192,27.5113200298461,1.00000000130532,0.541189548764358
10200.0000000196,27.3377018031624,1.00000000125187,0.535765600617705
10300.0000000199,27.177247659105,1.00000000112528,0.524773374837174
10400.0000000203,27.0317201620032,1.00000000115105,0.522405545878722
10500.0000000207,26.8894404738082,1.00000000130279,0.537760954721627
10600.000000021,26.7484831796246,1.00000000121947,0.532019414670958
10700.0000000214,26.6209913160092,1.00000000105184,0.516966338718833
10800.0000000218,26.5046381991952,1.00000000124915,0.528827367991039
10900.0000000221,26.3883614571355,1.0000000014102,0.535826486703626
11000.0000000225,26.2625849603064,1.00000000143004,0.558471929221489
11100.0000000229,26.1318335005921,1.00000000121861,0.563998395967971
11200.0000000232,26.0054639592525,1.00000000115769,0.549012774906167
11300.0000000236,25.8874969738071,1.00000000113531,0.544254342089527
11400.0000000239,25.7757410783561,1.00000000122809,0.551052650863658
11500.0000000243,25.6673707218877,1.00000000133211,0.554219243630635
11600.0000000247,25.5633101614695,1.00000000129371,0.544370003703612
11700.000000025,25.4661329760466,1.00000000121459,0.540639621558598
11800.0000000254,25.3809648760926,1.00000000119258,0.545888400379797
11900.0000000258,25.3043498476737,1.00000000122582,0.547127852147486
12000.0000000261,25.2333366666699,1.00000000123554,0.542742035398512
12100.0000000265,25.1609315947229,1.00000000130177,0.544925215986245
12200.0000000269,25.0899175356644,1.00000000124995,0.547797973686597
12300.0000000272,25.0293169363937,1.00000000117067,0.532573405418365
12400.0000000276,24.9809877278478,1.00000000116414,0.543409583588876
12500.0000000279,24.9333331701873,1.00000000132754,0.564977147041639
12600.0000000283,24.8800042455714,1.0000000012869,0.556333592423745
12700.0000000287,24.8208286410523,1.00000000133672,0.563024172906914
12800.000000029,24.7541996530561,1.00000000138037,0.566952839593141
12900.0000000294,24.6825083641152,1.00000000129354,0.576595602185774
13000.0000000298,24.6071717201294,1.00000000131294,0.582164719389473
13100.0000000301,24.5304972303019,1.00000000127855,0.579764964978562
13200.0000000305,24.4583930452963,1.00000000117581,0.569185756762714
13300.0000000309,24.3925686084248,1.00000000122727,0.564940338675877
13400.0000000312,24.3337821274246,1.00000000136278,0.560769249672556
13500.0000000316,24.280570766101,1.00000000124999,0.55492859107134
13600.0000000319,24.2322505285559,1.00000000131086,0.553630202722822
13700.0000000323,24.1909042260387,1.00000000127395,0.558869585642317
13800.0000000327,24.1604091782455,1.00000000119884,0.558604529379348
13900.000000033,24.1360156338112,1.00000000132477,0.561692886768627
14000.0000000334,24.1090172486467,1.00000000141799,0.559574242462952
14100.0000000338,24.0820566431285,1.0000000012478,0.556785903328952
14200.0000000341,24.0640606067807,1.00000000122952,0.549234772607931
14300.0000000345,24.0511513463825,1.00000000124938,0.545221119393771
14400.0000000349,24.0391021451675,1.0000000012964,0.556132159649716
14500.0000000352,24.0287608124875,1.00000000128054,0.5663855672552
14600.0000000356,24.0202078739482,1.00000000131763,0.578655974169666
14700.0000000359,24.0102075616323,1.00000000134295,0.58419877974335
14800.0000000363,23.9958769780583,1.00000000138381,0.596911846274798
14900.0000000367,23.9759835224649,1.00000000134268,0.595038966712186
15000.000000037,23.9553700999515,1.00000000125278,0.59173937293929
15100.0000000374,23.9343608920996,1.00000000123681,0.588091708582752
15200.0000000378,23.9114867461601,1.00000000146248,0.591907297837351
15300.0000000381,23.8818805497908,1.00000000138792,0.593605159128645
15400.0000000385,23.8447952333125,1.00000000147796,0.604191087590132
15500.0000000389,23.797281502541,1.00000000141877,0.600389915054234
15600.0000000392,23.7439408286053,1.00000000137342,0.607019854209292
15700.0000000396,23.6877460335811,1.00000000130256,0.612263406946883
15800.0000000399,23.6346618489436,1.00000000125464,0.601128236639281
15900.0000000403,23.5884736894061,1.00000000121801,0.589423146403805
16000.0000000407,23.5507784670624,1.00000000130026,0.583106846024748
16100.000000041,23.5189323774598,1.00000000133632,0.579925487764086
16200.0000000414,23.4919749904277,1.00000000125625,0.580674559566039
16300.0000000418,23.4713293134061,1.00000000126798,0.57296339146741
16400.0000000418,23.4569642964506,1.00000000125147,0.574110160150152
16500.0000000404,23.4494395614531,1.00000000122995,0.579396122551846
16600.0000000389,23.4481962166534,1.00000000138226,0.58133957006913
16700.0000000375,23.449156029695,1.00000000137959,0.5766878633769
16800.000000036,23.4511597734181,1.00000000133357,0.575133028581823
16900.0000000346,23.4553791824773,1.00000000127229,0.569111415652471
17000.0000000331,23.4634171340371,1.00000000131614,0.556771167451799
17100.0000000317,23.4756835123537,1.00000000121029,0.564809305637234
17200.0000000302,23.4922488443,1.00000000124075,0.575591467371483
17300.0000000287,23.5122134193514,1.00000000130416,0.578764308085065
17400.0000000273,23.5315209390685,1.00000000137419,0.581007069218323
17500.0000000258,23.5465959546325,1.00000000147071,0.586538801571443
17600.0000000244,23.5575086443728,1.00000000132288,0.573700764122743
17700.0000000229,23.5676160842052,1.00000000140158,0.576567210776814
17800.0000000215,23.5770490412913,1.00000000132312,0.586821565667147
17900.00000002,23.5866714131788,1.00000000134691,0.60240899127939
18000.0000000186,23.5953886015545,1.00000000146132,0.607173459202905
18100.0000000171,23.6008255788131,1.00000000135988,0.610071791727457
18200.0000000156,23.6021873618238,1.00000000138707,0.609712387361579
18300.0000000142,23.5989293533731,1.00000000147535,0.608430204576543
18400.0000000127,23.5925519013534,1.00000000134626,0.61042925440352
18500.0000000113,23.58679802945,1.00000000132754,0.619573327523096
18600.0000000098,23.5800551374751,1.00000000138493,0.623414926788311
18700.0000000084,23.568823002056,1.00000000149325,0.629077962685034
18800.0000000069,23.5520579749991,1.00000000140051,0.627879862327351
18900.0000000055,23.5315567819488,1.00000000137912,0.621753436020174
19000.000000004,23.5071320907155,1.00000000138308,0.622760897696381
19100.0000000026,23.4789157319453,1.00000000140763,0.621127301938737
19200.0000000011,23.4444511556218,1.00000000151863,0.616981708240383
19299.9999999996,23.4038470342401,1.00000000153614,0.618316547421129
19399.9999999982,23.3582574710041,1.00000000148688,0.610826939404374
19499.9999999967,23.308850486271,1.00000000141707,0.613293538579179
19599.9999999953,23.2589563507818,1.00000000134372,0.609741901045
19699.9999999938,23.2129759782282,1.00000000137656,0.605266887900688
19799.9999999924,23.1725126506966,1.00000000130549,0.600050039649403
19899.9999999909,23.1375802336885,1.00000000135661,0.598320126487136
19999.9999999895,23.1073624560167,1.00000000134928,0.594701247102757
20099.999999988,23.0820219101386,1.00000000147515,0.599272799646687
20199.9999999865,23.0618989031901,1.00000000139229,0.595573233240201
20299.9999999851,23.0478925347012,1.00000000138332,0.585614578268635
20399.9999999836,23.0409116901531,1.00000000133037,0.576395060160049
20499.9999999822,23.0394809876475,1.0000000013735,0.578595490071698
20599.9999999807,23.0431822466687,1.00000000135025,0.57907635347681
20699.9999999793,23.0523039864461,1.00000000140999,0.583517995358174
20799.9999999778,23.0660733764776,1.00000000141022,0.593411908371686
20899.9999999764,23.0809665566945,1.00000000144667,0.585622729869725
20999.9999999749,23.0963845766229,1.0000000014569,0.584352542592256
21099.9999999734,23.1158803798915,1.00000000135217,0.5816341682425
21199.999999972,23.1397135703079,1.00000000144326,0.573332693462091
21299.9999999705,23.164655956135,1.00000000139235,0.566621265396913
21399.9999999691,23.1945151323612,1.00000000129711,0.564833333928693
21499.9999999676,23.2307994323973,1.00000000139005,0.572572974366388
21599.9999999662,23.2684998011913,1.00000000144002,0.579385694268594
21699.9999999647,23.3018499854442,1.00000000151892,0.586293543390553
21799.9999999633,23.3344430156471,1.00000000138534,0.588679631669309
21899.9999999618,23.3679628849436,1.00000000141742,0.590849480801556
21999.9999999603,23.399576513102,1.00000000149676,0.590996988178674
22099.9999999589,23.4257987664062,1.00000000155709,0.595470438873389
22199.9999999574,23.4456695414727,1.00000000142232,0.598616118140138
22299.999999956,23.4630676339758,1.0000000014266,0.608538228820903
22399.9999999545,23.4808188837405,1.00000000148532,0.62587121314004
22499.9999999531,23.5006351336005,1.00000000138117,0.627107997076356
22599.9999999516,23.5191676134754,1.00000000150786,0.628925781478425
22699.9999999502,23.5347263851038,1.00000000154316,0.626846312612599
22799.9999999487,23.5473864740655,1.00000000149475,0.623581318289775
22899.9999999473,23.5580930586949,1.00000000141306,0.628802340342605
22999.9999999458,23.5694391815147,1.00000000140911,0.632499327403532
23099.9999999443,23.581384912673,1.00000000144004,0.634379090452758
23199.9999999429,23.5951434300252,1.0000000014305,0.629808970581369
23299.9999999414,23.6072175354769,1.00000000149889,0.628342287647351
23399.99999994,23.6124542378633,1.00000000152049,0.628387870439085
23499.9999999385,23.6133515501619,1.00000000142097,0.640231719908273
23599.9999999371,23.6138359608661,1.00000000143682,0.639653651940012
23699.9999999356,23.6121364517002,1.00000000145262,0.636794261642762
23799.9999999342,23.6062116398073,1.00000000148049,0.63620743459433
23899.9999999327,23.5992292015194,1.00000000153544,0.642870814234762
23999.9999999312,23.5944843107432,1.00000000135277,0.637548636995428
24099.9999999298,23.5933209490581,1.00000000142607,0.6324988446067
24199.9999999283,23.5907737995941,1.00000000147821,0.640926912920821
24299.9999999269,23.5847314375711,1.00000000144454,0.638130639272347
24399.9999999254,23.5749188784182,1.00000000149023,0.647490546642165
24499.999999924,23.5595317399452,1.00000000157045,0.641199907587239
24599.9999999225,23.5405980478391,1.00000000146338,0.640095134833568
24699.9999999211,23.5219858618908,1.00000000146618,0.64776446927367
24799.9999999196,23.5019939467914,1.00000000149949,0.644266475781072
24899.9999999181,23.482093056817,1.0000000014861,0.638933501559537
24999.9999999167,23.4607113298217,1.00000000145011,0.646381332787085
25099.9999999152,23.436771867871,1.00000000141747,0.641235134940499
25199.9999999138,23.4106086584156,1.00000000143169,0.628234854251254
25299.9999999123,23.3814870293661,1.00000000152826,0.6374036439448
25399.9999999109,23.3502200969183,1.0000000015086,0.642298401041205
25499.9999999094,23.3168150591219,1.00000000149368,0.64507960074941
25599.999999908,23.2812205777318,1.00000000154667,0.647223900927318
25699.9999999065,23.2426376059599,1.00000000154842,0.655288324171039
25799.9999999051,23.2007164374619,1.0000000016088,0.654973240693136
25899.9999999036,23.1565114999871,1.00000000152317,0.652930731691633
25999.9999999021,23.1114537761552,1.0000000015045,0.652726463289818
26099.9999999007,23.0664070912226,1.00000000150224,0.654299222876991
26199.9999998992,23.0215748264934,1.0000000014656,0.654425144158908
26299.9999998978,22.9792310888717,1.00000000138303,0.640805375799907
26399.9999998963,22.9393376009133,1.00000000146476,0.634719101322174
26499.9999998949,22.903939999643,1.00000000146892,0.626621277964297
26599.9999998934,22.8721525257586,1.00000000149309,0.629295484714863
26699.999999892,22.8453652267501,1.00000000155346,0.632628287777912
26799.9999998905,22.8224135131773,1.00000000150002,0.635656699154854
26899.999999889,22.8031338131209,1.00000000151942,0.637028674918519
26999.9999998876,22.7882855886901,1.00000000138613,0.627757960312225
27099.9999998861,22.7799578059067,1.00000000153905,0.628439812059175
27199.9999998847,22.7770229627034,1.00000000147108,0.621326065244879
27299.9999998832,22.7798668793225,1.0000000014423,0.616379396769057
27399.9999998818,22.7867843863567,1.00000000149216,0.615496710234439
27499.9999998803,22.7977157649016,1.00000000150531,0.618543912010083
27599.9999998789,22.8134908559192,1.0000000014281,0.610819946127314
27699.9999998774,22.8317670107597,1.00000000160639,0.612597266078359
27799.9999998759,22.8513780645216,1.00000000150009,0.608631874191162
27899.9999998745,22.8762167223615,1.00000000152463,0.60743415331102
27999.999999873,22.902365649466,1.00000000159777,0.601960479465705
28099.9999998716,22.9278869400479,1.00000000158815,0.60302686042353
28199.9999998701,22.9564616855214,1.00000000153598,0.59915692173244
28299.9999998687,22.9893664241669,1.00000000151201,0.599637157817323
28399.9999998672,23.0260274955804,1.00000000148723,0.596724434832301
28499.9999998658,23.0669567686758,1.00000000145212,0.594501797275931
28599.9999998643,23.1105209817222,1.00000000141197,0.599074202049713
28699.9999998629,23.1586032022215,1.00000000158058,0.607660795024467
28799.9999998614,23.2057901670422,1.00000000156784,0.607156069348334
28899.9999998599,23.253085844023,1.00000000152626,0.609681466187642
28999.9999998585,23.3016715451372,1.0000000015309,0.614849065703582
