Time,AGPnorm,Energy,Entropy
0,0,1,2.66952208651024e-20
99.9999999999986,0.00347726975119924,1.00000000000095,0.0113818938868798
199.999999999993,0.0100315104078581,1.00000000000056,0.0333473668861482
300,0.0211756565908113,1.00000000000056,0.0650142815613326
400.000000000022,0.0329411853780837,1.00000000000163,0.104954821031528
500.000000000045,0.0467336641596434,1.00000000000305,0.155989397313233
600.000000000068,0.0620697943038819,1.00000000003467,0.223249476053322
700.000000000091,0.0806233419944167,1.00000000018192,0.308084974065889
800.000000000113,0.19252029329336,1.00000000053433,0.393678182892785
900.000000000136,0.564996072277817,1.00000000087079,0.46164771719577
1000.00000000016,1.51067353091856,1.0000000011106,0.507606961817805
1100.0000000001,3.23185073902122,1.00000000138874,0.536015069606513
1200,5.78523151032883,1.00000000144846,0.551341780729943
1299.99999999991,9.09734180075996,1.00000000148726,0.559172189490828
1399.99999999982,12.937070530754,1.00000000135171,0.560139352065193
1499.99999999973,17.0735844220497,1.00000000135904,0.556895416044833
1599.99999999964,21.2538978874598,1.00000000119735,0.551550414936955
1699.99999999955,25.2646490471471,1.00000000120231,0.546478068883981
1799.99999999946,28.9598858744499,1.00000000117353,0.536066841769953
1899.99999999937,32.1964369323347,1.00000000110125,0.5331770760788
1999.99999999928,34.9366798866937,1.00000000101662,0.517371704606384
2099.99999999919,37.1111833837943,1.00000000097123,0.522501724638944
2199.99999999909,38.7775824839628,1.00000000092289,0.51153013430712
2299.999999999,39.8768157170208,1.0000000007904,0.489768868191342
2399.99999999891,40.5549301079172,1.00000000098624,0.536173591235302
2499.99999999882,40.8786463082047,1.00000000071123,0.478048974318092
2599.99999999873,40.7293813065898,1.00000000064781,0.466103838299404
2699.99999999864,40.396712339299,1.000000001094,0.558465195099659
2799.99999999855,40.0030534919116,1.00000000080171,0.496434022725095
2899.99999999846,39.3142504576263,1.00000000039266,0.378462099402918
2999.99999999837,38.4385023177827,1.00000000092682,0.503090797620758
3099.99999999828,37.6515568047297,1.00000000135568,0.572482050450307
3199.99999999819,36.9463418234012,1.00000000083518,0.49314576757226
3299.99999999809,36.1071372184465,1.00000000036018,0.323851174598442
3399.999999998,35.1569476080357,1.00000000060542,0.399193557049077
3499.99999999791,34.2278905379293,1.00000000113658,0.526046861687192
3599.99999999782,33.4105419689798,1.00000000121355,0.56130144349831
3699.99999999773,32.6893422980974,1.00000000096828,0.52427255838595
3799.99999999764,31.9510894126539,1.00000000052475,0.367678796033416
3899.99999999755,31.1848322352392,1.00000000036106,0.294353282032852
3999.99999999746,30.4458247725794,1.00000000074373,0.41084470927492
4099.99999999738,29.7218883766094,1.00000000099448,0.5215716172805
4199.99999999775,29.0206122309321,1.0000000010463,0.503535974922363
4299.99999999811,28.3594612767134,1.00000000127042,0.536917465506022
4399.99999999848,27.7503596806636,1.00000000105566,0.560911855502641
4499.99999999884,27.1677510698554,1.00000000061783,0.455644568736998
4599.9999999992,26.615203026475,1.00000000033676,0.314631236419307
4699.99999999957,26.1559937885867,1.00000000048292,0.303066652932706
4799.99999999993,25.7829442070657,1.00000000080546,0.404351303966644
4900.00000000029,25.4055610393044,1.00000000103753,0.49902354928444
5000.00000000066,24.9815681876423,1.00000000101632,0.547409928845032
5100.00000000102,24.5556677338419,1.00000000069694,0.497237723379859
5200.00000000139,24.1472087347564,1.00000000076473,0.460392697479827
5300.00000000175,23.7243977194356,1.00000000109682,0.5046628658257
5400.00000000211,23.2901551991433,1.00000000119526,0.556290739556443
5500.00000000248,22.8714489799059,1.00000000098193,0.565900820895149
5600.00000000284,22.4730713167287,1.000000000692,0.489464302082465
5700.00000000321,22.1225551599742,1.00000000042568,0.369792874640939
5800.00000000357,21.8935666806272,1.00000000032833,0.299028632096273
5900.00000000393,21.8222403225945,1.00000000050412,0.315089761200986
6000.0000000043,21.841718670868,1.00000000083046,0.403660392547995
6100.00000000466,21.8458804671132,1.00000000097503,0.49014784746995
6200.00000000502,21.7947231487415,1.00000000095996,0.522453675901526
6300.00000000539,21.6867535708014,1.0000000009103,0.514982752275669
6400.00000000575,21.5215841752259,1.00000000092327,0.534426067586445
6500.00000000612,21.315666074738,1.00000000099835,0.540499204050731
6600.00000000648,21.1064072921073,1.00000000073162,0.514939194008179
6700.00000000684,20.917209376663,1.00000000068986,0.496796593087266
6800.00000000721,20.732052831685,1.00000000081958,0.512548633918138
6900.00000000757,20.5320324898676,1.00000000084984,0.515224250879628
7000.00000000793,20.3098255580581,1.00000000094964,0.516774562647771
7100.0000000083,20.0600485748779,1.00000000109274,0.528537345433341
7200.00000000866,19.7929810920103,1.0000000012957,0.557544495149035
7300.00000000903,19.5269364237395,1.00000000112708,0.573590462542649
7400.00000000939,19.2676942871263,1.00000000084449,0.544419675792488
7500.00000000975,19.0240091237553,1.00000000053704,0.468462946833814
7600.00000001012,18.841093200276,1.00000000035219,0.379806601115005
7700.00000001048,18.7860338527707,1.0000000003374,0.323444861177253
7800.00000001084,18.9091111050045,1.00000000037206,0.307800041425856
7900.00000001121,19.1941375761034,1.00000000058436,0.345729979266496
8000.00000001157,19.5558474245548,1.00000000079147,0.412198583184841
8100.00000001194,19.9048487040598,1.00000000092925,0.468768948241337
8200.0000000123,20.1806154557022,1.00000000097902,0.51557961231083
8300.00000001266,20.3808264345715,1.00000000091388,0.53084106538275
8400.00000001303,20.5221693944731,1.00000000094664,0.539817060534268
8500.00000001339,20.6035292347256,1.00000000087713,0.56310185432445
8600.00000001376,20.6271207957212,1.00000000094649,0.568447658128936
8700.00000001412,20.6139535940469,1.00000000079137,0.547786775646993
8800.00000001448,20.5736459887812,1.00000000091885,0.540152774618277
8900.00000001485,20.5052766495243,1.00000000085904,0.538236983950252
9000.00000001521,20.4077110363052,1.0000000009827,0.543705726672706
9100.00000001557,20.2941111957778,1.000000000801,0.538538956157542
9200.00000001594,20.1914541718025,1.00000000068835,0.524240673611152
9300.0000000163,20.1086175124464,1.00000000074876,0.515044470011833
9400.00000001667,20.0283295518921,1.00000000083107,0.520244484703274
9500.00000001703,19.9413458858235,1.00000000085953,0.527804782380602
9600.00000001739,19.8508267285685,1.00000000078294,0.530192116443264
9700.00000001776,19.7587444035965,1.00000000083752,0.535870363033417
9800.00000001812,19.6612838082088,1.00000000092016,0.540938227909006
9900.00000001848,19.5496836492365,1.00000000083842,0.553673615170758
10000.0000000188,19.4277490031523,1.0000000008373,0.563846311442507
10100.0000000192,19.3012429376607,1.00000000078543,0.569542240936709
10200.0000000196,19.1768148360383,1.0000000007324,0.559584220406945
10300.0000000199,19.0489195778254,1.00000000074889,0.562880462626042
10400.0000000203,18.9090557610288,1.00000000093972,0.570113368254673
10500.0000000207,18.7561060283649,1.00000000098774,0.566243473689589
10600.000000021,18.5940169612722,1.00000000106212,0.577260425945334
10700.0000000214,18.430947857145,1.00000000113194,0.579802068146293
10800.0000000218,18.2764980431075,1.00000000118168,0.582905621006623
10900.0000000221,18.1356338811423,1.0000000012261,0.586598770214384
11000.0000000225,18.0030193715749,1.00000000105141,0.580633901384628
11100.0000000229,17.8645279048456,1.00000000088012,0.556538320624846
11200.0000000232,17.713599021953,1.00000000062703,0.508774969016725
11300.0000000236,17.5645503808265,1.00000000046326,0.450217144693869
11400.0000000239,17.4552822372736,1.00000000036206,0.393982373469073
11500.0000000243,17.4360662957697,1.0000000003467,0.347285919942566
11600.0000000247,17.5579455754181,1.00000000027904,0.322189398240352
11700.000000025,17.8497546679915,1.00000000046376,0.329869265264776
11800.0000000254,18.3047261915256,1.00000000048792,0.344450137939173
11900.0000000258,18.886043334454,1.00000000068727,0.374855762557827
12000.0000000261,19.5148570482064,1.00000000087087,0.419108531029581
12100.0000000265,20.1386422576377,1.00000000094451,0.454510318360069
12200.0000000269,20.7159007397032,1.00000000100282,0.488109147536205
12300.0000000272,21.2207815579625,1.00000000105396,0.517146465132539
12400.0000000276,21.6556856582855,1.00000000094692,0.533205658890775
12500.0000000279,22.0302968923145,1.00000000094818,0.539958794264937
12600.0000000283,22.3437518911375,1.00000000081096,0.561014018370183
12700.0000000287,22.6003942065464,1.00000000090377,0.576199643202275
12800.000000029,22.8065846146372,1.00000000090708,0.574493354894149
12900.0000000294,22.9646744964646,1.00000000093025,0.575885062309803
13000.0000000298,23.0825090435055,1.00000000084828,0.578386125419957
13100.0000000301,23.1670894313191,1.00000000087252,0.591283710872556
13200.0000000305,23.2138144796492,1.00000000092432,0.598711712839332
13300.0000000309,23.2296188946021,1.00000000085134,0.580910144701257
13400.0000000312,23.2280406469278,1.00000000082707,0.570027219460869
13500.0000000316,23.2036278677334,1.00000000096198,0.56176724440773
13600.0000000319,23.1644615882622,1.00000000080898,0.55670152122305
13700.0000000323,23.1231923006043,1.00000000081107,0.554633311838814
13800.0000000327,23.0708070657685,1.00000000088453,0.567092019739157
13900.000000033,23.0043401939147,1.00000000091808,0.565861636689677
14000.0000000334,22.9272188940913,1.00000000089388,0.58097572106127
14100.0000000338,22.8411619699884,1.00000000088811,0.575624247733935
14200.0000000341,22.7471426965614,1.00000000088942,0.57478548812835
14300.0000000345,22.6471178184992,1.00000000087394,0.577797101286551
14400.0000000349,22.5429720487179,1.00000000084323,0.576784350819308
14500.0000000352,22.4404975961176,1.00000000072911,0.561519029296337
14600.0000000356,22.3451566951456,1.00000000076274,0.548415419987751
14700.0000000359,22.2546634303129,1.00000000081536,0.549261677174127
14800.0000000363,22.1615431848137,1.00000000094978,0.558298889091192
14900.0000000367,22.0665274780063,1.00000000090412,0.565728211489577
15000.000000037,21.9684394895509,1.00000000089966,0.568311049261087
15100.0000000374,21.8638029901746,1.00000000091918,0.571920031097392
15200.0000000378,21.7599600459841,1.00000000080766,0.567180506564703
15300.0000000381,21.6652107938414,1.00000000073801,0.558480055034136
15400.0000000385,21.5832648394213,1.00000000084004,0.554451565262029
15500.0000000389,21.5103945631705,1.0000000008017,0.547609524984104
15600.0000000392,21.444621285794,1.00000000070464,0.549606467028992
15700.0000000396,21.3916313986655,1.0000000006981,0.531675312838571
15800.0000000399,21.3439935233908,1.00000000093779,0.52256105631253
15900.0000000403,21.2921318286529,1.00000000087595,0.524704620791561
16000.0000000407,21.2408047390479,1.00000000076796,0.530332406948976
16100.000000041,21.1974049625752,1.00000000077169,0.539814804275157
16200.0000000414,21.1573512947646,1.00000000088825,0.561969994794775
16300.0000000418,21.1149190822487,1.00000000083426,0.579612906269449
16400.0000000418,21.0699208486107,1.00000000086969,0.58417559270853
16500.0000000404,21.0172031106653,1.00000000088789,0.571703683369551
16600.0000000389,20.9565957051965,1.00000000088989,0.560239949868439
16700.0000000375,20.8964506931083,1.00000000078887,0.55830280006439
16800.000000036,20.8426001545187,1.00000000078121,0.571919410999426
16900.0000000346,20.7862079604834,1.00000000095334,0.581602725365911
17000.0000000331,20.7233380155436,1.00000000092148,0.596036451540841
17100.0000000317,20.6617774318105,1.0000000008244,0.591698788502988
17200.0000000302,20.598723172116,1.00000000086535,0.601573657044378
17300.0000000287,20.5274285096088,1.00000000093122,0.604174968817691
17400.0000000273,20.4518255736883,1.00000000084412,0.596049111483194
17500.0000000258,20.3734089832727,1.00000000088959,0.594854982142626
17600.0000000244,20.290389128396,1.00000000094998,0.602871279946513
17700.0000000229,20.2060025988055,1.00000000084327,0.600253579344076
17800.0000000215,20.1269933674118,1.00000000074272,0.590045549826232
17900.00000002,20.0505948642055,1.00000000089361,0.589296093165292
18000.0000000186,19.971483541229,1.00000000090214,0.585476393517889
18100.0000000171,19.8907007409009,1.00000000087499,0.576412188791196
18200.0000000156,19.8104437150544,1.00000000082055,0.589781293217533
18300.0000000142,19.7318422441602,1.0000000008035,0.59631858228113
18400.0000000127,19.6522784273357,1.00000000079661,0.599419529521759
18500.0000000113,19.5729734620826,1.00000000080856,0.590876191178888
18600.0000000098,19.4957341572447,1.00000000076819,0.593026997884952
18700.0000000084,19.4194487009649,1.00000000084622,0.58629156164205
18800.0000000069,19.3395325094178,1.00000000098443,0.586661011344632
18900.0000000055,19.2560312691544,1.00000000081695,0.590872220652144
19000.000000004,19.1713767514287,1.00000000088748,0.587262653845863
19100.0000000026,19.0852982411838,1.00000000092801,0.590100081975305
19200.0000000011,18.9976987829907,1.00000000086675,0.595894088403685
19299.9999999996,18.90734291418,1.0000000009878,0.613935795508076
19399.9999999982,18.8145361567034,1.00000000103269,0.616491991887988
19499.9999999967,18.7215185154087,1.00000000083417,0.611983912857025
19599.9999999953,18.6302829448781,1.00000000074601,0.593058428281446
19699.9999999938,18.540206575056,1.00000000086883,0.610975595163735
19799.9999999924,18.4479751386079,1.00000000099208,0.616914938069722
19899.9999999909,18.3559440980747,1.00000000086352,0.621196944616583
19999.9999999895,18.2650547845905,1.0000000007673,0.595440571710772
20099.999999988,18.1747455188572,1.00000000076368,0.590852920080686
20199.9999999865,18.0852452306566,1.00000000081108,0.608068040427349
20299.9999999851,17.9967563972777,1.00000000077645,0.611575866188814
20399.9999999836,17.9092563295797,1.00000000074906,0.605712207885803
20499.9999999822,17.8231595001195,1.0000000007745,0.601269415865165
20599.9999999807,17.7389124252066,1.00000000082271,0.607265741694606
20699.9999999793,17.6581251004118,1.00000000083661,0.613167826043444
20799.9999999778,17.5824010094819,1.00000000092109,0.601525771072644
20899.9999999764,17.5145565204904,1.0000000009168,0.611415031137472
20999.9999999749,17.4583710074229,1.00000000100221,0.618459690447434
21099.9999999734,17.4167910418156,1.00000000103295,0.616528393837346
21199.999999972,17.3989136349219,1.0000000010506,0.623085831488958
21299.9999999705,17.4019555958188,1.00000000120971,0.629798493234938
21399.9999999691,17.4424356228034,1.0000000011943,0.632107974138704
21499.9999999676,17.5096626385683,1.00000000118854,0.639069179503328
21599.9999999662,17.6226781695962,1.00000000119686,0.638019769610625
21699.9999999647,17.7600710375449,1.00000000122339,0.630682369683853
21799.9999999633,17.9395982957347,1.0000000013314,0.622136743482825
21899.9999999618,18.1349820571533,1.0000000011871,0.6109488007213
21999.9999999603,18.343959650873,1.00000000105243,0.597981570801664
22099.9999999589,18.5371710228087,1.00000000107112,0.589803072822747
22199.9999999574,18.6989476237231,1.00000000088281,0.574719724160824
22299.999999956,18.8156163516429,1.00000000073556,0.54850062900022
22399.9999999545,18.8765248734424,1.00000000068064,0.52209316048031
22499.9999999531,18.8860930589103,1.00000000064135,0.488909633395905
22599.9999999516,18.8512095392321,1.00000000056909,0.458130560837045
22699.9999999502,18.7861271874946,1.00000000045145,0.427940663385976
22799.9999999487,18.7212692556491,1.00000000038173,0.398560778911545
22899.9999999473,18.6768927945665,1.00000000037006,0.375053839948281
22999.9999999458,18.6907743762572,1.00000000035616,0.353008574545712
23099.9999999443,18.7902761268877,1.00000000034954,0.338476342525531
23199.9999999429,18.9971405790815,1.00000000033565,0.33140698253206
23299.9999999414,19.3473606486018,1.00000000038559,0.329210198738248
23399.99999994,19.8332068266369,1.00000000040509,0.335032220860056
23499.9999999385,20.4812790913063,1.00000000046323,0.344944770047478
23599.9999999371,21.2599013707994,1.00000000060011,0.358802915987024
23699.9999999356,22.1546526753217,1.00000000063708,0.370939733545272
23799.9999999342,23.1463190018489,1.00000000082445,0.386917514558404
23899.9999999327,24.1723421959071,1.00000000083976,0.405830249730956
23999.9999999312,25.2578891434502,1.00000000093185,0.419478020944689
24099.9999999298,26.3166941883719,1.00000000097339,0.439104867102555
24199.9999999283,27.388478850599,1.00000000106639,0.46059009828388
24299.9999999269,28.4056352213945,1.00000000103932,0.470060841729898
24399.9999999254,29.3895457678323,1.00000000108101,0.478870697284017
24499.999999924,30.3126696302501,1.00000000101516,0.499892559909221
24599.9999999225,31.1857355241186,1.00000000096751,0.505209620171987
24699.9999999211,32.0061052187796,1.00000000098477,0.517205062143799
24799.9999999196,32.7555770464611,1.0000000011153,0.527995311642357
24899.9999999181,33.4643495378145,1.00000000095033,0.538326738848774
24999.9999999167,34.1125208212943,1.00000000095306,0.546783562704855
25099.9999999152,34.7245357791682,1.00000000099061,0.558167367312006
25199.9999999138,35.2843246806085,1.0000000009314,0.563683380817828
25299.9999999123,35.8020425375827,1.00000000098065,0.568701959818111
25399.9999999109,36.2811071339178,1.00000000099935,0.590680187845785
25499.9999999094,36.7104194995581,1.0000000009404,0.594382254267576
25599.999999908,37.1170430657392,1.00000000095837,0.59224850064437
25699.9999999065,37.4816764781416,1.00000000097635,0.592036348687494
25799.9999999051,37.8120481751957,1.00000000103712,0.61616600192194
25899.9999999036,38.0875618766832,1.00000000099818,0.628289947563963
25999.9999999021,38.3373365721076,1.00000000095777,0.620769121840988
26099.9999999007,38.5663816675911,1.00000000089349,0.611364492206986
26199.9999998992,38.7711283790387,1.00000000097984,0.609198798060401
26299.9999998978,38.9468699305292,1.00000000100567,0.62281534743757
26399.9999998963,39.0793455417091,1.00000000113732,0.63484408037428
26499.9999998949,39.1852246524853,1.00000000098773,0.637180656763667
26599.9999998934,39.2698123070316,1.00000000095817,0.61967370555604
26699.999999892,39.3522461226771,1.00000000087599,0.603557664253485
26799.9999998905,39.4196540647675,1.00000000101572,0.600614690821874
26899.999999889,39.4666085575356,1.00000000096299,0.618367812827417
26999.9999998876,39.4881039069197,1.00000000095934,0.625197323328636
27099.9999998861,39.4896579030402,1.00000000098121,0.622180265486782
27199.9999998847,39.482236671627,1.00000000089894,0.615658927464345
27299.9999998832,39.4679522459112,1.00000000093217,0.603744172756844
27399.9999998818,39.4526033490808,1.00000000086173,0.603871368939723
27499.9999998803,39.4248013892138,1.00000000101582,0.593620764755945
27599.9999998789,39.3877517904854,1.00000000104452,0.582356889942904
27699.9999998774,39.3421930717783,1.00000000098361,0.591634419880743
27799.9999998759,39.2904654450515,1.00000000099111,0.604477483374216
27899.9999998745,39.2308748405694,1.00000000101681,0.626781640214177
27999.999999873,39.1652720891159,1.00000000091788,0.61560052572157
28099.9999998716,39.1030745172766,1.00000000085752,0.584064665508932
28199.9999998701,39.0462056179196,1.00000000090094,0.580589995080004
28299.9999998687,38.9859450531195,1.00000000100972,0.595264862604986
28399.9999998672,38.9097449284289,1.00000000098607,0.584196515231781
28499.9999998658,38.8259102216697,1.00000000097063,0.583262755057577
28599.9999998643,38.7416655974004,1.00000000080479,0.569360921223521
28699.9999998629,38.6591349960846,1.00000000077746,0.567427723112835
28799.9999998614,38.5739138718117,1.00000000102642,0.591137924828137
28899.9999998599,38.4802453403028,1.00000000113326,0.602340859104043
28999.9999998585,38.3801795127321,1.00000000101949,0.618486952459129
