Time,AGPnorm,Energy,Entropy
0,0,1,-7.3610164734091e-17
99.9999999999986,0.00202986948434143,0.999999999999903,0.00611631393192305
199.999999999993,0.0139693290331103,1.00000000000112,0.0177242704298969
300,0.0272256511846865,1.0000000000019,0.0328440580555255
400.000000000022,0.0408979386395775,1.00000000000102,0.0519771455931235
500.000000000045,0.0570872565534735,0.999999999999159,0.0752259563673255
600.000000000068,0.0783090697077051,1.00000000000031,0.102907336280124
700.000000000091,0.096484651044185,1.00000000000214,0.136081050350173
800.000000000113,0.115663904219723,1.00000000001026,0.177686094130428
900.000000000136,0.133220994480278,1.00000000009774,0.232676453568008
1000.00000000016,0.148665495469509,1.00000000040989,0.296406782157637
1100.0000000001,0.204018304741469,1.00000000083298,0.357886244625879
1200,0.367749644525653,1.00000000139132,0.410535549090365
1299.99999999991,0.708687151795654,1.00000000184668,0.455095377791798
1399.99999999982,1.34412106403815,1.00000000230854,0.490864865626049
1499.99999999973,2.37174608077555,1.00000000251207,0.519463075489977
1599.99999999964,3.81281312610679,1.00000000268017,0.542634553474322
1699.99999999955,5.66511133776139,1.00000000271078,0.561098707727622
1799.99999999946,7.91192797170555,1.00000000276428,0.57374952048615
1899.99999999937,10.4589160655903,1.00000000274367,0.582874957300835
1999.99999999928,13.1914949268761,1.00000000267317,0.590387813030643
2099.99999999919,16.043189300458,1.00000000267415,0.594956856038988
2199.99999999909,18.9583006971391,1.00000000255557,0.596710489562396
2299.999999999,21.8401939449729,1.00000000253343,0.597081627176509
2399.99999999891,24.5869050404033,1.00000000243789,0.596596309644601
2499.99999999882,27.149291886541,1.00000000230913,0.596354489725877
2599.99999999873,29.5121785816142,1.00000000221905,0.593586634587098
2699.99999999864,31.650233914102,1.00000000215369,0.589873231543456
2799.99999999855,33.5265096480346,1.00000000199711,0.58777182075092
2899.99999999846,35.1210723818721,1.00000000183982,0.587390140071147
2999.99999999837,36.4410013981085,1.00000000196687,0.585877422287483
3099.99999999828,37.503988342102,1.00000000178428,0.583817938391424
3199.99999999819,38.3175927047891,1.00000000181567,0.58116414671819
3299.99999999809,38.8894369299861,1.00000000161716,0.578606701289697
3399.999999998,39.2384518879561,1.00000000157668,0.579849573827121
3499.99999999791,39.3932370859005,1.00000000151766,0.572362264002231
3599.99999999782,39.3881759016619,1.00000000162011,0.578684328785329
3699.99999999773,39.2318579841193,1.00000000147863,0.566948919997665
3799.99999999764,38.9721810703968,1.00000000160709,0.571227410077825
3899.99999999755,38.5954583238816,1.00000000157505,0.565447862606689
3999.99999999746,38.1702757004828,1.00000000157676,0.562416409405335
4099.99999999738,37.6632408661721,1.00000000148982,0.549404554694724
4199.99999999775,37.1419292072436,1.00000000169129,0.561868855768555
4299.99999999811,36.5744743195021,1.0000000013181,0.528239038545316
4399.99999999848,35.9879198303434,1.00000000201155,0.578360411066075
4499.99999999884,35.4027650220024,1.00000000132613,0.524540178402736
4599.9999999992,34.790306354128,1.00000000162359,0.535062482173303
4699.99999999957,34.1968809192296,1.00000000200691,0.557466454571978
4799.99999999993,33.6050964082212,1.00000000136504,0.511094828627411
4900.00000000029,33.0025434504386,1.00000000166098,0.530257221437021
5000.00000000066,32.421261704705,1.00000000193924,0.546361475060673
5100.00000000102,31.853305031567,1.00000000135402,0.501150180509566
5200.00000000139,31.2860746644367,1.00000000157311,0.520190220111546
5300.00000000175,30.7310539808008,1.00000000197875,0.541485191781947
5400.00000000211,30.1949957905873,1.00000000163332,0.509294581953005
5500.00000000248,29.671131673074,1.00000000141234,0.509849113575182
5600.00000000284,29.1576556735379,1.00000000169119,0.530971447517441
5700.00000000321,28.6589340503314,1.00000000172717,0.525898594702069
5800.00000000357,28.1760138795737,1.00000000170276,0.517713835131603
5900.00000000393,27.7100110114786,1.0000000013771,0.499054308648493
6000.0000000043,27.2582047451646,1.00000000178264,0.543119328312264
6100.00000000466,26.8212410784086,1.00000000153527,0.516116603769638
6200.00000000502,26.4001688695653,1.00000000172959,0.518980858006678
6300.00000000539,25.9927122560609,1.00000000166913,0.512531597286389
6400.00000000575,25.6044643528666,1.00000000132967,0.506758260699987
6500.00000000612,25.2297060434462,1.00000000179847,0.545269620510301
6600.00000000648,24.8660220452109,1.00000000155873,0.532904611810039
6700.00000000684,24.5214126610945,1.00000000155663,0.503805172817628
6800.00000000721,24.1893144349844,1.00000000181924,0.528026706478763
6900.00000000757,23.8686233191604,1.00000000160972,0.505426161830998
7000.00000000793,23.5651498580297,1.00000000161843,0.521300620964161
7100.0000000083,23.2709420588544,1.000000001874,0.541384149102093
7200.00000000866,22.9820695647584,1.0000000016746,0.536838024746955
7300.00000000903,22.7101317319762,1.00000000148145,0.51016577651114
7400.00000000939,22.4523936992013,1.00000000164895,0.520227739103553
7500.00000000975,22.2044545155926,1.00000000181731,0.526409210194805
7600.00000001012,21.9678182509542,1.00000000160485,0.512390121496484
7700.00000001048,21.7434696878206,1.00000000165232,0.533690357016533
7800.00000001084,21.5268426634839,1.00000000161601,0.546311593536222
7900.00000001121,21.3141914924307,1.00000000178944,0.538065176443215
8000.00000001157,21.1072024229968,1.00000000168402,0.546597397817885
8100.00000001194,20.9100699801052,1.00000000163454,0.538301330219357
8200.0000000123,20.7254812560832,1.00000000154454,0.524195901134531
8300.00000001266,20.5552321046887,1.00000000171473,0.543786781481683
8400.00000001303,20.3934803000308,1.00000000171435,0.537311264565707
8500.00000001339,20.2407263474394,1.00000000161337,0.535360202354908
8600.00000001376,20.0932796738527,1.00000000175547,0.555313202833739
8700.00000001412,19.9490611976422,1.0000000015976,0.553906445447859
8800.00000001448,19.8171042633321,1.00000000158638,0.544933673685027
8900.00000001485,19.6854001664681,1.00000000179622,0.55287467319435
9000.00000001521,19.548013478708,1.00000000186396,0.566380477173018
9100.00000001557,19.4128862341841,1.00000000162447,0.553485903132358
9200.00000001594,19.2932484016621,1.00000000152224,0.535875227336384
9300.0000000163,19.186552557924,1.00000000173452,0.557327220013126
9400.00000001667,19.0863135875168,1.00000000164532,0.553823056440203
9500.00000001703,18.9927715812553,1.00000000177621,0.550439028500306
9600.00000001739,18.905572207968,1.00000000162035,0.55593350582581
9700.00000001776,18.8208342136606,1.000000001762,0.561624075997262
9800.00000001812,18.7340321106502,1.00000000174845,0.565919096146227
9900.00000001848,18.6535183346317,1.00000000156735,0.554757384396811
10000.0000000188,18.5826173554935,1.00000000167003,0.562788870334547
10100.0000000192,18.50816231209,1.00000000181566,0.572798115576885
10200.0000000196,18.4279979964012,1.00000000174577,0.566338295680405
10300.0000000199,18.3441967453122,1.00000000176796,0.576171506656127
10400.0000000203,18.2620492240321,1.00000000165362,0.582378738812607
10500.0000000207,18.1862996383368,1.00000000167287,0.571173561156034
10600.000000021,18.1196980655017,1.00000000174639,0.57912548378316
10700.0000000214,18.060320485846,1.00000000177284,0.575391045837051
10800.0000000218,18.0121966297644,1.00000000166326,0.563706071764007
10900.0000000221,17.9719337040908,1.0000000017112,0.56205537016558
11000.0000000225,17.9339352347429,1.00000000187593,0.58012492689256
11100.0000000229,17.8944221551905,1.00000000178246,0.584443727955366
11200.0000000232,17.857114569555,1.0000000016993,0.577729304926714
11300.0000000236,17.8216743561595,1.00000000175915,0.582349625327825
11400.0000000239,17.784344738378,1.00000000172862,0.583677704609235
11500.0000000243,17.748287009032,1.00000000170386,0.581895463076189
11600.0000000247,17.7165830415584,1.00000000171798,0.585755073268706
11700.000000025,17.6845470106355,1.00000000173402,0.584690483478994
11800.0000000254,17.6541825193411,1.00000000178224,0.585548921682841
11900.0000000258,17.6173547168489,1.00000000194632,0.594572035364669
12000.0000000261,17.5707177474782,1.0000000019011,0.603007800825767
12100.0000000265,17.5174358535776,1.00000000184852,0.615634153468302
12200.0000000269,17.464885891444,1.00000000163458,0.606288148402573
12300.0000000272,17.4201311716387,1.00000000162684,0.596647115214857
12400.0000000276,17.3861001483427,1.00000000174393,0.593411524543533
12500.0000000279,17.3621121884748,1.00000000168573,0.584058586169714
12600.0000000283,17.3489193105297,1.00000000171303,0.575262646522479
12700.0000000287,17.3426284644205,1.00000000172541,0.584902324650127
12800.000000029,17.3370235731079,1.00000000187705,0.589351643362196
12900.0000000294,17.3290823772187,1.00000000173764,0.592561480787174
13000.0000000298,17.3227914671772,1.00000000180896,0.597239019903123
13100.0000000301,17.3169472799804,1.00000000177674,0.596412626443506
13200.0000000305,17.3140405492854,1.00000000172701,0.595030287190011
13300.0000000309,17.3124400448273,1.00000000182691,0.593732687191794
13400.0000000312,17.3030070003553,1.00000000207908,0.602135956847609
13500.0000000316,17.2912284756458,1.00000000179755,0.59807265000768
13600.0000000319,17.2854194143245,1.0000000017189,0.594605723672808
13700.0000000323,17.2839852332263,1.0000000017586,0.604454888366753
13800.0000000327,17.2820064418518,1.00000000181422,0.614723144951073
13900.000000033,17.2750907553494,1.00000000191646,0.614475500531067
14000.0000000334,17.2655063461456,1.00000000175654,0.622629656403982
14100.0000000338,17.2548006940962,1.00000000178359,0.618019432128683
14200.0000000341,17.2387835610961,1.00000000198793,0.620621650597017
14300.0000000345,17.2154470427893,1.00000000202286,0.622867805878085
14400.0000000349,17.184681979774,1.00000000202579,0.617365676146261
14500.0000000352,17.1475759176775,1.00000000194812,0.622794455320888
14600.0000000356,17.1097932233965,1.00000000180099,0.618202953188415
14700.0000000359,17.0763926635225,1.00000000182796,0.615044906797725
14800.0000000363,17.051867101528,1.00000000171789,0.607135771001128
14900.0000000367,17.0367517550026,1.00000000178216,0.602712839620128
15000.000000037,17.0279552888455,1.00000000186739,0.602882495838354
15100.0000000374,17.0286359946309,1.00000000181804,0.598614823646477
15200.0000000378,17.0383231138628,1.00000000183263,0.589613771294205
15300.0000000381,17.0518630803847,1.0000000019305,0.596300279866754
15400.0000000385,17.0647061153403,1.00000000193533,0.608456239573068
15500.0000000389,17.0789066899195,1.00000000182344,0.609139236126042
15600.0000000392,17.0906039232111,1.0000000019088,0.607671861322085
15700.0000000396,17.1050775544505,1.00000000174269,0.601374999806942
15800.0000000399,17.1247800364433,1.00000000189414,0.598232489735687
15900.0000000403,17.1399738702445,1.00000000201308,0.604999291880757
16000.0000000407,17.1497693185639,1.00000000204659,0.616474271834952
16100.000000041,17.1598386514297,1.00000000184949,0.611933235340481
16200.0000000414,17.1712744720314,1.00000000195148,0.610526812163895
16300.0000000418,17.1793438486375,1.00000000206846,0.6095382694389
16400.0000000418,17.1871541118376,1.00000000188097,0.602349144772528
16500.0000000404,17.1947923424691,1.00000000201837,0.597857206465046
16600.0000000389,17.2057425409678,1.00000000180278,0.60144582193877
16700.0000000375,17.2207977204754,1.00000000192191,0.614004301304892
16800.000000036,17.2336742386801,1.0000000020238,0.62086055589597
16900.0000000346,17.2441070127417,1.00000000194889,0.63385662885458
17000.0000000331,17.253872744574,1.00000000195831,0.638334735868665
17100.0000000317,17.258587699643,1.00000000210325,0.635794434794056
17200.0000000302,17.2561656426855,1.00000000210401,0.636334735968181
17300.0000000287,17.2526063321819,1.00000000190493,0.636597552296465
17400.0000000273,17.2473796205334,1.00000000198578,0.644529354879101
17500.0000000258,17.2413272725688,1.00000000192095,0.647120076040587
17600.0000000244,17.2354982575679,1.00000000191682,0.647668529029729
17700.0000000229,17.2266763643007,1.00000000201324,0.651600563909255
17800.0000000215,17.2110288868904,1.00000000202772,0.647480275578174
17900.00000002,17.1924256704048,1.00000000204922,0.634239353837043
18000.0000000186,17.1699930759308,1.00000000217493,0.636536561799666
18100.0000000171,17.139853121888,1.00000000213314,0.628107882243545
18200.0000000156,17.1051374384633,1.00000000208535,0.631764578954896
18300.0000000142,17.072276195323,1.00000000195871,0.632512227355895
18400.0000000127,17.0446036465831,1.00000000184353,0.625968398909324
18500.0000000113,17.0257246582306,1.00000000190473,0.618211093899361
18600.0000000098,17.016482282979,1.00000000200353,0.61604781008875
18700.0000000084,17.0134100922944,1.00000000205721,0.623897872489417
18800.0000000069,17.0165126945907,1.00000000195294,0.616419263284767
18900.0000000055,17.0286562550832,1.00000000194205,0.612039931649665
19000.000000004,17.0497207105669,1.00000000197753,0.605727034400215
19100.0000000026,17.0757647122151,1.0000000020692,0.611687829603321
19200.0000000011,17.1003360519755,1.00000000215547,0.607603647361674
19299.9999999996,17.1262195277234,1.00000000205709,0.616686955201308
19399.9999999982,17.1533169510619,1.00000000212204,0.616356046078171
19499.9999999967,17.1803538830723,1.00000000205054,0.621174331493066
19599.9999999953,17.2114023062896,1.00000000189448,0.619392655600879
19699.9999999938,17.2451355349303,1.00000000212259,0.606841028191314
19799.9999999924,17.2753689650863,1.00000000227222,0.606084772723859
19899.9999999909,17.3038208372011,1.00000000204324,0.61478522585007
19999.9999999895,17.3357146128891,1.00000000200764,0.611785991535192
20099.999999988,17.3635281186793,1.00000000216871,0.619262299994798
20199.9999999865,17.3858507537272,1.00000000226846,0.622461431735096
20299.9999999851,17.4053705153307,1.00000000202628,0.616093140015419
20399.9999999836,17.427847682621,1.00000000193168,0.614779010730589
20499.9999999822,17.4548099154146,1.00000000208149,0.618261186628839
20599.9999999807,17.4821861689336,1.0000000021531,0.623118293223664
20699.9999999793,17.5068397477995,1.00000000218577,0.626773372349525
20799.9999999778,17.5308200481972,1.00000000217642,0.630571553711301
20899.9999999764,17.5567605082571,1.00000000213228,0.64197212181538
20999.9999999749,17.5839300115286,1.00000000207852,0.646292287975572
21099.9999999734,17.6079949523864,1.00000000237952,0.645311938583685
21199.999999972,17.6263361083412,1.000000002265,0.645347212699737
21299.9999999705,17.6435290740888,1.00000000210504,0.640319002678858
21399.9999999691,17.6578320160834,1.0000000023462,0.651453124325591
21499.9999999676,17.6721459729598,1.00000000214405,0.654086916705847
21599.9999999662,17.6910127105288,1.00000000205044,0.649166442647334
21699.9999999647,17.7114663637226,1.00000000222055,0.655784377553339
21799.9999999633,17.7304586270859,1.00000000212872,0.65764483497676
21899.9999999618,17.7493975256775,1.00000000206553,0.662271724253713
21999.9999999603,17.7688000226098,1.00000000218827,0.660305446315638
22099.9999999589,17.7851808684418,1.00000000225893,0.659220290004204
22199.9999999574,17.7981648902115,1.00000000225199,0.655413709296664
22299.999999956,17.8095739517327,1.00000000218478,0.658200043811973
22399.9999999545,17.8185457713982,1.00000000230638,0.654310228957013
22499.9999999531,17.8265940930312,1.0000000020932,0.653990244587722
22599.9999999516,17.8336780068689,1.00000000227098,0.663167337926068
22699.9999999502,17.8395490805702,1.00000000222088,0.660726519132853
22799.9999999487,17.8420872762025,1.00000000219322,0.660001434510676
22899.9999999473,17.8428472346853,1.00000000220867,0.656588267006181
22999.9999999458,17.8424061236014,1.0000000023219,0.666432361147904
23099.9999999443,17.8394759791028,1.00000000218487,0.663799815258495
23199.9999999429,17.8343583871934,1.00000000220536,0.660307735161846
23299.9999999414,17.8290184302064,1.00000000216484,0.66526652457517
23399.99999994,17.8224687270191,1.00000000223717,0.677374189018167
23499.9999999385,17.8141764317685,1.00000000219944,0.674497970909004
23599.9999999371,17.8046574871573,1.00000000214543,0.668356396738623
23699.9999999356,17.7930547317869,1.00000000224512,0.66579095461968
23799.9999999342,17.7775559158673,1.0000000023361,0.667825390387725
23899.9999999327,17.7594216147503,1.00000000237761,0.676394509964179
23999.9999999312,17.7375810189714,1.00000000229211,0.669863730649033
24099.9999999298,17.7156803555304,1.00000000230868,0.667613744027595
24199.9999999283,17.6911411874493,1.00000000238324,0.681474611089717
24299.9999999269,17.6658357300756,1.00000000217606,0.679543453401043
24399.9999999254,17.6426893315713,1.00000000227087,0.677152251565089
24499.999999924,17.6214432054605,1.00000000218002,0.671325150858409
24599.9999999225,17.6040812177944,1.00000000219987,0.66478502952441
24699.9999999211,17.5934451071032,1.00000000220001,0.650403662838801
24799.9999999196,17.5902351672038,1.00000000216095,0.637895591633803
24899.9999999181,17.5917853858631,1.00000000227724,0.640223431646485
24999.9999999167,17.5984512854471,1.00000000228518,0.638995093863146
25099.9999999152,17.6112568100441,1.00000000209744,0.639912863908296
25199.9999999138,17.6314398808286,1.00000000221754,0.636610796265395
25299.9999999123,17.6589958977584,1.00000000234232,0.635522949360962
25399.9999999109,17.6922500342534,1.00000000231759,0.633160686247451
25499.9999999094,17.730488879418,1.00000000238342,0.640130769125229
25599.999999908,17.7694345164419,1.00000000233411,0.636782152846894
25699.9999999065,17.8091229273231,1.00000000238555,0.642268697792391
25799.9999999051,17.8485117878024,1.00000000236565,0.640821564191049
25899.9999999036,17.8882871715772,1.00000000227691,0.636443303031137
25999.9999999021,17.9321405853992,1.00000000224797,0.634306006198909
26099.9999999007,17.9788145108579,1.00000000234733,0.636075587199376
26199.9999998992,18.0269772014435,1.00000000223908,0.638756283161433
26299.9999998978,18.0793978249542,1.00000000220687,0.635506459186069
26399.9999998963,18.1328316631246,1.00000000249989,0.638601814651886
26499.9999998949,18.1834728124959,1.00000000245662,0.645556132873111
26599.9999998934,18.2336482659011,1.00000000231661,0.638308565184086
26699.999999892,18.2814659096883,1.00000000243112,0.641726078815138
26799.9999998905,18.3284167069057,1.00000000228701,0.643385974975089
26899.999999889,18.3744643704578,1.00000000244097,0.647647144104999
26999.9999998876,18.4181097226364,1.00000000237828,0.635257363553328
27099.9999998861,18.4630752996477,1.00000000233828,0.633300542305517
27199.9999998847,18.5062461680536,1.00000000257274,0.640025671822308
27299.9999998832,18.5489969299204,1.00000000242463,0.643901426970228
27399.9999998818,18.5923437327271,1.00000000250016,0.646669904002223
27499.9999998803,18.6358700693517,1.00000000245645,0.647123274794843
27599.9999998789,18.6836218052766,1.00000000238565,0.655483861471139
27699.9999998774,18.7338416029454,1.00000000239214,0.65677540864127
27799.9999998759,18.7846285353024,1.0000000024858,0.658837233584174
27899.9999998745,18.8336808434483,1.00000000256258,0.657607790924145
27999.999999873,18.8797705944223,1.00000000241113,0.664602507844755
28099.9999998716,18.9248144200293,1.00000000241697,0.663143831776993
28199.9999998701,18.9674715732831,1.00000000246378,0.670952778260342
28299.9999998687,19.0062520894185,1.00000000247893,0.662830562107895
28399.9999998672,19.0436130337875,1.00000000244214,0.66561758720932
28499.9999998658,19.0789940385499,1.00000000246315,0.675327804845274
28599.9999998643,19.1152598311311,1.00000000240548,0.680064513550165
28699.9999998629,19.1513651790491,1.00000000250752,0.683865202952194
28799.9999998614,19.1832311520725,1.00000000264821,0.683427056088692
28899.9999998599,19.2106885662414,1.00000000249731,0.689081638971807
28999.9999998585,19.2393362020291,1.00000000246003,0.682301039241197
