Time,AGPnorm,Energy,Entropy
0,0,1,-1.06513931251846e-17
99.9999999999986,2.26511399525222e-05,1.00000000000127,0.00098010779725831
199.999999999993,0.0019506839269568,1.00000000000036,0.00154097653454455
300,0.00498241466526088,1.00000000000054,0.00274698856200225
400.000000000022,0.00686743063754851,1.00000000000118,0.00467146567834282
500.000000000045,0.00830742728650696,0.999999999999946,0.00629402240895539
600.000000000068,0.011978161266569,1.00000000000121,0.00878411913555385
700.000000000091,0.0149522332623727,1.00000000000051,0.0112036009146318
800.000000000113,0.019105221243977,1.00000000000039,0.0138529853106328
900.000000000136,0.0236758625111431,1.00000000000127,0.0170148312171079
1000.00000000016,0.0276211950932686,0.999999999999928,0.0199984875603122
1100.0000000001,0.0333137343331772,1.00000000000114,0.0234909356246814
1200,0.0390874484667538,1.00000000000069,0.027064694838055
1299.99999999991,0.0448767020255516,1.00000000000019,0.0307703730256087
1399.99999999982,0.0512357477174507,1.00000000000133,0.0348651685603574
1499.99999999973,0.0576444982077907,0.999999999999999,0.038895023457218
1599.99999999964,0.0650576564146947,1.00000000000104,0.0433017916519936
1699.99999999955,0.0725825820905112,1.00000000000083,0.0478673657318101
1799.99999999946,0.0798106398912735,0.999999999999995,0.0525366674673667
1899.99999999937,0.0877516294675013,1.0000000000014,0.0575425437148497
1999.99999999928,0.0961171502327819,1.00000000000015,0.0626041753699913
2099.99999999919,0.104621278155814,1.00000000000084,0.0679986720312257
2199.99999999909,0.113149400719534,1.00000000000096,0.0736044415863797
2299.999999999,0.121586461234224,0.999999999999889,0.079336734820701
2399.99999999891,0.130716015827839,1.00000000000146,0.08545524206683
2499.99999999882,0.140202322187289,1.00000000000032,0.0917397198871498
2599.99999999873,0.14922403407926,1.00000000000055,0.0983848906217269
2699.99999999864,0.158247056980142,1.00000000000114,0.105329830567606
2799.99999999855,0.167621290392438,0.999999999999931,0.11253191441558
2899.99999999846,0.177307839517144,1.00000000000149,0.12028066607198
2999.99999999837,0.187052900821629,1.00000000000049,0.128400279103796
3099.99999999828,0.196172905950816,1.00000000000038,0.137030219171312
3199.99999999819,0.205486470435419,1.00000000000164,0.146305338394318
3299.99999999809,0.21526637489427,1.00000000000082,0.156221030570901
3399.999999998,0.225118271766924,1.00000000000331,0.16711930299395
3499.99999999791,0.234196336523545,1.00000000000488,0.178878444437816
3599.99999999782,0.243296912202167,1.00000000000938,0.191500561905761
3699.99999999773,0.253597169697518,1.00000000001878,0.205115690196597
3799.99999999764,0.262170413173324,1.00000000002927,0.219299188748946
3899.99999999755,0.275295172607466,1.00000000004693,0.234024611985705
3999.99999999746,0.286414985553687,1.00000000006633,0.248806972081686
4099.99999999738,0.301863348809105,1.00000000008588,0.263510681216179
4199.99999999775,0.330285881753592,1.00000000012051,0.27816141822777
4299.99999999811,0.358853330702749,1.00000000014345,0.292534078414592
4399.99999999848,0.414529716618079,1.00000000018508,0.306526911673239
4499.99999999884,0.488969255652724,1.00000000021116,0.320177368688586
4599.9999999992,0.591780753076118,1.00000000025032,0.3334248493791
4699.99999999957,0.751009750131726,1.00000000028969,0.346421390604532
4799.99999999993,0.947823110673749,1.00000000029471,0.35905093823531
4900.00000000029,1.2236806001365,1.00000000033159,0.371059292502593
5000.00000000066,1.58046582163459,1.00000000037932,0.382624230514394
5100.00000000102,2.02274070917541,1.0000000004121,0.393903302839799
5200.00000000139,2.59170122820189,1.0000000004324,0.404779356919605
5300.00000000175,3.27207530259148,1.00000000047258,0.414957962466345
5400.00000000211,4.09924282566953,1.00000000048259,0.424964217547079
5500.00000000248,5.08458415023108,1.00000000051758,0.434434846534343
5600.00000000284,6.22724529090807,1.00000000056158,0.443519705356478
5700.00000000321,7.56242889262283,1.00000000056375,0.452283331520528
5800.00000000357,9.08199929656848,1.00000000059017,0.460383781100874
5900.00000000393,10.8054044043356,1.00000000061869,0.468233418526745
6000.0000000043,12.741754443457,1.00000000061664,0.475855019338731
6100.00000000466,14.8914521274261,1.00000000061313,0.48285962658319
6200.00000000502,17.2702017064123,1.00000000062357,0.489602965206469
6300.00000000539,19.8716874665304,1.00000000066334,0.495757372349278
6400.00000000575,22.7063328849971,1.00000000069205,0.501672601036515
6500.00000000612,25.7684329142012,1.00000000067338,0.507534926260746
6600.00000000648,29.0633828166059,1.00000000068409,0.512636999602066
6700.00000000684,32.5885670325939,1.00000000069427,0.517733028559158
6800.00000000721,36.3312543265346,1.00000000067425,0.522547234067049
6900.00000000757,40.3039975000192,1.00000000072026,0.5268106348206
7000.00000000793,44.4821192424413,1.00000000072782,0.531049283848736
7100.0000000083,48.8724243665455,1.00000000070181,0.53477295828372
7200.00000000866,53.4663532387444,1.00000000070263,0.538513734417457
7300.00000000903,58.2377496851506,1.00000000069808,0.542073869342626
7400.00000000939,63.2062623150197,1.00000000072076,0.545033475343386
7500.00000000975,68.3350113407108,1.00000000069391,0.548119769206515
7600.00000001012,73.6257865427404,1.00000000070421,0.550670285598015
7700.00000001048,79.0748812710155,1.00000000072194,0.553328641712219
7800.00000001084,84.6421900890972,1.00000000069075,0.555943541886908
7900.00000001121,90.3531515450024,1.00000000071523,0.557663108870237
8000.00000001157,96.169924564715,1.00000000070999,0.559862492012228
8100.00000001194,102.081957805638,1.00000000071414,0.561817883035311
8200.0000000123,108.09834351772,1.00000000069955,0.563410540105159
8300.00000001266,114.169775273328,1.00000000068569,0.565200515532805
8400.00000001303,120.321118843132,1.0000000006512,0.566410895873731
8500.00000001339,126.522740251053,1.0000000006948,0.567764721400634
8600.00000001376,132.751062482891,1.00000000069492,0.569147670840204
8700.00000001412,139.027731323908,1.00000000066458,0.569844705145777
8800.00000001448,145.301494336825,1.00000000067819,0.570999405253154
8900.00000001485,151.590548017228,1.00000000065757,0.571727856981428
9000.00000001521,157.879538136283,1.00000000066495,0.572305198213859
9100.00000001557,164.134801746115,1.00000000065615,0.573417721195825
9200.00000001594,170.384160268106,1.00000000063631,0.573426323119454
9300.0000000163,176.582314796597,1.00000000064796,0.574246453129678
9400.00000001667,182.738456858826,1.00000000063324,0.574594152521556
9500.00000001703,188.850395657479,1.00000000063726,0.574842069146871
9600.00000001739,194.880178186498,1.00000000062013,0.575418263099997
9700.00000001776,200.856274709628,1.00000000061955,0.575249926736702
9800.00000001812,206.745921651213,1.0000000006306,0.575583590816198
9900.00000001848,212.546030221576,1.00000000060045,0.575615593690315
10000.0000000188,218.267479534381,1.00000000060554,0.575913256292
10100.0000000192,223.871837776011,1.00000000058541,0.57550115052931
10200.0000000196,229.384219751217,1.00000000058535,0.575877022655819
10300.0000000199,234.784813070795,1.00000000057204,0.57542063063891
10400.0000000203,240.061590701298,1.00000000055426,0.5754952575828
10500.0000000207,245.233997170205,1.00000000056931,0.57572610564645
10600.000000021,250.267304454502,1.00000000056242,0.574659976238207
10700.0000000214,255.180588930582,1.0000000005401,0.575353268508515
10800.0000000218,259.967247135816,1.00000000054328,0.574828882299608
10900.0000000221,264.608290553495,1.00000000054663,0.573996395341988
11000.0000000225,269.125886715516,1.0000000005424,0.57483685034398
11100.0000000229,273.494388201573,1.00000000052122,0.573719321994146
11200.0000000232,277.724509914793,1.00000000052042,0.573386919612043
11300.0000000236,281.817400007449,1.00000000052187,0.573837809902505
11400.0000000239,285.756879774539,1.00000000050432,0.572728524766931
11500.0000000243,289.559937176154,1.00000000051568,0.572397966425397
11600.0000000247,293.21092317547,1.00000000050361,0.572733854369679
11700.000000025,296.717117458525,1.00000000048408,0.571418992325879
11800.0000000254,300.08090276257,1.0000000004783,0.571537285472761
11900.0000000258,303.289065177756,1.00000000049462,0.571190674396396
12000.0000000261,306.359421805566,1.00000000048858,0.570085014121298
12100.0000000265,309.277785097678,1.00000000047725,0.570372952168833
12200.0000000269,312.051847627866,1.00000000046206,0.570116324995715
12300.0000000272,314.686656539168,1.00000000045463,0.56924424342278
12400.0000000276,317.168736517347,1.00000000046335,0.569518606792481
12500.0000000279,319.516415840181,1.00000000045405,0.568080436145874
12600.0000000283,321.719424381578,1.00000000045948,0.567843239364737
12700.0000000287,323.781686967693,1.00000000044137,0.56880234203582
12800.000000029,325.713324116975,1.00000000043855,0.56765862064049
12900.0000000294,327.50018921829,1.00000000042773,0.566696185240571
13000.0000000298,329.159195525543,1.00000000042647,0.566592052042662
13100.0000000301,330.685520109937,1.00000000042875,0.566665387101751
13200.0000000305,332.079745031594,1.00000000041245,0.567588119777807
13300.0000000309,333.3543230207,1.00000000041053,0.566438710590272
13400.0000000312,334.498207169271,1.00000000039775,0.563673791280383
13500.0000000316,335.520419208781,1.00000000038536,0.564171244818693
13600.0000000319,336.423778897633,1.00000000041084,0.568034577804832
13700.0000000323,337.212583994264,1.00000000040139,0.568117885777879
13800.0000000327,337.896334195484,1.00000000039583,0.563116058424377
13900.000000033,338.460703068585,1.00000000037924,0.559922055311969
14000.0000000334,338.914534037568,1.00000000037931,0.563175056254159
14100.0000000338,339.268157781681,1.00000000040314,0.569222141464564
14200.0000000341,339.528293376002,1.00000000040425,0.568755767343158
14300.0000000345,339.702069722076,1.00000000038709,0.561105758746956
14400.0000000349,339.771979553558,1.00000000035714,0.554283825931784
14500.0000000352,339.741977889551,1.00000000033879,0.559068105456177
14600.0000000356,339.628188877345,1.0000000003899,0.569917428869426
14700.0000000359,339.446070088267,1.00000000042597,0.571147582133834
14800.0000000363,339.201056508382,1.00000000037871,0.56119792199499
14900.0000000367,338.871931306961,1.000000000344,0.548640712281105
15000.000000037,338.453272678376,1.00000000032871,0.549400178403213
15100.0000000374,337.959966832236,1.00000000039421,0.565406417611837
15200.0000000378,337.416376692151,1.00000000042078,0.573835611730571
15300.0000000381,336.838702413504,1.00000000043001,0.56880329665051
15400.0000000385,336.208004907673,1.00000000035824,0.548542706672479
15500.0000000389,335.503065671324,1.00000000031294,0.539309688909854
15600.0000000392,334.724791972018,1.00000000031714,0.545393557751748
15700.0000000396,333.894563457991,1.00000000041443,0.568413155500225
15800.0000000399,333.046068468874,1.00000000045599,0.576848141872588
15900.0000000403,332.181480717598,1.00000000044301,0.565272419817618
16000.0000000407,331.28013129443,1.00000000034559,0.5412402195737
16100.000000041,330.317529186857,1.000000000292,0.526391452737393
16200.0000000414,329.289159952701,1.00000000030537,0.534807821972244
16300.0000000418,328.225905143271,1.00000000043739,0.564034772589537
16400.0000000418,327.157867139783,1.00000000048952,0.580503511895466
16500.0000000404,326.093984910046,1.00000000046208,0.56890070622706
16600.0000000389,325.016354785009,1.00000000038477,0.541701646429885
16700.0000000375,323.894297115826,1.00000000029058,0.517885905677113
16800.000000036,322.717966035576,1.00000000026852,0.513474751995577
16900.0000000346,321.500130006283,1.00000000037055,0.542988904941022
17000.0000000331,320.275324983193,1.00000000048593,0.575405847443638
17100.0000000317,319.069091400855,1.00000000052811,0.580171294738155
17200.0000000302,317.872869790699,1.00000000047017,0.558478249156229
17300.0000000287,316.666684865041,1.00000000036263,0.526693376845732
17400.0000000273,315.423332043943,1.00000000027018,0.50233488504458
17500.0000000258,314.135163598742,1.00000000027223,0.504351414522245
17600.0000000244,312.821202925559,1.00000000037057,0.536798101258428
17700.0000000229,311.508066154147,1.00000000050045,0.573242502119373
17800.0000000215,310.218389057731,1.00000000056979,0.581652690373928
17900.00000002,308.950558537204,1.00000000050228,0.562682055263049
18000.0000000186,307.68353856782,1.00000000037854,0.527781072781083
18100.0000000171,306.396740144131,1.00000000028528,0.49869484733445
18200.0000000156,305.07566984969,1.00000000025897,0.491662823857369
18300.0000000142,303.729334425716,1.00000000032731,0.510845335843035
18400.0000000127,302.376894068654,1.00000000044349,0.549364525584518
18500.0000000113,301.03938425794,1.00000000053222,0.57729158638538
18600.0000000098,299.729235311781,1.00000000054594,0.576155902285373
18700.0000000084,298.438645258003,1.00000000046868,0.551236603343758
18800.0000000069,297.150406551325,1.00000000035508,0.516229079525958
18900.0000000055,295.848630166143,1.0000000002873,0.492210818703907
19000.000000004,294.524723168956,1.000000000282,0.487871726039376
19100.0000000026,293.185426007499,1.00000000031749,0.502847388027954
19200.0000000011,291.841330089901,1.00000000041449,0.534231784643883
19299.9999999996,290.509901762068,1.00000000051087,0.565714563619509
19399.9999999982,289.201844599794,1.00000000056592,0.573166059243985
19499.9999999967,287.914827343933,1.0000000005227,0.557349040759382
19599.9999999953,286.640451158947,1.00000000043041,0.528371958266709
19699.9999999938,285.365535233107,1.00000000034177,0.501107775809343
19799.9999999924,284.082195478718,1.00000000030675,0.487791329500144
19899.9999999909,282.78904915101,1.00000000030024,0.49017114341664
19999.9999999895,281.488340490557,1.0000000003352,0.503846928754299
20099.999999988,280.190485116637,1.00000000040298,0.528138318203404
20199.9999999865,278.904008134333,1.00000000048159,0.552138980326281
20299.9999999851,277.634897400687,1.00000000053185,0.562730913040137
20399.9999999836,276.384575660908,1.00000000049322,0.552113385530429
20499.9999999822,275.146924162353,1.00000000044286,0.532096440400289
20599.9999999807,273.91622277607,1.00000000037625,0.509896039797829
20699.9999999793,272.686128418413,1.00000000033913,0.495024284474505
20799.9999999778,271.454274232073,1.00000000032248,0.491873013063167
20899.9999999764,270.221730269385,1.0000000003303,0.497158567387264
20999.9999999749,268.989838388386,1.00000000037534,0.507999680870021
21099.9999999734,267.764315006411,1.00000000041723,0.522433283838486
21199.999999972,266.549005708356,1.00000000046368,0.536596087159691
21299.9999999705,265.346363263265,1.00000000049644,0.546620684710548
21399.9999999691,264.157867041447,1.00000000048495,0.543788987655476
21499.9999999676,262.980988709941,1.00000000045932,0.532004508628291
21599.9999999662,261.813050106689,1.00000000043273,0.517962061969222
21699.9999999647,260.6515154831,1.00000000037109,0.505687599929565
21799.9999999633,259.494085031969,1.00000000033454,0.499745826704182
21899.9999999618,258.34151725634,1.00000000034839,0.501327569302101
21999.9999999603,257.192939118492,1.00000000035766,0.503926702216772
22099.9999999589,256.050448602956,1.00000000036514,0.508072277063952
22199.9999999574,254.914831931974,1.00000000039908,0.513030562396076
22299.999999956,253.787529877279,1.00000000043653,0.521524351972801
22399.9999999545,252.670429222581,1.00000000044778,0.528099377413321
22499.9999999531,251.563642406737,1.00000000048086,0.533562627372513
22599.9999999516,250.466532872733,1.00000000045711,0.531674288291611
22699.9999999502,249.378786670715,1.00000000042823,0.524435902586319
22799.9999999487,248.298951121252,1.00000000040779,0.516793942641838
22899.9999999473,247.227154618471,1.00000000038267,0.514733249709431
22999.9999999458,246.162987854053,1.00000000038709,0.51336430357697
23099.9999999443,245.10685556977,1.00000000035489,0.511248149468887
23199.9999999429,244.058451593987,1.00000000036719,0.508421130280739
23299.9999999414,243.017376265142,1.00000000034375,0.504256082113307
23399.99999994,241.984464605276,1.00000000036711,0.504232012409082
23499.9999999385,240.959796280002,1.00000000036822,0.507149537020555
23599.9999999371,239.943747443028,1.00000000042166,0.514126967090151
23699.9999999356,238.936639896424,1.00000000044668,0.520256790138585
23799.9999999342,237.937775299463,1.00000000045593,0.527252081071582
23899.9999999327,236.947105414396,1.00000000042528,0.529919423153268
23999.9999999312,235.964757255137,1.0000000003915,0.526296480506643
24099.9999999298,234.990539034582,1.00000000040229,0.522000506077842
24199.9999999283,234.024781093004,1.00000000039446,0.523774127160291
24299.9999999269,233.067367077383,1.00000000040109,0.527196379566858
24399.9999999254,232.118992878272,1.00000000039575,0.524904388471584
24499.999999924,231.179582901223,1.00000000036266,0.517488802701471
24599.9999999225,230.249812866455,1.00000000033782,0.506030595500261
24699.9999999211,229.330023234356,1.000000000318,0.495911995498788
24799.9999999196,228.42028344116,1.00000000033677,0.491363745750839
24899.9999999181,227.520511824744,1.00000000036686,0.496583448963676
24999.9999999167,226.629775646375,1.00000000041898,0.505965640470561
25099.9999999152,225.746597396199,1.0000000004473,0.516416846802595
25199.9999999138,224.869980788705,1.00000000046011,0.522020942387648
25299.9999999123,223.999683427916,1.00000000042895,0.525985275557039
25399.9999999109,223.136532944154,1.00000000040527,0.527868674482393
25499.9999999094,222.281306694941,1.00000000037815,0.523704952529089
25599.999999908,221.433925399192,1.00000000037182,0.522723725281363
25699.9999999065,220.593698827054,1.0000000004201,0.534336482754102
25799.9999999051,219.75997749501,1.00000000042572,0.539080470506476
25899.9999999036,218.933523077979,1.00000000041727,0.532391876452953
25999.9999999021,218.115490059133,1.00000000039702,0.521277549078877
26099.9999999007,217.307994963416,1.0000000003483,0.504410886369534
26199.9999998992,216.513090171418,1.00000000029615,0.487559154190958
26299.9999998978,215.731545452934,1.00000000030111,0.477643862568121
26399.9999998963,214.963041251158,1.00000000034072,0.480954322586524
26499.9999998949,214.205028680862,1.00000000038274,0.49239582634844
26599.9999998934,213.454334973519,1.00000000044357,0.506177645236007
26699.999999892,212.708424242357,1.00000000046458,0.512938493251258
26799.9999998905,211.966222222656,1.00000000046122,0.515036570677629
26899.999999889,211.22779926674,1.00000000042053,0.517737348557917
26999.9999998876,210.495357272439,1.00000000037241,0.521875888476173
27099.9999998861,209.769670260089,1.00000000037738,0.524443751934589
27199.9999998847,209.050529869628,1.00000000038994,0.522982332974232
27299.9999998832,208.33679176577,1.00000000042733,0.529068054457997
27399.9999998818,207.626814950549,1.00000000045739,0.540991542451767
27499.9999998803,206.920030613884,1.00000000047638,0.542532474856827
27599.9999998789,206.218078312234,1.00000000044772,0.531233858929203
27699.9999998774,205.523637658287,1.00000000039675,0.515685900770139
27799.9999998759,204.839948159004,1.00000000032601,0.500878189423498
27899.9999998745,204.170848916539,1.00000000029919,0.48479443155646
27999.999999873,203.51745081903,1.00000000028849,0.474562502790644
28099.9999998716,202.87948307636,1.00000000032024,0.472785294571563
28199.9999998701,202.253992315471,1.00000000036655,0.481738290138626
28299.9999998687,201.636868022828,1.00000000044472,0.493259088734746
28399.9999998672,201.024670732697,1.00000000045567,0.504298684047829
28499.9999998658,200.415020206119,1.00000000045929,0.508910460506472
28599.9999998643,199.806516512647,1.00000000047073,0.510510046214908
28699.9999998629,199.199515025003,1.00000000043859,0.508565200113446
28799.9999998614,198.595827658796,1.00000000040903,0.514787856815982
28899.9999998599,197.996617440479,1.00000000039208,0.524692368495971
