Time,AGPnorm,Energy,Entropy
0,0,1,1.25467538066082e-18
99.9999999999986,0.0146988031085451,0.999999999998229,0.0349539060724078
199.999999999993,0.0361271249622659,1.00000000000167,0.105510683339741
300,0.0664122306222887,1.00000000007977,0.225782340654946
400.000000000022,0.12645543454081,1.00000000192194,0.40420243589065
500.000000000045,0.546803438339336,1.00000000426355,0.524188556009312
600.000000000068,1.69714430066778,1.00000000565949,0.582078483964745
700.000000000091,3.5860838646848,1.00000000508975,0.599971126106828
800.000000000113,5.64648753559088,1.00000000437803,0.604971554939279
900.000000000136,7.61200316404967,1.00000000460695,0.593717150391173
1000.00000000016,9.114470908519,1.00000000396312,0.586558548357727
1100.0000000001,10.1319574858829,1.00000000344018,0.571277909567138
1200,10.6457959811818,1.00000000302937,0.572763589009478
1299.99999999991,10.7485548816758,1.00000000302963,0.56320183003023
1399.99999999982,10.5868599264535,1.00000000268633,0.52759604388961
1499.99999999973,10.2937441011239,1.00000000214877,0.498419270949031
1599.99999999964,9.92346093780013,1.0000000038806,0.562754184721255
1699.99999999955,9.49402400229945,1.00000000298975,0.499121767571599
1799.99999999946,9.09063351129868,1.00000000296199,0.494085358968247
1899.99999999937,8.67404166832326,1.00000000319089,0.492991922554873
1999.99999999928,8.28304804089236,1.00000000338552,0.53161632811814
2099.99999999919,7.92833045788242,1.00000000296594,0.473211271225776
2199.99999999909,7.57937862336493,1.00000000345153,0.53893752240176
2299.999999999,7.25948030773717,1.00000000329619,0.519134157410497
2399.99999999891,6.99842100471741,1.00000000259448,0.474461072651062
2499.99999999882,6.73778223694642,1.00000000308635,0.523168193541575
2599.99999999873,6.49441603059832,1.00000000357986,0.55550350158716
2699.99999999864,6.27083402157785,1.0000000029492,0.506182987278564
2799.99999999855,6.11582458667767,1.00000000264675,0.484720578229154
2899.99999999846,5.95407619061669,1.00000000387915,0.545669085495668
2999.99999999837,5.80588143992295,1.00000000313656,0.547036311235755
3099.99999999828,5.65216074366205,1.00000000334295,0.567698095704416
3199.99999999819,5.50024069893975,1.00000000359609,0.550725251179074
3299.99999999809,5.40995967696862,1.00000000242958,0.480927469804572
3399.999999998,5.35972385005953,1.00000000350944,0.538830546142107
3499.99999999791,5.29417537038367,1.00000000344888,0.553149795525754
3599.99999999782,5.23231405788496,1.00000000322478,0.569016546105436
3699.99999999773,5.16205232411039,1.00000000341406,0.584324924691354
3799.99999999764,5.07290706738123,1.00000000305156,0.600047890098129
3899.99999999755,4.98358675611997,1.000000003827,0.585284093448399
3999.99999999746,4.89459765502122,1.00000000371829,0.566268279611545
4099.99999999738,4.85296978281459,1.00000000260122,0.517550864784968
4199.99999999775,4.88018088320206,1.00000000315474,0.53224906061441
4299.99999999811,4.89655742011981,1.0000000040296,0.560617397365249
4399.99999999848,4.9053978919838,1.00000000333582,0.564464476128716
4499.99999999884,4.90174277367086,1.00000000358425,0.599701548039151
4599.9999999992,4.89167226922013,1.00000000333156,0.602022147527464
4699.99999999957,4.88414287954819,1.00000000369297,0.63265798328226
4799.99999999993,4.85821949293693,1.00000000333249,0.621660900930545
4900.00000000029,4.82264100901583,1.00000000391951,0.623104467427997
5000.00000000066,4.77321145853066,1.00000000361121,0.636634865654076
5100.00000000102,4.72054548321057,1.00000000361286,0.644873581430771
5200.00000000139,4.6647823302461,1.00000000402017,0.633703924094042
5300.00000000175,4.60968883315768,1.00000000384157,0.601045377401591
5400.00000000211,4.5683729457984,1.00000000301225,0.562488243984415
5500.00000000248,4.5925957474601,1.00000000263965,0.538764588852239
5600.00000000284,4.67133998195518,1.00000000335405,0.556899795953177
5700.00000000321,4.74708938536828,1.00000000371374,0.579303052860872
5800.00000000357,4.80973748779447,1.00000000383959,0.589662489028585
5900.00000000393,4.86593109635711,1.00000000404871,0.607451395811178
6000.0000000043,4.90890027769977,1.00000000354579,0.618850688598296
6100.00000000466,4.94482876542605,1.00000000376584,0.643640551338268
6200.00000000502,4.96504176939241,1.00000000411482,0.647089526780497
6300.00000000539,4.97764794528944,1.00000000382437,0.657558526398371
6400.00000000575,4.97842272849401,1.00000000407133,0.656054632064004
6500.00000000612,4.98466256305333,1.00000000362635,0.643789492375039
6600.00000000648,4.99681175544787,1.00000000394322,0.665246835337196
6700.00000000684,5.00079808852345,1.00000000395646,0.644760065574229
6800.00000000721,4.99331325535441,1.00000000394032,0.644300255165152
6900.00000000757,4.99000981636957,1.00000000398971,0.653362076910594
7000.00000000793,4.98632392267672,1.00000000404074,0.671384773241869
7100.0000000083,4.97173059981,1.00000000390714,0.676434673258541
7200.00000000866,4.95470023377429,1.00000000387282,0.647740184327191
7300.00000000903,4.93676970240665,1.00000000412667,0.658920587736825
7400.00000000939,4.91079771007787,1.00000000414184,0.669326047015932
7500.00000000975,4.87409053875609,1.00000000440923,0.672025107248723
7600.00000001012,4.83246388831824,1.00000000383422,0.675229705189717
7700.00000001048,4.79080736013885,1.00000000412528,0.680491004253175
7800.00000001084,4.75302300280143,1.00000000441879,0.669845687022518
7900.00000001121,4.71799887760712,1.00000000454296,0.673580464388816
8000.00000001157,4.68374732760278,1.00000000419209,0.628766862328977
8100.00000001194,4.65916340846761,1.0000000038955,0.590300832341865
8200.0000000123,4.67906541922427,1.00000000345145,0.568066393874338
8300.00000001266,4.7609435462285,1.00000000353301,0.569684817168625
8400.00000001303,4.88253665946531,1.00000000398585,0.577709821934291
8500.00000001339,5.01331652792331,1.0000000046012,0.585885760287084
8600.00000001376,5.14062689879721,1.00000000460608,0.594122197942569
8700.00000001412,5.2628708307497,1.00000000408852,0.59373309797312
8800.00000001448,5.37342307034502,1.00000000430346,0.603024005640619
8900.00000001485,5.47659871258674,1.00000000469955,0.619358483324595
9000.00000001521,5.56532853221825,1.000000004216,0.63627612557738
9100.00000001557,5.64709789511369,1.00000000465614,0.660191456931756
9200.00000001594,5.72499021742924,1.00000000421896,0.660257326705359
9300.0000000163,5.79725944212984,1.00000000443427,0.658682279765767
9400.00000001667,5.85486391813963,1.00000000485247,0.67667914513264
9500.00000001703,5.89852394509675,1.00000000494936,0.684618992098728
9600.00000001739,5.93606526339532,1.00000000412306,0.685552247989691
9700.00000001776,5.98013327289538,1.00000000441329,0.687912204448392
9800.00000001812,6.02641414677974,1.00000000456778,0.70139549155588
9900.00000001848,6.05684664799103,1.00000000480761,0.70772231921031
10000.0000000188,6.09086462712518,1.00000000452455,0.701814611973878
10100.0000000192,6.12209256177539,1.00000000469286,0.702495399648217
10200.0000000196,6.14951762665292,1.00000000439522,0.693704105539809
10300.0000000199,6.16854733058436,1.00000000474716,0.7080196014999
10400.0000000203,6.18195882863694,1.00000000486228,0.693613540152282
10500.0000000207,6.19491952700807,1.00000000501581,0.695864193311709
10600.000000021,6.20845993964956,1.000000004768,0.692043850733192
10700.0000000214,6.22501584802454,1.00000000443,0.682952298269485
10800.0000000218,6.25385076555911,1.00000000453022,0.694425983665718
10900.0000000221,6.29432908567712,1.00000000467668,0.68310681498838
11000.0000000225,6.33893802729846,1.00000000478674,0.677587609450582
11100.0000000229,6.39077070176188,1.00000000529688,0.682701886024735
11200.0000000232,6.43788879466119,1.00000000464712,0.679901572605991
11300.0000000236,6.48599592320112,1.00000000476613,0.664670823507489
11400.0000000239,6.52519996802431,1.00000000473865,0.669964458135754
11500.0000000243,6.57706177401958,1.00000000452974,0.690683115454295
11600.0000000247,6.62064855701181,1.00000000528519,0.684512136039224
11700.000000025,6.65998066402512,1.0000000050087,0.708332925102041
11800.0000000254,6.70088342496148,1.00000000514558,0.708207016132492
11900.0000000258,6.73599363757087,1.00000000472399,0.69528011892528
12000.0000000261,6.76841678116986,1.00000000543594,0.683308752097193
12100.0000000265,6.80921690824803,1.00000000444278,0.675862800518295
12200.0000000269,6.85881056090527,1.00000000505596,0.702564601881069
12300.0000000272,6.9094134212454,1.00000000559771,0.695449709162894
12400.0000000276,6.95616640555882,1.00000000526738,0.692343930231433
12500.0000000279,7.00108304374529,1.00000000542832,0.688877360076647
12600.0000000283,7.0436963381333,1.00000000488581,0.705366794242682
12700.0000000287,7.08862625713877,1.00000000584758,0.69376716067263
12800.000000029,7.13539078174219,1.00000000493857,0.704485974585001
12900.0000000294,7.19408444221586,1.00000000509728,0.71058004892588
13000.0000000298,7.24552996206055,1.0000000051517,0.714830776211887
13100.0000000301,7.2913276660182,1.00000000517276,0.699351165806831
13200.0000000305,7.32830421709881,1.00000000572266,0.708536321305233
13300.0000000309,7.36926117687452,1.00000000535623,0.708344508399744
13400.0000000312,7.40984420287006,1.00000000524234,0.719443240779985
13500.0000000316,7.44650720681066,1.00000000532048,0.720598560606804
13600.0000000319,7.47997097498674,1.00000000530105,0.696097191918556
13700.0000000323,7.51652628331688,1.00000000481928,0.701519493150813
13800.0000000327,7.55121873778577,1.00000000535219,0.698748919517215
13900.000000033,7.57819167941061,1.00000000492193,0.708758104678403
14000.0000000334,7.60628618665639,1.00000000538715,0.699600916066421
14100.0000000338,7.63736279442223,1.00000000535276,0.709077610673256
14200.0000000341,7.6642926032744,1.00000000545492,0.715099203770799
14300.0000000345,7.68874149739012,1.00000000499875,0.701434315699497
14400.0000000349,7.7058859718655,1.00000000520037,0.702372992138456
14500.0000000352,7.71911038559065,1.00000000529388,0.713289411220279
14600.0000000356,7.73086909804509,1.00000000524617,0.705698571678392
14700.0000000359,7.73515799583883,1.00000000598461,0.718462880014676
14800.0000000363,7.7346657852349,1.0000000057233,0.712221026444987
14900.0000000367,7.72843972886515,1.00000000523563,0.710239376452839
15000.000000037,7.71910765441178,1.00000000541193,0.709350116938674
15100.0000000374,7.69942293689606,1.00000000589881,0.712681060577693
15200.0000000378,7.67738666186658,1.00000000527925,0.702347417890872
15300.0000000381,7.65409230104863,1.00000000548388,0.710311631864409
15400.0000000385,7.63271116348869,1.00000000545741,0.730092936977598
15500.0000000389,7.61362320634175,1.00000000593711,0.709830749742678
15600.0000000392,7.596495506991,1.00000000564855,0.722281830167968
15700.0000000396,7.58360601895514,1.00000000569851,0.72274062690079
15800.0000000399,7.57230245947439,1.00000000546437,0.725358195277743
15900.0000000403,7.57191843070977,1.00000000587321,0.707277301423671
16000.0000000407,7.57117370188851,1.00000000521836,0.703905524017529
16100.000000041,7.58871210688186,1.00000000576769,0.686964700727968
16200.0000000414,7.62248687151457,1.00000000494422,0.672413301944235
16300.0000000418,7.68996559901855,1.00000000548276,0.655951302514919
16400.0000000418,7.800417668521,1.00000000491457,0.639000951668943
16500.0000000404,7.97489151286584,1.00000000489525,0.638953654915349
16600.0000000389,8.20247434030594,1.00000000497594,0.645698537796491
16700.0000000375,8.49400002848309,1.00000000549478,0.645839255957027
16800.000000036,8.80927812474525,1.00000000582842,0.651378039646682
16900.0000000346,9.15896696478514,1.0000000055069,0.655124411727777
17000.0000000331,9.49126893160672,1.0000000057287,0.659738561038094
17100.0000000317,9.83611177870988,1.00000000645317,0.662382770058094
17200.0000000302,10.1674763186872,1.00000000590475,0.661158306556704
17300.0000000287,10.507712438491,1.00000000610966,0.658550553162209
17400.0000000273,10.8442597492267,1.00000000585501,0.659299576497376
17500.0000000258,11.174259923452,1.0000000061708,0.655392297303073
17600.0000000244,11.5237732661479,1.0000000057529,0.669971852287061
17700.0000000229,11.8694985597726,1.00000000613424,0.671278434433753
17800.0000000215,12.2285296930422,1.00000000618627,0.672220663903352
17900.00000002,12.5870561441173,1.00000000610598,0.68114592399878
18000.0000000186,12.9388535027945,1.00000000689246,0.693231404842157
18100.0000000171,13.2913618848935,1.00000000638454,0.699322210771637
18200.0000000156,13.6366478688879,1.0000000059481,0.700464444772662
18300.0000000142,13.9794490019397,1.00000000623457,0.71054351277734
18400.0000000127,14.2973125389409,1.00000000574648,0.707496971982526
18500.0000000113,14.6251523064339,1.00000000619214,0.725728940958908
18600.0000000098,14.9358520967375,1.00000000609374,0.72934218813802
18700.0000000084,15.2627693724593,1.00000000604902,0.70228792253567
18800.0000000069,15.5710787672485,1.00000000702276,0.723001364150541
18900.0000000055,15.8569781256466,1.0000000062667,0.721505646480811
19000.000000004,16.1464366318703,1.00000000618613,0.714659464401596
19100.0000000026,16.4390749479799,1.00000000625565,0.715616157218162
19200.0000000011,16.7316862437224,1.00000000667035,0.72661929228598
19299.9999999996,17.0115213972816,1.00000000664553,0.724771931291892
19399.9999999982,17.2943977514425,1.00000000593336,0.722050694499999
19499.9999999967,17.588590635254,1.00000000633011,0.732968438416727
19599.9999999953,17.872825158921,1.00000000709481,0.730364165099416
19699.9999999938,18.1667212472932,1.00000000649472,0.717941348147507
19799.9999999924,18.4706664725823,1.00000000611313,0.727315980747021
19899.9999999909,18.8007418285008,1.000000006597,0.731264741956371
19999.9999999895,19.1270535300075,1.00000000615195,0.71763270304763
20099.999999988,19.4496404959871,1.0000000070886,0.728038254211731
20199.9999999865,19.7614693990262,1.00000000648209,0.730219200732464
20299.9999999851,20.0647923509711,1.00000000734212,0.741056569270838
20399.9999999836,20.3777398611406,1.00000000673777,0.725614957419428
20499.9999999822,20.6985155969285,1.00000000626375,0.73859478110998
20599.9999999807,21.0385981755402,1.00000000627359,0.737066054604016
20699.9999999793,21.3862600877343,1.00000000719677,0.73658292413731
20799.9999999778,21.7344400088378,1.00000000654682,0.735173638348627
20899.9999999764,22.0708523262442,1.00000000609654,0.741036152196502
20999.9999999749,22.3929999292743,1.00000000633774,0.733900256316742
21099.9999999734,22.7110184583487,1.00000000696683,0.725725577601591
21199.999999972,23.0268743016998,1.00000000751959,0.731414022821433
21299.9999999705,23.3458998567388,1.00000000668211,0.721100359748348
21399.9999999691,23.6851198030865,1.0000000069433,0.730108606758005
21499.9999999676,24.0175301183565,1.00000000712166,0.732391218588892
21599.9999999662,24.35845160304,1.00000000635067,0.734198232766103
21699.9999999647,24.7132383311292,1.00000000658656,0.723403040376173
21799.9999999633,25.0877561411794,1.00000000671897,0.725225848527792
21899.9999999618,25.4635360275683,1.00000000704455,0.728491430983265
21999.9999999603,25.8323259705726,1.00000000660486,0.728465044767629
22099.9999999589,26.2026024281474,1.00000000699905,0.734110094024483
22199.9999999574,26.5652814181677,1.00000000660582,0.738323160934926
22299.999999956,26.9301546918823,1.00000000690249,0.732201280641541
22399.9999999545,27.3035461746395,1.00000000679219,0.729582728972449
22499.9999999531,27.6839063432273,1.00000000701402,0.734205406675659
22599.9999999516,28.0523266079072,1.00000000735386,0.729823063947483
22699.9999999502,28.4115913322435,1.0000000066828,0.728484807018462
22799.9999999487,28.7672805395134,1.0000000068484,0.740395041707562
22899.9999999473,29.1367031996067,1.0000000065145,0.734952038998698
22999.9999999458,29.5107609417131,1.00000000698954,0.736464262267081
23099.9999999443,29.8967813570555,1.00000000637935,0.734543116492318
23199.9999999429,30.3036551250698,1.00000000696929,0.729379057434873
23299.9999999414,30.7177096685739,1.00000000632719,0.733908469900984
23399.99999994,31.1348821612992,1.00000000717561,0.742724719187198
23499.9999999385,31.5497156172389,1.00000000693717,0.740266907516104
23599.9999999371,31.9486796527379,1.00000000694418,0.734724009651783
23699.9999999356,32.3420355410821,1.00000000657543,0.741234201402352
23799.9999999342,32.7403183672886,1.00000000711543,0.727836923582297
23899.9999999327,33.1763806097907,1.00000000642162,0.728535718680866
23999.9999999312,33.6443101237571,1.00000000688106,0.735534218512396
24099.9999999298,34.137659230746,1.00000000709985,0.734902371562197
24199.9999999283,34.6595081078941,1.00000000752619,0.740912721786124
24299.9999999269,35.1916979545743,1.00000000728543,0.743599562140557
24399.9999999254,35.7335355912139,1.00000000772011,0.745356044812384
24499.999999924,36.2899538040501,1.00000000745589,0.734211020004499
24599.9999999225,36.8352309290094,1.00000000806361,0.743321423978687
24699.9999999211,37.3792236290943,1.00000000775507,0.741400334102786
24799.9999999196,37.916002529027,1.00000000834409,0.743450093311798
24899.9999999181,38.4443518039747,1.00000000740012,0.749491229195765
24999.9999999167,38.9720154216137,1.0000000072352,0.741246283920411
25099.9999999152,39.506673465153,1.00000000740413,0.739086317548901
25199.9999999138,40.0403544700852,1.0000000084488,0.736030914451101
25299.9999999123,40.5775563950037,1.00000000771581,0.729694090683953
25399.9999999109,41.1244772909574,1.00000000839207,0.73687079503564
25499.9999999094,41.67750301478,1.00000000746386,0.740375210763636
25599.999999908,42.2403280320322,1.00000000698279,0.738769818627381
25699.9999999065,42.7994805977318,1.00000000827145,0.742984388565144
25799.9999999051,43.365805076598,1.00000000753416,0.736860300855203
25899.9999999036,43.9253286812332,1.00000000777913,0.74162795127833
25999.9999999021,44.4830004417942,1.00000000747949,0.736555340820087
26099.9999999007,45.0603388535964,1.00000000745165,0.740645979388842
26199.9999998992,45.6551651626949,1.00000000750575,0.739365295811019
26299.9999998978,46.2535400752947,1.0000000084105,0.740892129737309
26399.9999998963,46.8395941222232,1.00000000812216,0.743485617183224
26499.9999998949,47.4101058934797,1.00000000842644,0.736489866418078
26599.9999998934,47.9833857519245,1.00000000780734,0.735296090192304
26699.999999892,48.5677488776986,1.00000000807843,0.736014384046351
26799.9999998905,49.1705014582391,1.00000000862347,0.727734204688362
26899.999999889,49.7955535714219,1.00000000768441,0.740445953511433
26999.9999998876,50.4378940966239,1.00000000882894,0.73718264123268
27099.9999998861,51.0710937057121,1.00000000827962,0.741270056166345
27199.9999998847,51.6857000841934,1.00000000864703,0.749609586062054
27299.9999998832,52.297396969544,1.0000000081095,0.742242071372476
27399.9999998818,52.9252066756143,1.00000000800169,0.732086226691627
27499.9999998803,53.5795580705237,1.00000000800497,0.739392943746873
27599.9999998789,54.2375002394652,1.00000000766648,0.739800602253141
27699.9999998774,54.8995133793876,1.00000000771281,0.74450538555204
27799.9999998759,55.5751433180822,1.00000000843313,0.749782129350093
27899.9999998745,56.2411004214724,1.00000000893086,0.753079948960477
27999.999999873,56.9007898120689,1.00000000831665,0.754423185056518
28099.9999998716,57.5539983924377,1.00000000809482,0.72840239938415
28199.9999998701,58.22101633157,1.00000000836418,0.731338209394478
28299.9999998687,58.8804205451034,1.00000000912546,0.747449656174767
28399.9999998672,59.5398139829919,1.00000000784403,0.741995533581716
28499.9999998658,60.1989832716056,1.00000000784806,0.74662100853228
28599.9999998643,60.8663955500016,1.00000000871232,0.753814664340612
28699.9999998629,61.5445271571484,1.00000000787916,0.747533976463408
28799.9999998614,62.2266022507616,1.0000000073052,0.756103150626703
28899.9999998599,62.9126561338269,1.00000000830878,0.744314489779475
28999.9999998585,63.6001688595746,1.00000000852521,0.742321143224943
29099.999999857,64.3000581665038,1.00000000821493,0.746360896993461
