Time,AGPnorm,Energy,Entropy
0,0,1,-1.20328708049547e-17
99.9999999999986,1.23141137381583e-05,0.999999999997183,0.000560102534871983
199.999999999993,0.00106420945776,0.99999999999973,0.000897139555313378
300,0.00263880545441756,0.999999999998672,0.00155558547592739
400.000000000022,0.00360155172645459,0.999999999997758,0.0027261317691774
500.000000000045,0.00433674736171434,1.00000000000018,0.00363320166595297
600.000000000068,0.00636541024832562,0.999999999997388,0.0050871263935312
700.000000000091,0.00792554790446832,0.999999999999241,0.00657070904858068
800.000000000113,0.010121138316181,0.999999999999218,0.00804254990592539
900.000000000136,0.0126666953224379,0.999999999997417,0.00998468033811699
1000.00000000016,0.014681292804557,1.00000000000014,0.0117240235709444
1100.0000000001,0.0177170103271467,0.999999999997776,0.0137513733048803
1200,0.0207926205151553,0.9999999999987,0.0159664556495581
1299.99999999991,0.0240198904702338,0.999999999999657,0.0180446324296324
1399.99999999982,0.027804522504237,0.999999999997266,0.0205279055129811
1499.99999999973,0.0311999545730907,0.999999999999919,0.0229127629841145
1599.99999999964,0.0352205873097559,0.99999999999828,0.0254150856971271
1699.99999999955,0.0393769296045992,0.999999999998186,0.0282071901740382
1799.99999999946,0.0435076116353224,0.999999999999937,0.0308270434210438
1899.99999999937,0.0483675426913535,0.999999999997334,0.0337597847003262
1999.99999999928,0.0530729861202811,0.999999999999537,0.0367193287720247
2099.99999999919,0.058003911087589,0.999999999998794,0.0396746260599395
2199.99999999909,0.06307295547796,0.999999999997772,0.0429696482292037
2299.999999999,0.0679785987371533,1.00000000000005,0.0461216578074202
2399.99999999891,0.0736000674951932,0.999999999997607,0.0494942442517339
2499.99999999882,0.0792917211893074,0.999999999999052,0.0530158677753249
2599.99999999873,0.0849946830862304,0.999999999999229,0.0564519603006936
2699.99999999864,0.0909197445095623,0.999999999997512,0.0602369286541905
2799.99999999855,0.0966000729581045,0.999999999999991,0.063952881987782
2899.99999999846,0.102707175069752,0.99999999999803,0.0678113292349288
2999.99999999837,0.108951948800009,0.999999999998571,0.0719209754644281
3099.99999999828,0.115184887389497,0.999999999999545,0.0759220504686561
3199.99999999819,0.121783631842777,0.999999999997441,0.0802495664237791
3299.99999999809,0.128215547189643,0.999999999999731,0.0846218776005895
3399.999999998,0.134659286403925,0.999999999998496,0.0890714826498828
3499.99999999791,0.141206333590463,0.999999999998168,0.0938553132860973
3599.99999999782,0.14772585809164,0.999999999999784,0.0985679860245518
3699.99999999773,0.154696511591397,0.999999999997569,0.103594715133721
3799.99999999764,0.161626438198143,0.999999999999284,0.108806792529619
3899.99999999755,0.168316111674053,0.999999999998888,0.114062120598331
3999.99999999746,0.175095946957671,0.999999999997867,0.119745670640498
4099.99999999738,0.181799092967391,0.999999999999946,0.125452637269356
4199.99999999775,0.188862264504273,0.999999999997948,0.131506291696145
4299.99999999811,0.195839057380385,0.999999999998907,0.137935086064733
4399.99999999848,0.202643810246856,0.999999999999331,0.144469205276508
4499.99999999884,0.209562383510975,0.999999999998091,0.151586772689174
4599.9999999992,0.216326113371467,1.0000000000006,0.158947995091211
4699.99999999957,0.223481296960994,0.999999999999596,0.166736765902465
4799.99999999993,0.230067488362671,1.00000000000079,0.175158553750557
4900.00000000029,0.236974465750983,1.000000000003,0.183802375044586
5000.00000000066,0.24438713744876,1.00000000000356,0.193145782729642
5100.00000000102,0.250794872614541,1.00000000000906,0.202837770344948
5200.00000000139,0.259680460217282,1.00000000001227,0.212756631546234
5300.00000000175,0.266969526382234,1.00000000001699,0.223197416106547
5400.00000000211,0.276224619963897,1.00000000002466,0.233517645304261
5500.00000000248,0.290402590734134,1.00000000003101,0.244149481472617
5600.00000000284,0.302328198376441,1.00000000003914,0.254839742542851
5700.00000000321,0.325833344591242,1.00000000005118,0.265197123217909
5800.00000000357,0.35331205521616,1.00000000005948,0.275728259810429
5900.00000000393,0.38913086236118,1.00000000007341,0.285839347530695
6000.0000000043,0.448705356538662,1.00000000008398,0.29587321816567
6100.00000000466,0.514991055612187,1.00000000009669,0.305873684748952
6200.00000000502,0.614766956763887,1.00000000010987,0.315366835284744
6300.00000000539,0.745901674943403,1.00000000012322,0.324888869673862
6400.00000000575,0.904544902002847,1.0000000001366,0.334101319033988
6500.00000000612,1.1266954789142,1.00000000014382,0.342985172516904
6600.00000000648,1.38824638649008,1.00000000016713,0.351863154653945
6700.00000000684,1.71881671384476,1.00000000017363,0.360259219988711
6800.00000000721,2.13389212350512,1.00000000018228,0.368616702525813
6900.00000000757,2.6129375805651,1.00000000020117,0.376784668625559
7000.00000000793,3.20850013482571,1.00000000021774,0.384405243940201
7100.0000000083,3.89979118986842,1.00000000021936,0.392168575606405
7200.00000000866,4.70225484626126,1.00000000023554,0.399408245561076
7300.00000000903,5.6549902693732,1.00000000024834,0.406500158849526
7400.00000000939,6.72153004241287,1.00000000023666,0.413688932275498
7500.00000000975,7.95516426480092,1.00000000026919,0.420040162186556
7600.00000001012,9.35072836084555,1.00000000027277,0.4266303734148
7700.00000001048,10.8973599122311,1.00000000028555,0.432865733953062
7800.00000001084,12.6527070284002,1.00000000027311,0.438838561170482
7900.00000001121,14.5749281223357,1.00000000030096,0.444757810805762
8000.00000001157,16.6997178344606,1.00000000030095,0.450155412579683
8100.00000001194,19.0444491020383,1.0000000003048,0.45561872612697
8200.0000000123,21.5718790449052,1.00000000032127,0.460915754751494
8300.00000001266,24.3444860576526,1.00000000032726,0.465740742371349
8400.00000001303,27.328480174045,1.00000000033419,0.470668735938779
8500.00000001339,30.530470996481,1.00000000032387,0.475237420240205
8600.00000001376,33.9886189259291,1.00000000032444,0.479604294183253
8700.00000001412,37.6506885293172,1.00000000033063,0.484015176783406
8800.00000001448,41.5657657264045,1.00000000034811,0.487850060544409
8900.00000001485,45.7198436388123,1.00000000035323,0.491867078161734
9000.00000001521,50.0882302984769,1.00000000035353,0.495650007648339
9100.00000001557,54.722072139677,1.00000000035158,0.499084539459305
9200.00000001594,59.5678012607245,1.00000000035984,0.502666863817416
9300.0000000163,64.649973536212,1.00000000036035,0.505698101028554
9400.00000001667,69.9765728596283,1.00000000034427,0.508969152781422
9500.00000001703,75.5006901350798,1.00000000036867,0.51196978621091
9600.00000001739,81.27203236105,1.00000000036346,0.514677146937435
9700.00000001776,87.2498275255758,1.00000000036174,0.517512496523271
9800.00000001812,93.4299713341749,1.00000000037287,0.51988980851192
9900.00000001848,99.8384843993957,1.00000000036931,0.522329383896504
10000.0000000188,106.418635145103,1.00000000037732,0.524789402262319
10100.0000000192,113.207401252016,1.00000000037583,0.526822338342382
10200.0000000196,120.18389981103,1.00000000038976,0.528984780345736
10300.0000000199,127.319139709323,1.00000000038967,0.530935119821983
10400.0000000203,134.648314261313,1.00000000037634,0.532695160935919
10500.0000000207,142.118390339451,1.00000000038399,0.534704573758447
10600.000000021,149.746775510815,1.00000000036863,0.53607403948983
10700.0000000214,157.531147141386,1.0000000003826,0.537791143591151
10800.0000000218,165.429117309794,1.00000000037038,0.53946483082556
10900.0000000221,173.474467113335,1.00000000037492,0.540477634230546
11000.0000000225,181.625947721412,1.00000000036901,0.542186087353559
11100.0000000229,189.881830688944,1.00000000037599,0.543195493007518
11200.0000000232,198.252962000048,1.00000000037013,0.544177899244745
11300.0000000236,206.693070803362,1.00000000037582,0.545770952669691
11400.0000000239,215.228547270913,1.00000000035456,0.546247182368139
11500.0000000243,223.83315923473,1.00000000037949,0.547307960229158
11600.0000000247,232.489102041407,1.00000000037339,0.54837198098702
11700.000000025,241.216226648332,1.00000000035277,0.548647082972336
11800.0000000254,249.969307299678,1.00000000035906,0.550026458188162
11900.0000000258,258.766168097325,1.00000000036178,0.550263770369612
12000.0000000261,267.594949145938,1.00000000035294,0.550525941054667
12100.0000000265,276.4258209009,1.00000000036471,0.551915628694546
12200.0000000269,285.283726966394,1.00000000035458,0.551768688417177
12300.0000000272,294.129397580684,1.0000000003615,0.55222482981312
12400.0000000276,302.969954255845,1.00000000036,0.553172900473346
12500.0000000279,311.807007242568,1.00000000034432,0.552958480672281
12600.0000000283,320.604410618878,1.00000000034982,0.553662468617178
12700.0000000287,329.385569890841,1.00000000035458,0.553698494893099
12800.000000029,338.124260051912,1.000000000337,0.553587835588502
12900.0000000294,346.812062071519,1.00000000034418,0.554505945904333
13000.0000000298,355.463277365074,1.00000000034114,0.554214049407556
13100.0000000301,364.042743760444,1.00000000033892,0.554200681010714
13200.0000000305,372.565372463379,1.00000000033214,0.554653510502253
13300.0000000309,381.019845674743,1.00000000032403,0.554374067615739
13400.0000000312,389.38845899216,1.00000000032131,0.554646195245265
13500.0000000316,397.688170214738,1.00000000033068,0.554671971627868
13600.0000000319,405.892509533147,1.000000000319,0.55435975317445
13700.0000000323,414.00568498943,1.00000000032419,0.554338515661387
13800.0000000327,422.028278278583,1.00000000031353,0.554457133404488
13900.000000033,429.939626920114,1.0000000003117,0.554261285007842
14000.0000000334,437.754753771446,1.00000000031616,0.554229012788587
14100.0000000338,445.454444693768,1.00000000030632,0.554059137869912
14200.0000000341,453.04005617978,1.00000000031108,0.553588893522405
14300.0000000345,460.51461027776,1.00000000029582,0.553549764614949
14400.0000000349,467.859316267274,1.00000000031294,0.553731155701168
14500.0000000352,475.087491158205,1.00000000029753,0.553356849863438
14600.0000000356,482.185155004528,1.00000000030147,0.552711284991663
14700.0000000359,489.149205106576,1.00000000029804,0.55283880820322
14800.0000000363,495.989424485024,1.00000000030319,0.552688901633165
14900.0000000367,502.686882002662,1.00000000028549,0.552410147453556
15000.000000037,509.249709883288,1.00000000028307,0.552190036796264
15100.0000000374,515.674447342791,1.00000000029537,0.552013182747256
15200.0000000378,521.953918210922,1.00000000028422,0.55163541305527
15300.0000000381,528.09770679647,1.00000000028423,0.551039981312888
15400.0000000385,534.091416055455,1.00000000027722,0.551241401764919
15500.0000000389,539.941647377238,1.00000000027682,0.551203174142866
15600.0000000392,545.648531554851,1.00000000027004,0.550371613791307
15700.0000000396,551.201819779114,1.0000000002733,0.550216905163236
15800.0000000399,556.61371805389,1.00000000026321,0.550359562158059
15900.0000000403,561.873601728774,1.00000000026331,0.549670398454399
16000.0000000407,566.984914213402,1.00000000026789,0.549694092856753
16100.000000041,571.949890279935,1.00000000026037,0.548682765728453
16200.0000000414,576.762151982949,1.0000000002594,0.549949422131296
16300.0000000418,581.430677370382,1.00000000025981,0.548390844566277
16400.0000000418,585.949173115214,1.00000000026626,0.548774712222332
16500.0000000404,590.316810592248,1.00000000025594,0.547337117918539
16600.0000000389,594.541888365838,1.00000000026352,0.547971786382867
16700.0000000375,598.615089674585,1.000000000251,0.54694914491277
16800.000000036,602.544169971059,1.00000000024511,0.547549902387293
16900.0000000346,606.326252009366,1.00000000024874,0.546926540137369
17000.0000000331,609.960455861026,1.00000000024815,0.547219753437116
17100.0000000317,613.455253103959,1.00000000023987,0.545755251538722
17200.0000000302,616.801237306172,1.0000000002458,0.545025937414491
17300.0000000287,620.005321842614,1.0000000002306,0.544727987864232
17400.0000000273,623.067154047896,1.00000000024534,0.545252437560119
17500.0000000258,625.98656782784,1.00000000023713,0.545969862797097
17600.0000000244,628.77065004578,1.00000000024033,0.545917714857695
17700.0000000229,631.414823325199,1.0000000002346,0.544897719883704
17800.0000000215,633.921540840448,1.00000000022523,0.543239383282311
17900.00000002,636.293133240434,1.00000000023007,0.54168268927713
18000.0000000186,638.525097132664,1.00000000022297,0.541513686001111
18100.0000000171,640.626522792639,1.00000000022405,0.543373951855163
18200.0000000156,642.596072006859,1.00000000022675,0.545219640358064
18300.0000000142,644.43907584986,1.00000000022217,0.546485215825939
18400.0000000127,646.161049842114,1.00000000022292,0.544601266820572
18500.0000000113,647.756442757465,1.00000000022089,0.541587162465781
18600.0000000098,649.22835853733,1.00000000021468,0.537903460739557
18700.0000000084,650.570510181182,1.00000000020673,0.536630562539095
18800.0000000069,651.785445936743,1.00000000020759,0.539218067245256
18900.0000000055,652.882699654689,1.00000000021007,0.543792261341005
19000.000000004,653.867753554386,1.0000000002208,0.547977459515915
19100.0000000026,654.75161033808,1.00000000021521,0.548462372310777
19200.0000000011,655.534758000046,1.00000000021324,0.544582940671447
19299.9999999996,656.211084337181,1.00000000020559,0.537765036852585
19399.9999999982,656.7753065667,1.0000000001946,0.531469614898994
19499.9999999967,657.21851900042,1.00000000018943,0.530139466144293
19599.9999999953,657.546489039462,1.00000000018469,0.535237809272398
19699.9999999938,657.771774863115,1.00000000020251,0.54381585239575
19799.9999999924,657.909527994483,1.00000000021064,0.550758443165923
19899.9999999909,657.975812713205,1.00000000021687,0.553049474985375
19999.9999999895,657.971417845016,1.00000000021771,0.547929907787549
20099.999999988,657.888636073431,1.00000000020697,0.53760880430331
20199.9999999865,657.713322890801,1.00000000018491,0.526012730094836
20299.9999999851,657.430207942476,1.00000000016356,0.519915274470894
20399.9999999836,657.041705849814,1.00000000017099,0.523646243169715
20499.9999999822,656.557767080191,1.00000000019011,0.535104836140297
20599.9999999807,656.002114937975,1.00000000021124,0.548472251217539
20699.9999999793,655.398369508449,1.00000000022334,0.556657327686927
20799.9999999778,654.756904028771,1.0000000002407,0.556550592477545
20899.9999999764,654.077646254631,1.00000000022861,0.547343854322028
20999.9999999749,653.343430198542,1.00000000019864,0.531416226773315
21099.9999999734,652.532661829285,1.00000000016573,0.514986348752165
21199.999999972,651.630302285317,1.00000000014736,0.505403430728661
21299.9999999705,650.631936470297,1.00000000014676,0.510070918797009
21399.9999999691,649.555885055757,1.00000000017839,0.526837764136813
21499.9999999676,648.42843722322,1.00000000022278,0.546094058450928
21599.9999999662,647.275874064649,1.00000000025075,0.558737077716828
21699.9999999647,646.116781388554,1.00000000026235,0.562115044255565
21799.9999999633,644.950432085264,1.00000000025222,0.554965448734158
21899.9999999618,643.765098296972,1.0000000002306,0.537623790315479
21999.9999999603,642.535891685472,1.00000000017914,0.514293046479468
22099.9999999589,641.237677415229,1.0000000001504,0.494095080258484
22199.9999999574,639.859082342017,1.00000000012365,0.486918748582437
22299.999999956,638.401632159428,1.00000000014173,0.498760315502021
22399.9999999545,636.88923139856,1.00000000018086,0.523793379204049
22499.9999999531,635.35075388652,1.00000000022922,0.547708175917564
22599.9999999516,633.811460830887,1.00000000026608,0.562854172985283
22699.9999999502,632.288602640448,1.00000000027675,0.566415871115292
22799.9999999487,630.781453087471,1.0000000002672,0.559250075663803
22899.9999999473,629.277478926801,1.00000000023832,0.541386624579653
22999.9999999458,627.753504355543,1.00000000019217,0.51430764928638
23099.9999999443,626.181384215825,1.00000000014827,0.486373017760575
23199.9999999429,624.545641883357,1.00000000011613,0.469709842659098
23299.9999999414,622.840182076612,1.00000000012029,0.472629489246031
23399.99999994,621.080455326231,1.00000000015525,0.497484659810216
23499.9999999385,619.292724469076,1.00000000021298,0.529045643847616
23599.9999999371,617.502269748881,1.00000000025688,0.553765905383374
23699.9999999356,615.731939979992,1.00000000029312,0.56708523424707
23799.9999999342,613.991592028508,1.00000000030854,0.568858566762826
23899.9999999327,612.279386481311,1.00000000028934,0.561052143154427
23999.9999999312,610.58363933599,1.00000000025321,0.542980355138481
24099.9999999298,608.881311855038,1.00000000020201,0.51430663474582
24199.9999999283,607.150140105888,1.00000000015719,0.481389919754829
24299.9999999269,605.370444328314,1.00000000011582,0.457144322061811
24399.9999999254,603.535168181975,1.00000000010497,0.452178121551612
24499.999999924,601.653583972954,1.00000000013145,0.470384181566461
24599.9999999225,599.741941789815,1.00000000018161,0.504641988573074
24699.9999999211,597.825236636004,1.00000000023481,0.536982228578149
24799.9999999196,595.923508493666,1.00000000028117,0.558462346775064
24899.9999999181,594.050552961222,1.00000000030841,0.568128701017524
24999.9999999167,592.213353011117,1.00000000030957,0.568311948741238
25099.9999999152,590.408027980657,1.00000000029795,0.55944108892028
25199.9999999138,588.623732914948,1.00000000026024,0.542651547468505
25299.9999999123,586.844179598722,1.00000000022322,0.515166170472274
25399.9999999109,585.048975137008,1.00000000015569,0.481211492296135
25499.9999999094,583.224447280008,1.00000000012375,0.452122148360994
25599.999999908,581.360183135379,1.00000000010214,0.438672611392933
25699.9999999065,579.459139359561,1.00000000010927,0.446337527178267
25799.9999999051,577.532218973038,1.00000000014851,0.473366509008216
25899.9999999036,575.594420591448,1.00000000019918,0.508967254394211
25999.9999999021,573.663652296041,1.00000000024994,0.539400647636139
26099.9999999007,571.753130107997,1.00000000028548,0.557467111371861
26199.9999998992,569.871348779632,1.00000000031221,0.564797426047081
26299.9999998978,568.022801397226,1.00000000031777,0.563351286955501
26399.9999998963,566.204234585132,1.00000000029569,0.555020193854902
26499.9999998949,564.408690650533,1.00000000027656,0.54174075010202
26599.9999998934,562.6257070453,1.00000000023891,0.519652758061887
26699.999999892,560.840844638472,1.00000000018852,0.489675463170658
26799.9999998905,559.043824934827,1.00000000015438,0.460661001074752
26899.999999889,557.225054335404,1.00000000011928,0.438698923059665
26999.9999998876,555.383773803512,1.00000000011307,0.432466220814776
27099.9999998861,553.522266147644,1.00000000012481,0.442831574656679
27199.9999998847,551.647950429918,1.00000000015563,0.467523603660882
27299.9999998832,549.772431923209,1.00000000020763,0.498917225838254
27399.9999998818,547.90479611065,1.00000000024459,0.527606791433033
27499.9999998803,546.0540624937,1.00000000027502,0.54620332023521
27599.9999998789,544.226420558004,1.0000000003018,0.554902627077831
27699.9999998774,542.424522436141,1.00000000029623,0.554633324718371
27799.9999998759,540.648078600466,1.0000000003015,0.549151694190556
27899.9999998745,538.894431149308,1.00000000028174,0.539941534740898
27999.999999873,537.157060543302,1.00000000024667,0.525184444856815
28099.9999998716,535.429634942396,1.00000000023396,0.509040442453595
28199.9999998701,533.704282624379,1.00000000018857,0.485023372023574
28299.9999998687,531.975103478234,1.0000000001673,0.463289294584731
28399.9999998672,530.237688959422,1.00000000014296,0.445095989072407
28499.9999998658,528.490865472985,1.00000000013,0.43505605398778
28599.9999998643,526.736445534402,1.00000000013427,0.437723568273247
28699.9999998629,524.976691144195,1.00000000014955,0.451339429528184
28799.9999998614,523.217684853666,1.00000000017522,0.472333947833078
