Time,AGPnorm,Energy,Entropy
0,0,1,2.21570333180529e-18
99.9999999999986,0.0160708853528985,0.999999999999133,0.0379131396520334
199.999999999993,0.0390618586553731,1.00000000000152,0.113743699291941
300,0.0695985550995836,1.00000000017593,0.24839315624466
400.000000000022,0.155517567078893,1.00000000260857,0.43168355193129
500.000000000045,0.692726310583205,1.000000004684,0.542167025114719
600.000000000068,1.98714880213634,1.00000000540949,0.592343489353333
700.000000000091,3.90346969506047,1.000000005036,0.605158488256505
800.000000000113,5.87110353104685,1.00000000515594,0.606183498614903
900.000000000136,7.62180601748766,1.00000000432372,0.593265967479596
1000.00000000016,8.86930359338058,1.00000000400768,0.586605431505786
1100.0000000001,9.62330215467272,1.00000000376658,0.578826330809386
1200,9.92133751721816,1.00000000328653,0.57771323196812
1299.99999999991,9.88065594961556,1.00000000345772,0.577684166633639
1399.99999999982,9.62735590294388,1.00000000383658,0.573733999620491
1499.99999999973,9.27296943337354,1.00000000281796,0.498143643976313
1599.99999999964,8.90394171554976,1.00000000326903,0.509342348272753
1699.99999999955,8.4907691607546,1.00000000441661,0.56481986642778
1799.99999999946,8.10881349732329,1.00000000241606,0.464032112201808
1899.99999999937,7.71910016488633,1.00000000409156,0.54596953890953
1999.99999999928,7.36852447961226,1.00000000240213,0.467907051144807
2099.99999999919,7.03969513334587,1.00000000319817,0.5234063586011
2199.99999999909,6.72744741450287,1.00000000411022,0.556597534410695
2299.999999999,6.45978518427032,1.00000000243488,0.467862210488205
2399.99999999891,6.22014686141742,1.00000000368461,0.530518925761369
2499.99999999882,5.99706559352906,1.00000000346861,0.534883180623096
2599.99999999873,5.77742542145308,1.00000000421677,0.540780341131785
2699.99999999864,5.6155174412858,1.0000000027138,0.474578118142532
2799.99999999855,5.47948963276561,1.00000000366289,0.533106073884269
2899.99999999846,5.3440529443777,1.00000000324883,0.548565682042817
2999.99999999837,5.2074286544612,1.00000000360419,0.580209368094299
3099.99999999828,5.07038274188378,1.00000000433537,0.560348569425211
3199.99999999819,4.96616107207431,1.00000000289194,0.509339590543517
3299.99999999809,4.92709462633579,1.00000000392348,0.529443885831082
3399.999999998,4.87808759862741,1.00000000369655,0.554646766154026
3499.99999999791,4.82763420471577,1.00000000368581,0.578684610678785
3599.99999999782,4.77727032940482,1.00000000385238,0.58178888113913
3699.99999999773,4.7061777272275,1.000000003646,0.605463875581265
3799.99999999764,4.63095362166941,1.00000000404128,0.600239779240014
3899.99999999755,4.55607777860306,1.00000000432812,0.569237233239798
3999.99999999746,4.51468630037375,1.00000000296915,0.523456366743195
4099.99999999738,4.54563930308596,1.00000000352353,0.531682941528328
4199.99999999775,4.57584787926648,1.00000000403056,0.570193400429276
4299.99999999811,4.59602493422421,1.00000000399316,0.575156736735213
4399.99999999848,4.6129961555477,1.00000000414146,0.605950248019256
4499.99999999884,4.61536494552669,1.00000000424501,0.616039186861872
4599.9999999992,4.61660954819269,1.00000000379772,0.628504742883325
4699.99999999957,4.60550273417001,1.00000000401405,0.641700274541213
4799.99999999993,4.58508198976599,1.0000000044416,0.63379143626684
4900.00000000029,4.54922536113493,1.00000000432168,0.648094133795597
5000.00000000066,4.50595319329935,1.00000000398947,0.653341735906724
5100.00000000102,4.46051621317564,1.00000000456441,0.651669387469028
5200.00000000139,4.41656962374711,1.00000000398517,0.620544607790395
5300.00000000175,4.39181702860314,1.00000000378332,0.568703928546758
5400.00000000211,4.43312005521535,1.00000000317808,0.556641485639509
5500.00000000248,4.51770279499802,1.00000000418292,0.577240555942395
5600.00000000284,4.59693604540836,1.00000000419207,0.603695227721469
5700.00000000321,4.66858768905713,1.00000000455624,0.622045423956374
5800.00000000357,4.73319047046267,1.00000000429437,0.632415545833958
5900.00000000393,4.78578343483579,1.00000000420646,0.639483078860957
6000.0000000043,4.82952395575755,1.00000000451555,0.665009692866591
6100.00000000466,4.85086388602056,1.00000000411015,0.665193173906835
6200.00000000502,4.86749881365393,1.000000004651,0.676192578584124
6300.00000000539,4.8782720887805,1.0000000045722,0.658157045915842
6400.00000000575,4.89256044523183,1.00000000393345,0.661989167405791
6500.00000000612,4.90662681462897,1.00000000459324,0.6856210447505
6600.00000000648,4.9097836634856,1.00000000445213,0.658095365319732
6700.00000000684,4.91382028874858,1.00000000377667,0.654933304987951
6800.00000000721,4.91854242275803,1.00000000469008,0.680171406492065
6900.00000000757,4.91775599700097,1.00000000495561,0.688862923888261
7000.00000000793,4.90441796117675,1.00000000401093,0.668969225722087
7100.0000000083,4.89328333817313,1.000000004495,0.669024422664268
7200.00000000866,4.87730404522033,1.00000000462589,0.670707999622946
7300.00000000903,4.85332616905273,1.00000000459678,0.678248618320282
7400.00000000939,4.81968457666417,1.00000000475216,0.65892247007899
7500.00000000975,4.78150272764798,1.00000000477163,0.667760662810566
7600.00000001012,4.74216888999341,1.00000000474696,0.677958240660043
7700.00000001048,4.70450371958287,1.00000000498329,0.691503081808034
7800.00000001084,4.6704540006959,1.00000000465136,0.681406734642226
7900.00000001121,4.64440115965309,1.00000000437828,0.635360222064429
8000.00000001157,4.64871058091335,1.00000000385922,0.591984184434078
8100.00000001194,4.71281466800104,1.00000000360914,0.58928708456643
8200.0000000123,4.8272357649197,1.00000000424725,0.598592407546631
8300.00000001266,4.95561836077825,1.00000000461862,0.609904473745743
8400.00000001303,5.0799593225966,1.00000000458003,0.612966487614873
8500.00000001339,5.19827128631514,1.00000000497373,0.614981446037457
8600.00000001376,5.31091833725102,1.00000000492182,0.624145466114848
8700.00000001412,5.41778505815192,1.00000000461486,0.634312139687433
8800.00000001448,5.51279233940861,1.00000000501363,0.65926519190225
8900.00000001485,5.59662129827451,1.00000000497213,0.676966536701075
9000.00000001521,5.6721714348413,1.00000000524535,0.691274522449891
9100.00000001557,5.74778223293751,1.00000000511082,0.690986935735713
9200.00000001594,5.80698468997625,1.00000000483233,0.672760677982169
9300.0000000163,5.8500810218805,1.00000000554734,0.685604645103593
9400.00000001667,5.89194878836918,1.0000000046068,0.695629774583811
9500.00000001703,5.9442797152221,1.0000000054696,0.704594260464206
9600.00000001739,5.99093413388244,1.00000000534654,0.701473900202368
9700.00000001776,6.03229348832293,1.00000000575328,0.715752144396389
9800.00000001812,6.07331735585303,1.00000000476281,0.702600568280999
9900.00000001848,6.12004636568617,1.00000000570932,0.717561735687348
10000.0000000188,6.15662332079834,1.00000000507747,0.70470812697124
10100.0000000192,6.19602649686976,1.00000000560589,0.709397541832503
10200.0000000196,6.23316876501267,1.00000000545284,0.698071105335832
10300.0000000199,6.2718543689012,1.00000000518977,0.696802660642261
10400.0000000203,6.31519155566396,1.00000000568815,0.686335977771481
10500.0000000207,6.35495397717948,1.00000000570871,0.681492231692592
10600.000000021,6.40602525255305,1.00000000526927,0.697367101530478
10700.0000000214,6.46689894924872,1.0000000055451,0.711196507839909
10800.0000000218,6.53052718102014,1.00000000522978,0.692371438939332
10900.0000000221,6.60306508479253,1.00000000555466,0.697016215559819
11000.0000000225,6.6682044428037,1.00000000530549,0.702211093991185
11100.0000000229,6.74085910735386,1.00000000584289,0.685700482650258
11200.0000000232,6.81408028549813,1.0000000062589,0.696604938374916
11300.0000000236,6.90051401858918,1.00000000507211,0.706767011481593
11400.0000000239,6.98945855525358,1.00000000610442,0.713680227601924
11500.0000000243,7.06820881848704,1.00000000590525,0.708423605580172
11600.0000000247,7.14931897952759,1.00000000644017,0.722904348950698
11700.000000025,7.22600644222614,1.00000000614843,0.719845009096005
11800.0000000254,7.30426335378785,1.00000000627429,0.721062821572265
11900.0000000258,7.39313747412433,1.00000000627036,0.703014542010765
12000.0000000261,7.48529429675089,1.00000000668576,0.721206245684902
12100.0000000265,7.5687020018084,1.00000000625597,0.721826799044997
12200.0000000269,7.65029199678565,1.00000000597405,0.702912717906485
12300.0000000272,7.73359001767316,1.00000000579815,0.710910822816676
12400.0000000276,7.82319208129522,1.00000000593599,0.725903449352991
12500.0000000279,7.91649471551472,1.00000000637183,0.713659166348719
12600.0000000283,8.0134653360227,1.00000000610449,0.721126404697354
12700.0000000287,8.12627441691679,1.00000000564606,0.71754722699604
12800.000000029,8.2277689774829,1.00000000667128,0.720588222102232
12900.0000000294,8.32314286416132,1.0000000061841,0.714881972330205
13000.0000000298,8.41400630008222,1.00000000582149,0.706947077055151
13100.0000000301,8.51355561716066,1.00000000582881,0.707228150433604
13200.0000000305,8.6084367839687,1.00000000673288,0.730223355441283
13300.0000000309,8.69539189845313,1.00000000644733,0.728665053743083
13400.0000000312,8.780839250353,1.00000000638687,0.721384374845662
13500.0000000316,8.876254458924,1.00000000687321,0.711711579449586
13600.0000000319,8.98048081116207,1.00000000654474,0.725253188987989
13700.0000000323,9.07572867856318,1.0000000068718,0.723705488984243
13800.0000000327,9.1600821202194,1.00000000635547,0.723919356561898
13900.000000033,9.24058290534401,1.00000000708729,0.729550853038203
14000.0000000334,9.32580238445192,1.00000000708273,0.730491272637962
14100.0000000338,9.40435857340124,1.00000000674271,0.720307044036165
14200.0000000341,9.47354611027208,1.00000000642146,0.703187079793551
14300.0000000345,9.53835338542047,1.00000000657911,0.735544888658216
14400.0000000349,9.60313070999361,1.00000000704689,0.727386418021285
14500.0000000352,9.66598186048225,1.0000000070137,0.719150495720469
14600.0000000356,9.72676788533293,1.0000000064647,0.713694441536861
14700.0000000359,9.7830932963128,1.00000000686809,0.715409322223203
14800.0000000363,9.83258318072745,1.00000000704317,0.717623929674041
14900.0000000367,9.86277894933611,1.00000000741895,0.719693411459252
15000.000000037,9.89261436834191,1.00000000677067,0.718304843715319
15100.0000000374,9.92594501907389,1.00000000645102,0.735759021453537
15200.0000000378,9.9669807593296,1.00000000655531,0.738210075789143
15300.0000000381,10.0120124346222,1.0000000068664,0.726800503674852
15400.0000000385,10.0600274090109,1.0000000072332,0.744289274122784
15500.0000000389,10.117079784913,1.00000000695208,0.728123647047475
15600.0000000392,10.1783697387143,1.00000000752681,0.720479980763308
15700.0000000396,10.2617655717023,1.00000000707904,0.709308733070148
15800.0000000399,10.3493663672783,1.00000000727701,0.688209918149382
15900.0000000403,10.4713739157508,1.00000000644965,0.673204958143458
16000.0000000407,10.620273162576,1.00000000670241,0.670563805785566
16100.000000041,10.821314739447,1.00000000655981,0.659578964267937
16200.0000000414,11.0797209863951,1.00000000670274,0.65959826121356
16300.0000000418,11.4105082035564,1.00000000621283,0.664681769851031
16400.0000000418,11.78216213589,1.00000000633585,0.669259443739307
16500.0000000404,12.2038445188036,1.00000000721855,0.674664265379666
16600.0000000389,12.6246532592468,1.00000000732526,0.677897674234223
16700.0000000375,13.0671630773501,1.00000000789401,0.679417153932747
16800.000000036,13.4866536581961,1.00000000676046,0.67615683377424
16900.0000000346,13.9223549083629,1.00000000746782,0.673832824238457
17000.0000000331,14.356437802626,1.0000000073006,0.682194811105224
17100.0000000317,14.7997966014362,1.00000000669256,0.680908752890146
17200.0000000302,15.2595259470471,1.00000000694923,0.686593323756273
17300.0000000287,15.7060675114953,1.00000000678744,0.684013355633988
17400.0000000273,16.1777220482719,1.00000000814012,0.693611682091513
17500.0000000258,16.6541458791672,1.00000000760848,0.703442107969931
17600.0000000244,17.1480400979739,1.00000000745196,0.702091392280591
17700.0000000229,17.6312582114169,1.00000000768104,0.711157183916123
17800.0000000215,18.1090662750534,1.00000000761314,0.723011872891246
17900.00000002,18.5923835898211,1.00000000800581,0.725740030960473
18000.0000000186,19.0463457219132,1.00000000720911,0.727636136729324
18100.0000000171,19.4986784582753,1.00000000805932,0.739844734973283
18200.0000000156,19.9326623840968,1.00000000840247,0.747165848625413
18300.0000000142,20.3648436008252,1.00000000735424,0.742187410825635
18400.0000000127,20.7913203815764,1.00000000683538,0.742108910567231
18500.0000000113,21.2249779353975,1.00000000782431,0.734849192346674
18600.0000000098,21.6464397968144,1.00000000886107,0.738888206785078
18700.0000000084,22.0513749029189,1.00000000814745,0.73222538021664
18800.0000000069,22.4475106490414,1.00000000811544,0.728165380480809
18900.0000000055,22.8136591662703,1.00000000749722,0.723915997701956
19000.000000004,23.1939328025859,1.0000000075085,0.730652693293807
19100.0000000026,23.5674531226058,1.00000000763442,0.74040498167252
19200.0000000011,23.9539741687674,1.00000000711858,0.740222411597427
19299.9999999996,24.3496243179802,1.00000000760542,0.746768937717257
19399.9999999982,24.756738136296,1.00000000798714,0.736157878946396
19499.9999999967,25.1729583237328,1.00000000766888,0.742710131155315
19599.9999999953,25.5960577613252,1.00000000813505,0.743782132407807
19699.9999999938,26.040531211251,1.00000000711713,0.747212204561424
19799.9999999924,26.4889119190665,1.00000000820954,0.756563532795543
19899.9999999909,26.9155396187193,1.00000000858046,0.758770954054593
19999.9999999895,27.3317613653986,1.00000000786766,0.750154884994949
20099.999999988,27.7544753771876,1.00000000846081,0.734053193077872
20199.9999999865,28.1919671523879,1.00000000807473,0.747392154506653
20299.9999999851,28.6344613305922,1.00000000788288,0.739096088877094
20399.9999999836,29.1041574148314,1.00000000761786,0.748757959766464
20499.9999999822,29.5852453075411,1.00000000788066,0.751266925883688
20599.9999999807,30.0538041702651,1.00000000842463,0.76064292686608
20699.9999999793,30.5024334361814,1.00000000798713,0.745268991536048
20799.9999999778,30.9367001579046,1.0000000082211,0.744543076035622
20899.9999999764,31.3723639179152,1.00000000765112,0.731018906032669
20999.9999999749,31.8210897697418,1.00000000839245,0.747878077140727
21099.9999999734,32.2699750816636,1.0000000084458,0.754513095749496
21199.999999972,32.7211860570592,1.00000000785725,0.741932013023584
21299.9999999705,33.1719944301522,1.00000000862423,0.761761454445186
21399.9999999691,33.6296406762817,1.00000000741311,0.752257405041818
21499.9999999676,34.0894161440937,1.00000000834881,0.741159664139252
21599.9999999662,34.5526921091698,1.00000000940203,0.740763050788683
21699.9999999647,35.0097178330067,1.00000000853031,0.741655666125083
21799.9999999633,35.4796077800213,1.00000000869849,0.744607039230936
21899.9999999618,35.9710033307384,1.00000000834093,0.755349156167417
21999.9999999603,36.4588095310039,1.00000000836873,0.748654544566047
22099.9999999589,36.9479606385502,1.00000000917308,0.745750694496416
22199.9999999574,37.4434248892876,1.00000000839871,0.745237156531876
22299.999999956,37.9512842301111,1.00000000908629,0.748523112219011
22399.9999999545,38.4598253026183,1.00000000843862,0.758696615048635
22499.9999999531,38.9566467109982,1.00000000910188,0.757112419308
22599.9999999516,39.4737700027977,1.00000000782423,0.729135875098846
22699.9999999502,40.0220059628085,1.00000000848652,0.755055095119824
22799.9999999487,40.5683256456078,1.00000000844589,0.760238961697705
22899.9999999473,41.117931008258,1.00000000963593,0.758078117501712
22999.9999999458,41.6565882108973,1.00000000896872,0.762545263791321
23099.9999999443,42.1983149915397,1.00000000849921,0.755214282624206
23199.9999999429,42.7478752276992,1.00000000905253,0.751766194440884
23299.9999999414,43.30519099049,1.00000000893373,0.750863792033896
23399.99999994,43.8698607689474,1.00000000864307,0.749518263560248
23499.9999999385,44.4573692632985,1.00000000864258,0.753461142626397
23599.9999999371,45.0475364583524,1.00000000913861,0.74920275185993
23699.9999999356,45.6373158001486,1.00000000883322,0.745375067752822
23799.9999999342,46.2343125094997,1.00000000893465,0.746030918854107
23899.9999999327,46.8311159480613,1.00000000881009,0.745442517926115
23999.9999999312,47.4409626969631,1.00000000920038,0.747791730497574
24099.9999999298,48.0534412264253,1.00000000917107,0.751500957888004
24199.9999999283,48.6528963678338,1.00000000892519,0.760875379916122
24299.9999999269,49.2480194012903,1.00000000933655,0.750670806063651
24399.9999999254,49.8465851787268,1.00000000876355,0.750038063087689
24499.999999924,50.4436573935938,1.00000000956255,0.744419019553873
24599.9999999225,51.0503364487081,1.00000000908267,0.743439893781516
24699.9999999211,51.6780514739326,1.00000000936735,0.749780629447429
24799.9999999196,52.3083632017462,1.00000000864267,0.753853959337352
24899.9999999181,52.9280809647354,1.00000000827877,0.749645698942476
24999.9999999167,53.5535464657845,1.0000000100324,0.730775165778965
25099.9999999152,54.2051541442959,1.00000000897726,0.749963487975639
25199.9999999138,54.862343502726,1.00000000988061,0.75402773175689
25299.9999999123,55.5264741105355,1.00000000945337,0.75064529329227
25399.9999999109,56.1888945465585,1.00000000921512,0.758210614724822
25499.9999999094,56.8554859086648,1.00000000972831,0.753797088757246
25599.999999908,57.5362675572112,1.00000000956472,0.748547177689312
25699.9999999065,58.2283572756655,1.0000000100298,0.742614487385645
25799.9999999051,58.9266591303995,1.00000000954772,0.746449334713684
25899.9999999036,59.6180444179454,1.00000000963593,0.76083993126366
25999.9999999021,60.301432111826,1.00000000924297,0.760532278618324
26099.9999999007,60.9792314343359,1.00000000882728,0.749460016425276
26199.9999998992,61.6667659224376,1.00000000909562,0.752641880319308
26299.9999998978,62.3556918011606,1.00000000985898,0.752594383065406
26399.9999998963,63.0459535012105,1.00000000991188,0.757300410204832
26499.9999998949,63.7454753769423,1.00000000870086,0.754374552175913
26599.9999998934,64.4534721321726,1.00000000938415,0.750641201099825
26699.999999892,65.1653584914633,1.00000001037099,0.759577256865398
26799.9999998905,65.8764036797152,1.00000000928841,0.755435288663526
26899.999999889,66.5765007356642,1.00000000973717,0.760281601880359
26999.9999998876,67.2886206261988,1.00000000977784,0.753423920821132
27099.9999998861,68.0093805071238,1.00000000932113,0.755659612865094
27199.9999998847,68.7497219400967,1.00000000936553,0.759135969504612
27299.9999998832,69.4901933841935,1.00000000991229,0.758277802170206
27399.9999998818,70.2259443823067,1.00000001060427,0.76040537164828
27499.9999998803,70.9644897401182,1.00000001042363,0.759707733992175
27599.9999998789,71.6891882723752,1.00000001060396,0.760377653100563
27699.9999998774,72.4133663774951,1.00000000905289,0.759017080841994
27799.9999998759,73.1399388632577,1.00000000940512,0.757964812505346
27899.9999998745,73.8791199677311,1.00000001086817,0.764099365140968
27999.999999873,74.6141589878223,1.00000000980221,0.770234935020353
28099.9999998716,75.3618626243747,1.00000000959227,0.753857590879195
28199.9999998701,76.129017006725,1.00000001019449,0.756843036926115
28299.9999998687,76.9055326101171,1.00000001074374,0.758258460095808
28399.9999998672,77.6927916337212,1.00000000974609,0.756828950046322
28499.9999998658,78.4848789793854,1.00000001070473,0.760704892836923
28599.9999998643,79.2845844754006,1.00000000980589,0.760692896076917
28699.9999998629,80.0912265533773,1.00000001104781,0.767010511568355
28799.9999998614,80.8893243449047,1.00000000988604,0.76572674597805
28899.9999998599,81.6966255508064,1.00000001004649,0.763839225030308
28999.9999998585,82.506471564544,1.00000001101942,0.766747039515204
29099.999999857,83.3217308633771,1.0000000101427,0.766198704985209
