Time,AGPnorm,Energy,Entropy
0,0,1,-7.44110213600448e-17
99.9999999999986,0.000519452627793708,0.999999999999486,0.00192450770055254
199.999999999993,0.00344788199563361,0.999999999995371,0.00571969987383176
300,0.00730338115743021,0.999999999994705,0.0104460822407614
400.000000000022,0.0109023064064924,0.999999999998571,0.0164575651407954
500.000000000045,0.0154430913194395,1.00000000000026,0.0239663539310546
600.000000000068,0.021477421204521,0.999999999997055,0.0325335724064899
700.000000000091,0.0285597812960977,0.999999999994471,0.0416247923464574
800.000000000113,0.0357095927613871,0.999999999996808,0.0514893749654386
900.000000000136,0.04332783120966,1.00000000000007,0.0626466699421988
1000.00000000016,0.0515333896077053,0.999999999998563,0.0749549561817775
1100.0000000001,0.0610352941504278,0.999999999995287,0.0880349154411163
1200,0.0702146603508785,0.999999999995568,0.102022012747466
1299.99999999991,0.0793267077299393,0.99999999999908,0.117540149155903
1399.99999999982,0.0888970933573545,0.99999999999971,0.135049153748647
1499.99999999973,0.0987331703297401,0.99999999999734,0.154370855827179
1599.99999999964,0.109305297948127,0.999999999998402,0.17592387082203
1699.99999999955,0.119414193080844,1.00000000000754,0.200446100206597
1799.99999999946,0.128749534016869,1.00000000002601,0.228613884819292
1899.99999999937,0.138721235810891,1.00000000005388,0.259206057325898
1999.99999999928,0.164933719429701,1.00000000010016,0.290306724797234
2099.99999999919,0.217936113874,1.00000000015881,0.320717598167901
2199.99999999909,0.303878581682579,1.00000000023637,0.349527112993955
2299.999999999,0.46093714558695,1.00000000029977,0.376441205464061
2399.99999999891,0.767117231328297,1.00000000038638,0.400163096462738
2499.99999999882,1.27664280111619,1.00000000042809,0.421317759161989
2599.99999999873,2.00472822879086,1.00000000051954,0.440139686318128
2699.99999999864,3.00703039393278,1.00000000052534,0.457629958113641
2799.99999999855,4.38523784233425,1.000000000627,0.472412937075795
2899.99999999846,6.19110716207324,1.00000000062981,0.48514600278825
2999.99999999837,8.40449472101742,1.00000000066563,0.496365993276857
3099.99999999828,11.0238157103052,1.00000000069629,0.506744349567468
3199.99999999819,14.1102189814286,1.00000000073446,0.515445290100114
3299.99999999809,17.6839512086992,1.00000000074134,0.522285913960522
3399.999999998,21.682469202215,1.00000000072272,0.528228516029308
3499.99999999791,26.0457852235572,1.00000000075734,0.533966946033289
3599.99999999782,30.7746365626522,1.00000000076556,0.538680345985623
3699.99999999773,35.8686480856783,1.00000000074291,0.541767792728627
3799.99999999764,41.2585683084095,1.00000000074934,0.544050838183484
3899.99999999755,46.8569555630597,1.00000000072412,0.546909928428252
3999.99999999746,52.6210913768092,1.00000000073554,0.549558899196678
4099.99999999738,58.5472987724917,1.00000000070777,0.549248586502396
4199.99999999775,64.582610312708,1.00000000070541,0.55019143205997
4299.99999999811,70.6429348818805,1.00000000072391,0.551018284525294
4399.99999999848,76.6776802176414,1.00000000071764,0.550861535083122
4499.99999999884,82.6738250076582,1.00000000065684,0.550352481178876
4599.9999999992,88.6048090961599,1.00000000070204,0.548932551485709
4699.99999999957,94.413120374423,1.00000000065806,0.549331174285255
4799.99999999993,100.055255255588,1.0000000006669,0.547633249714014
4900.00000000029,105.511002196264,1.00000000062179,0.546769538326872
5000.00000000066,110.774446306327,1.00000000063355,0.545561075879468
5100.00000000102,115.819969303624,1.00000000060313,0.543462729793341
5200.00000000139,120.61356712573,1.00000000059253,0.54296407147827
5300.00000000175,125.143149326114,1.00000000058398,0.541932111242426
5400.00000000211,129.40863176125,1.00000000059807,0.540065331873511
5500.00000000248,133.409216140909,1.00000000055236,0.537641092212776
5600.00000000284,137.128627684608,1.00000000053617,0.537531603802246
5700.00000000321,140.555901042099,1.00000000055342,0.536153296473185
5800.00000000357,143.693134856101,1.00000000050683,0.532728817763046
5900.00000000393,146.547168324378,1.00000000049061,0.531202257704709
6000.0000000043,149.122484340738,1.000000000463,0.533621839714632
6100.00000000466,151.417270312856,1.00000000046953,0.530969670763434
6200.00000000502,153.429299328794,1.00000000046468,0.523461940546054
6300.00000000539,155.164757895826,1.00000000046769,0.523442952358895
6400.00000000575,156.647694956213,1.00000000046978,0.533002746514971
6500.00000000612,157.898183561303,1.00000000046254,0.532504841790216
6600.00000000648,158.904907814028,1.00000000041343,0.516897239853371
6700.00000000684,159.651206031306,1.00000000038781,0.508803513225477
6800.00000000721,160.165570213656,1.00000000040643,0.5267856008395
6900.00000000757,160.513020670878,1.00000000044542,0.543205021735627
7000.00000000793,160.714375338383,1.00000000043527,0.531068905158147
7100.0000000083,160.724247070461,1.00000000035085,0.499134987207879
7200.00000000866,160.50628175976,1.00000000032968,0.492409646301278
7300.00000000903,160.116002993655,1.00000000042241,0.527210241680184
7400.00000000939,159.650728600462,1.00000000050674,0.554091897438403
7500.00000000975,159.143493190887,1.00000000048318,0.543611441416284
7600.00000001012,158.534928545695,1.00000000037147,0.496753160451439
7700.00000001048,157.748248056235,1.00000000025046,0.45969444705615
7800.00000001084,156.799199490085,1.00000000031699,0.490812968113975
7900.00000001121,155.787779399038,1.00000000050622,0.543580516717735
8000.00000001157,154.798489522507,1.00000000058391,0.563386126333747
8100.00000001194,153.838096817889,1.00000000052001,0.54327216527689
8200.0000000123,152.833613711344,1.00000000034269,0.481124075232727
8300.00000001266,151.703694948276,1.00000000019932,0.424339117262903
8400.00000001303,150.447387872517,1.00000000024764,0.449046709752404
8500.00000001339,149.144109956787,1.00000000045686,0.518147681178895
8600.00000001376,147.877170531282,1.00000000061908,0.55692938071487
8700.00000001412,146.682215808968,1.00000000062755,0.563089509145512
8800.00000001448,145.534263353972,1.00000000053644,0.52980551048838
8900.00000001485,144.365803531619,1.00000000032687,0.45361776665631
9000.00000001521,143.116195921993,1.00000000018344,0.38775584733053
9100.00000001557,141.7865035281,1.00000000021579,0.400956074905387
9200.00000001594,140.427458742258,1.00000000042571,0.476597995209834
9300.0000000163,139.09343009871,1.00000000056278,0.535063978858705
9400.00000001667,137.819072140776,1.00000000061344,0.554335792754263
9500.00000001703,136.611701687722,1.0000000006275,0.550487140764718
9600.00000001739,135.447777314872,1.00000000053208,0.519531926752164
9700.00000001776,134.283836333012,1.00000000036427,0.449719464911551
9800.00000001812,133.082608896171,1.00000000021381,0.377481454805994
9900.00000001848,131.839225126741,1.00000000019245,0.362318367317597
10000.0000000188,130.578177262498,1.00000000028502,0.411171512046428
10100.0000000192,129.326414097012,1.0000000004645,0.481624642025469
10200.0000000196,128.102653729167,1.00000000057356,0.525660753696877
10300.0000000199,126.920126065507,1.0000000006252,0.54002963131465
10400.0000000203,125.783184334857,1.00000000056413,0.541792827508089
10500.0000000207,124.68341721745,1.00000000054207,0.526446243802163
10600.000000021,123.602196082187,1.00000000042297,0.486819807880998
10700.0000000214,122.520999761902,1.00000000033043,0.430583274620159
10800.0000000218,121.432652926795,1.00000000026801,0.38167501213264
10900.0000000221,120.343957195744,1.00000000023797,0.37063070984146
11000.0000000225,119.265718838832,1.0000000002666,0.397920676620952
11100.0000000229,118.203536997369,1.00000000037883,0.447144620726554
11200.0000000232,117.158058864219,1.00000000045781,0.495366296751455
11300.0000000236,116.129641174907,1.00000000055804,0.515112941254948
11400.0000000239,115.119792098592,1.00000000053145,0.519002258391944
11500.0000000243,114.130480481978,1.00000000056878,0.527196559179326
11600.0000000247,113.162566908291,1.00000000053765,0.534914799002067
11700.000000025,112.213255406753,1.00000000046702,0.515429644636675
11800.0000000254,111.277516345261,1.00000000036497,0.472111508538597
11900.0000000258,110.354053875601,1.00000000028039,0.427808585107503
12000.0000000261,109.447681078122,1.00000000027892,0.398773825919842
12100.0000000265,108.564914240284,1.00000000032014,0.390503970419759
12200.0000000269,107.70886507152,1.00000000032429,0.410347477662199
12300.0000000272,106.877505379186,1.00000000037566,0.438212944791038
12400.0000000276,106.064965753265,1.00000000041937,0.46274925042711
12500.0000000279,105.265252036511,1.00000000043855,0.49039250287636
12600.0000000283,104.476220012738,1.00000000042795,0.502963552218054
12700.0000000287,103.697924631124,1.00000000040259,0.497485092069908
12800.000000029,102.927367611529,1.00000000048651,0.498478605689174
12900.0000000294,102.159291258201,1.00000000058013,0.513920539633215
13000.0000000298,101.392797395636,1.0000000006054,0.534083596963102
13100.0000000301,100.63221334968,1.00000000053973,0.536694395441834
13200.0000000305,99.8826832703218,1.0000000004395,0.51086274137571
13300.0000000309,99.1504714562523,1.00000000032677,0.465700736042839
13400.0000000312,98.4450590431585,1.00000000024347,0.42454857627661
13500.0000000316,97.7744548442446,1.00000000025166,0.399876849346891
13600.0000000319,97.1391135542192,1.00000000033026,0.399821741220747
13700.0000000323,96.5330913954262,1.00000000038087,0.412150562237331
13800.0000000327,95.9489904514054,1.00000000042515,0.437455067362623
13900.000000033,95.3798910174956,1.00000000043352,0.46386539939651
14000.0000000334,94.819570649422,1.00000000044476,0.478618667258364
14100.0000000338,94.2646435492638,1.00000000042943,0.489465784514342
14200.0000000341,93.7157744831001,1.00000000043064,0.496239413785237
14300.0000000345,93.1763509561196,1.00000000038539,0.496818627770827
14400.0000000349,92.6497468371399,1.00000000035835,0.491934869777713
14500.0000000352,92.1325993257334,1.00000000040001,0.488021752971432
14600.0000000356,91.6143704793137,1.00000000049374,0.49553236181052
14700.0000000359,91.0846947614342,1.00000000058876,0.509072083650178
14800.0000000363,90.5405171847691,1.00000000061326,0.524739082742398
14900.0000000367,89.9871878176857,1.00000000056044,0.536341572343618
15000.000000037,89.4335038801593,1.00000000052978,0.530211571705298
15100.0000000374,88.888703267356,1.00000000042785,0.506585352348813
15200.0000000378,88.3626323489825,1.00000000032056,0.470673683267946
15300.0000000381,87.8663176250117,1.00000000028529,0.440197301902884
15400.0000000385,87.4094080494813,1.00000000026794,0.420125420332164
15500.0000000389,86.9949725379594,1.00000000028352,0.408527623067469
15600.0000000392,86.6179594764457,1.00000000029942,0.40877893290956
15700.0000000396,86.2670639188975,1.00000000040139,0.427254283308539
15800.0000000399,85.9298437298616,1.00000000045265,0.450272707283758
15900.0000000403,85.6002790264419,1.00000000045036,0.465807869789167
16000.0000000407,85.2761703638694,1.00000000045509,0.476438264288029
16100.000000041,84.9560891527535,1.00000000044314,0.483981894337543
16200.0000000414,84.6379346105018,1.00000000041764,0.491526247042683
16300.0000000418,84.3182877464951,1.0000000004617,0.503226538855797
16400.0000000418,83.9949361344038,1.00000000044441,0.513953844714734
16500.0000000404,83.6682516234097,1.00000000043975,0.520612495728095
16600.0000000389,83.3425362967065,1.00000000037778,0.52508613332539
16700.0000000375,83.0214572004128,1.00000000035733,0.521503064989198
16800.000000036,82.7048083344792,1.00000000036897,0.514244376252765
16900.0000000346,82.3891715184334,1.00000000042201,0.506199339009784
17000.0000000331,82.069364601057,1.00000000043327,0.496774161259396
17100.0000000317,81.7408601413431,1.0000000004849,0.499116501358413
17200.0000000302,81.3997148749878,1.00000000052075,0.511866828839697
17300.0000000287,81.0440625068197,1.00000000056637,0.529407605314346
17400.0000000273,80.6765311281182,1.00000000056114,0.541747282321036
17500.0000000258,80.3039252558377,1.0000000004838,0.540062928704434
17600.0000000244,79.9365151701091,1.00000000040697,0.521901095772132
17700.0000000229,79.5868611059175,1.00000000034866,0.495054115378038
17800.0000000215,79.2666255039288,1.00000000029875,0.464815257438534
17900.00000002,78.9840863259911,1.00000000028875,0.443855730757135
18000.0000000186,78.7410886441686,1.00000000031115,0.434573107539739
18100.0000000171,78.5346955284868,1.00000000034137,0.43228284150565
18200.0000000156,78.3596893751515,1.00000000036113,0.434574449832894
18300.0000000142,78.208569963204,1.00000000038698,0.437694220747647
18400.0000000127,78.0719233686694,1.00000000042309,0.443876766993906
18500.0000000113,77.9399133974904,1.00000000043341,0.459635422430225
18600.0000000098,77.8067063442642,1.00000000047047,0.478644716712108
18700.0000000084,77.6715454479389,1.00000000045544,0.488747908970003
18800.0000000069,77.5399570788256,1.00000000040228,0.491559409593365
18900.0000000055,77.4210740641305,1.00000000036838,0.489663355335108
19000.000000004,77.3178530796182,1.00000000033352,0.488284364990313
19100.0000000026,77.2252104394405,1.00000000038792,0.494530805818554
19200.0000000011,77.1330624934454,1.00000000043574,0.508147127321295
19299.9999999996,77.0281112115265,1.00000000047008,0.520172728719714
19399.9999999982,76.9000093868279,1.00000000052769,0.527399683292951
19499.9999999967,76.7456076381727,1.00000000052827,0.531406560820145
19599.9999999953,76.5680977365806,1.0000000005013,0.534308246169392
19699.9999999938,76.374312445153,1.00000000046221,0.540695643409852
19799.9999999924,76.17381047305,1.00000000044311,0.543901882101991
19899.9999999909,75.9739437691891,1.00000000036008,0.53491510704278
19999.9999999895,75.7796161894435,1.00000000034985,0.522204592904565
20099.999999988,75.594346622838,1.00000000034706,0.514139085472022
20199.9999999865,75.4168892987674,1.00000000036148,0.511022819595527
20299.9999999851,75.2419474339725,1.00000000040189,0.508752886791259
20399.9999999836,75.0629111134449,1.00000000042762,0.506887020452356
20499.9999999822,74.8746605285641,1.0000000004804,0.511202235440568
20599.9999999807,74.6738149402935,1.00000000049991,0.518162131898269
20699.9999999793,74.4578989871257,1.00000000054176,0.527216473947396
20799.9999999778,74.226880773447,1.00000000057239,0.537185964595095
20899.9999999764,73.9846039909089,1.00000000053862,0.545696386720999
20999.9999999749,73.7379480759326,1.00000000048314,0.544910729714095
21099.9999999734,73.4957239899504,1.00000000043084,0.535957550414189
21199.999999972,73.2675943636982,1.00000000037176,0.518308715967528
21299.9999999705,73.0623276476527,1.00000000033073,0.493684717707625
21399.9999999691,72.8868564593122,1.00000000030031,0.474795283525167
21499.9999999676,72.7455398543975,1.00000000031649,0.458344092376881
21599.9999999662,72.6400358475476,1.00000000031871,0.45007967105652
21699.9999999647,72.5693279212355,1.00000000030744,0.448558896566175
21799.9999999633,72.5292853246297,1.00000000034183,0.446622571794243
21899.9999999618,72.5132711029967,1.00000000036619,0.443550720272307
21999.9999999603,72.5113635998639,1.00000000042022,0.445621979905073
22099.9999999589,72.5153165582105,1.00000000044266,0.452594621454864
22199.9999999574,72.5219463857898,1.0000000004292,0.457070139388178
22299.999999956,72.5331250107393,1.00000000042042,0.456878252844881
22399.9999999545,72.5516978878379,1.00000000040393,0.459385182029892
22499.9999999531,72.5777833248621,1.00000000039718,0.471921783291611
22599.9999999516,72.6083005413394,1.00000000040841,0.4866713767818
22699.9999999502,72.6384732248016,1.00000000041594,0.497667880039293
22799.9999999487,72.6633961569365,1.00000000046101,0.507194744572965
22899.9999999473,72.6800321814278,1.00000000045584,0.520688187925146
22999.9999999458,72.68916870371,1.00000000045075,0.533192507781717
23099.9999999443,72.6940954595258,1.00000000044343,0.537854978061486
23199.9999999429,72.6976140649038,1.00000000042121,0.53775023442178
23299.9999999414,72.7003307038297,1.00000000040159,0.53799000968614
23399.99999994,72.7009776533149,1.00000000040546,0.539704372273699
23499.9999999385,72.6971358410342,1.00000000041242,0.544295593571717
23599.9999999371,72.6864708046289,1.00000000043182,0.546500434323934
23699.9999999356,72.6661960257036,1.0000000004725,0.544456736823714
23799.9999999342,72.6339097352337,1.00000000043761,0.541898215862731
23899.9999999327,72.5880710875408,1.00000000046604,0.538259186869485
23999.9999999312,72.526547305101,1.00000000046513,0.536854327338498
24099.9999999298,72.4482424124767,1.0000000004947,0.533861046081399
24199.9999999283,72.3543772208333,1.00000000049878,0.529742771084695
24299.9999999269,72.2474819805498,1.00000000047061,0.532971624400648
24399.9999999254,72.1306205407685,1.00000000044361,0.54019534865989
24499.999999924,72.0072146327001,1.00000000043789,0.545874584742887
24599.9999999225,71.8794653455593,1.00000000041791,0.548624219188834
24699.9999999211,71.7495051826231,1.00000000040985,0.55070631473606
24799.9999999196,71.6200006720929,1.00000000038962,0.549219662506675
24899.9999999181,71.4934414780935,1.00000000036228,0.545283717154435
24999.9999999167,71.3720885292693,1.00000000035979,0.54422954594257
25099.9999999152,71.2560005942139,1.00000000036381,0.544938695325683
25199.9999999138,71.1432172407324,1.00000000037315,0.544833928908682
25299.9999999123,71.0317088416501,1.00000000039316,0.542392536672836
25399.9999999109,70.9185535980096,1.00000000041619,0.542755722483747
25499.9999999094,70.8015072975347,1.00000000044024,0.544025450325049
25599.999999908,70.6783807899728,1.00000000046651,0.541394280046288
25699.9999999065,70.5470918507514,1.00000000049802,0.536441057167818
25799.9999999051,70.4067765286174,1.00000000051166,0.532377145838557
25899.9999999036,70.2568365659298,1.00000000054618,0.532853779700713
25999.9999999021,70.0965231029127,1.00000000055452,0.537076648657607
26099.9999999007,69.9268217804775,1.00000000051621,0.542357668679999
26199.9999998992,69.7513238191105,1.00000000052251,0.546494058221121
26299.9999998978,69.5756252726181,1.00000000045852,0.545579830353984
26399.9999998963,69.4059421150273,1.00000000040222,0.539632957815771
26499.9999998949,69.2488660576679,1.00000000035222,0.52697299550305
26599.9999998934,69.1101994785206,1.0000000003214,0.511459619817186
26699.999999892,68.9948284450386,1.00000000031864,0.500172666025919
26799.9999998905,68.9066304870468,1.00000000030265,0.489493232048068
26899.999999889,68.8482228461343,1.00000000032237,0.479612951301418
26999.9999998876,68.8205481607684,1.00000000033493,0.471548859426255
27099.9999998861,68.8220452381639,1.00000000031744,0.464019228769502
27199.9999998847,68.8501375561958,1.00000000035478,0.459843711279253
27299.9999998832,68.8999707306303,1.00000000036455,0.460075738752859
27399.9999998818,68.9643036562082,1.00000000042069,0.463237374890336
27499.9999998803,69.0378123229794,1.00000000042353,0.469400624762677
27599.9999998789,69.1177422492292,1.00000000042274,0.472850433044583
27699.9999998774,69.2042489919448,1.00000000042277,0.47067227531378
27799.9999998759,69.298122743893,1.00000000041161,0.467047351002973
27899.9999998745,69.3975659586241,1.0000000003875,0.470244993479598
27999.999999873,69.4996060630812,1.00000000045605,0.476904221245639
28099.9999998716,69.6035171717007,1.00000000040828,0.483671292709891
28199.9999998701,69.710066156446,1.0000000004216,0.491875011758349
28299.9999998687,69.8203589751914,1.00000000041556,0.500145148139439
28399.9999998672,69.9325273521495,1.00000000042429,0.507875419387428
28499.9999998658,70.0442697641157,1.00000000042169,0.516570255676152
28599.9999998643,70.1534804224003,1.00000000044182,0.524939555786319
28699.9999998629,70.2584312212881,1.0000000004427,0.532300596951752
28799.9999998614,70.3573392505279,1.0000000004465,0.538317653023192
28899.9999998599,70.449582632224,1.00000000042568,0.544539083310389
28999.9999998585,70.5341932474683,1.00000000041201,0.551278749797934
