Time,AGPnorm,Energy,Entropy
0,0,1,-7.46169559210043e-17
99.9999999999986,0.0020389226553801,0.999999999997846,0.00602712038847362
199.999999999993,0.0137412389743405,0.99999999999724,0.017302842294369
300,0.0271791698035179,0.999999999999606,0.0319666378396144
400.000000000022,0.039908927096611,1.00000000000069,0.050855616792168
500.000000000045,0.0556464378573864,0.999999999998347,0.0738672436926079
600.000000000068,0.0766432919576199,0.999999999996906,0.100923844432391
700.000000000091,0.0950687281731573,0.999999999998984,0.132837383528201
800.000000000113,0.113831120557775,1.00000000000705,0.173257036710581
900.000000000136,0.130614839599447,1.00000000007602,0.22636800104816
1000.00000000016,0.146775842975517,1.00000000034959,0.289426041480158
1100.0000000001,0.19857330790522,1.00000000081154,0.35034426845739
1200,0.344751944813689,1.00000000126814,0.403611237092687
1299.99999999991,0.644533147181127,1.0000000017824,0.449000628296194
1399.99999999982,1.23373428524458,1.0000000021151,0.486073960869382
1499.99999999973,2.2233622341455,1.00000000245826,0.514673265631609
1599.99999999964,3.61392104154227,1.00000000260671,0.538391830277945
1699.99999999955,5.40085896006566,1.00000000281058,0.557413292420198
1799.99999999946,7.59981328086519,1.00000000261315,0.571626901947223
1899.99999999937,10.1390957649564,1.00000000284427,0.58022262226344
1999.99999999928,12.8820970418889,1.0000000027457,0.587887287826886
2099.99999999919,15.7446390324518,1.0000000026919,0.593441804275112
2199.99999999909,18.6886823542354,1.00000000261397,0.595527443602064
2299.999999999,21.6300620105166,1.00000000243803,0.596179381585233
2399.99999999891,24.4597120106728,1.00000000244526,0.595643246455954
2499.99999999882,27.1092750674242,1.00000000233915,0.595897633013202
2599.99999999873,29.5621234460961,1.00000000222417,0.593401057630553
2699.99999999864,31.8011760786925,1.00000000200672,0.590163889583022
2799.99999999855,33.7868888643055,1.00000000206729,0.587471534923503
2899.99999999846,35.4918366785021,1.00000000189891,0.587149957304585
2999.99999999837,36.9157706985714,1.00000000181516,0.586211049590017
3099.99999999828,38.0778560619012,1.00000000180942,0.583628976011156
3199.99999999819,38.9880295450589,1.00000000166351,0.579964765922976
3299.99999999809,39.6522758072348,1.00000000154975,0.577773984119702
3399.999999998,40.0838262698904,1.0000000015466,0.578673919253585
3499.99999999791,40.3119807605386,1.00000000149687,0.5711479597691
3599.99999999782,40.3643784715289,1.0000000016071,0.582392242799337
3699.99999999773,40.2594191085733,1.00000000134114,0.559356590949871
3799.99999999764,40.0395009935272,1.0000000017064,0.57759447173014
3899.99999999755,39.6945982948918,1.00000000138916,0.553124517580851
3999.99999999746,39.2894073588266,1.00000000175971,0.571777884415113
4099.99999999738,38.8015839030853,1.00000000125957,0.536355678345383
4199.99999999775,38.2822841989668,1.00000000182509,0.575540170337332
4299.99999999811,37.7285614581855,1.0000000012802,0.529299025715369
4399.99999999848,37.1324626384476,1.0000000018446,0.574169382554514
4499.99999999884,36.5478156454376,1.00000000146067,0.534918837096967
4599.9999999992,35.9326801918525,1.00000000134513,0.516706436019525
4699.99999999957,35.3227829105691,1.00000000202393,0.572337850543672
4799.99999999993,34.7268720382424,1.00000000141724,0.515182105576569
4900.00000000029,34.1151985315395,1.00000000144549,0.513590612584511
5000.00000000066,33.5156166901997,1.0000000020059,0.556541303681889
5100.00000000102,32.9373938355485,1.0000000014993,0.505712754713181
5200.00000000139,32.3599343801052,1.00000000138401,0.513419651589857
5300.00000000175,31.788015136915,1.00000000173184,0.530624393587326
5400.00000000211,31.2361080646438,1.00000000188676,0.528220372390573
5500.00000000248,30.6988191124388,1.0000000014104,0.498579294206047
5600.00000000284,30.1711529839966,1.00000000154964,0.527712722585875
5700.00000000321,29.6561303798404,1.00000000170195,0.518791523280729
5800.00000000357,29.1571243027377,1.00000000174224,0.525281297341268
5900.00000000393,28.6745101864684,1.00000000142269,0.49973187259647
6000.0000000043,28.2074087424247,1.00000000160094,0.534089454247227
6100.00000000466,27.7543875965061,1.00000000155702,0.52816364142175
6200.00000000502,27.3176394739219,1.00000000159122,0.512302881683413
6300.00000000539,26.8947434058274,1.00000000183176,0.516628355434447
6400.00000000575,26.4885110059323,1.00000000145912,0.507267888144343
6500.00000000612,26.0996911428618,1.00000000163807,0.534259875263388
6600.00000000648,25.7204904075539,1.0000000017386,0.54314029004986
6700.00000000684,25.3599919032536,1.00000000138159,0.500532739057947
6800.00000000721,25.015142579355,1.00000000172386,0.521384902984533
6900.00000000757,24.6798285723077,1.00000000165613,0.510963935594823
7000.00000000793,24.3604463006136,1.00000000156059,0.514013262232966
7100.0000000083,24.054768981039,1.0000000016502,0.536602117745163
7200.00000000866,23.7537441113173,1.00000000189425,0.543182155410197
7300.00000000903,23.4669728888848,1.00000000137891,0.518854096163507
7400.00000000939,23.1973682607178,1.00000000155936,0.508683457911336
7500.00000000975,22.9393805137313,1.00000000178998,0.525297219397463
7600.00000001012,22.6898571520186,1.00000000167352,0.516753479747362
7700.00000001048,22.4527848510458,1.00000000159483,0.525365740612117
7800.00000001084,22.2255985281759,1.00000000161298,0.545449067939771
7900.00000001121,22.0039894455862,1.00000000173219,0.540704922923803
8000.00000001157,21.787375788085,1.00000000172675,0.538876001395902
8100.00000001194,21.57979477587,1.0000000015855,0.543049244614601
8200.0000000123,21.3841137807819,1.00000000154731,0.521030331027506
8300.00000001266,21.2036790951053,1.00000000165605,0.535960713225804
8400.00000001303,21.0321886069763,1.00000000166332,0.534370349122153
8500.00000001339,20.8675880521341,1.00000000162056,0.536308497153738
8600.00000001376,20.7122386106492,1.0000000016973,0.546512596979735
8700.00000001412,20.5590088650888,1.00000000169986,0.561696750894764
8800.00000001448,20.4143421968823,1.00000000143185,0.545560476029707
8900.00000001485,20.2778340170592,1.00000000161106,0.54598483379719
9000.00000001521,20.1377752952877,1.00000000185875,0.552524234723859
9100.00000001557,19.9958998088867,1.00000000166017,0.563803111820208
9200.00000001594,19.8646261783004,1.00000000147308,0.538255786230312
9300.0000000163,19.7490808268006,1.00000000158444,0.541843108231783
9400.00000001667,19.6407752237707,1.00000000176951,0.557508567889228
9500.00000001703,19.5388085876887,1.00000000169392,0.545223094279173
9600.00000001739,19.4434512269242,1.00000000159853,0.553992658982933
9700.00000001776,19.3538760918052,1.00000000168343,0.561644627943423
9800.00000001812,19.2623263928187,1.00000000183763,0.562702493896879
9900.00000001848,19.1713415164007,1.00000000172636,0.561161541860876
10000.0000000188,19.0906296767114,1.00000000151519,0.550143801687544
10100.0000000192,19.0163345437974,1.00000000178127,0.565422762637569
10200.0000000196,18.9371416766034,1.00000000176603,0.560196628029495
10300.0000000199,18.8523098984098,1.00000000184562,0.567822390703578
10400.0000000203,18.7656434718105,1.00000000172295,0.580449786840271
10500.0000000207,18.683681003247,1.00000000160393,0.576610207383209
10600.000000021,18.6095869001252,1.00000000163251,0.577161645577915
10700.0000000214,18.5439853597009,1.00000000172037,0.574647429337059
10800.0000000218,18.4877398496345,1.00000000164668,0.5657933846162
10900.0000000221,18.4407100483298,1.00000000175489,0.559048216583059
11000.0000000225,18.3982591930169,1.00000000171252,0.571067132713941
11100.0000000229,18.3556618527453,1.00000000175437,0.58531935360487
11200.0000000232,18.3122884063769,1.00000000175408,0.580206057312877
11300.0000000236,18.2723931481093,1.00000000167701,0.574348772182483
11400.0000000239,18.231995226323,1.00000000170763,0.581563406100105
11500.0000000243,18.1929932434698,1.00000000176513,0.578827461081027
11600.0000000247,18.1599208546526,1.00000000156797,0.576006140119726
11700.000000025,18.1293191861938,1.00000000173028,0.584852461713716
11800.0000000254,18.0983304679927,1.00000000162779,0.5837211217865
11900.0000000258,18.0641533654602,1.00000000183014,0.588329108925032
12000.0000000261,18.0211948483333,1.00000000182728,0.597353930835957
12100.0000000265,17.9698034187244,1.00000000189056,0.613392507701521
12200.0000000269,17.915394739939,1.00000000179568,0.614833445745496
12300.0000000272,17.8660395462187,1.00000000161047,0.600207508668901
12400.0000000276,17.8251469332201,1.00000000165162,0.601486517293476
12500.0000000279,17.7940769491214,1.00000000177402,0.594301825550284
12600.0000000283,17.7724646290075,1.00000000174853,0.580566290825221
12700.0000000287,17.7590938231724,1.0000000018271,0.574972545816
12800.000000029,17.7505070483913,1.00000000183253,0.58241211035162
12900.0000000294,17.7406817777261,1.0000000018755,0.59003162902246
13000.0000000298,17.7305816403826,1.00000000175492,0.60039929458013
13100.0000000301,17.7201027507252,1.00000000180175,0.597956563128041
13200.0000000305,17.7102868746894,1.0000000017433,0.598742014674057
13300.0000000309,17.7062203992832,1.00000000170241,0.589797667607471
13400.0000000312,17.701195374437,1.00000000187824,0.591498061489675
13500.0000000316,17.688982463031,1.00000000181721,0.593951322078736
13600.0000000319,17.6789406656854,1.0000000016564,0.590126562895443
13700.0000000323,17.6775371970603,1.00000000177897,0.595983090006289
13800.0000000327,17.6793943148126,1.0000000018464,0.609449323986376
13900.000000033,17.6761288609572,1.00000000197571,0.61733082664479
14000.0000000334,17.6642934270952,1.00000000189213,0.618656522424824
14100.0000000338,17.649327419007,1.00000000186998,0.621617737549166
14200.0000000341,17.6331997414506,1.00000000189991,0.615807223641158
14300.0000000345,17.6130395731824,1.00000000183429,0.617365735052158
14400.0000000349,17.5880418310255,1.00000000195253,0.616437507475604
14500.0000000352,17.5571280088885,1.00000000191866,0.619330145935592
14600.0000000356,17.521598723945,1.00000000185224,0.617591138899803
14700.0000000359,17.4855912691665,1.00000000179898,0.611993992245944
14800.0000000363,17.4538516226349,1.00000000168975,0.611071855448757
14900.0000000367,17.4300281495478,1.00000000180522,0.607156887840018
15000.000000037,17.415196875311,1.0000000019015,0.606810695080943
15100.0000000374,17.407553677905,1.00000000176956,0.597242424882014
15200.0000000378,17.408875556185,1.0000000017447,0.594597596594645
15300.0000000381,17.418782025495,1.00000000187328,0.595797333582586
15400.0000000385,17.4293817788334,1.00000000197265,0.5995128643595
15500.0000000389,17.4398287674128,1.00000000189291,0.608110561738017
15600.0000000392,17.4505336807051,1.00000000194622,0.612910266021761
15700.0000000396,17.4598107398181,1.00000000191934,0.604614967667224
15800.0000000399,17.4728397562604,1.00000000178351,0.593814728644845
15900.0000000403,17.4892892293087,1.00000000187064,0.596902079997683
16000.0000000407,17.5019786097935,1.00000000200756,0.601533182129374
16100.000000041,17.5108592451645,1.00000000191483,0.605975824415315
16200.0000000414,17.5213544442879,1.00000000183714,0.608509416639819
16300.0000000418,17.5342186329435,1.00000000184893,0.602338950931958
16400.0000000418,17.5451231826455,1.00000000192523,0.602575636613691
16500.0000000404,17.5558502851165,1.00000000196305,0.600635382346865
16600.0000000389,17.5665021344208,1.0000000019602,0.592749987843531
16700.0000000375,17.5812140416595,1.00000000185776,0.604724454448096
16800.000000036,17.5972942694261,1.00000000191796,0.622340146827355
16900.0000000346,17.6084410169807,1.00000000204929,0.633238604245081
17000.0000000331,17.6151297178438,1.00000000198446,0.644303725056726
17100.0000000317,17.6196191097266,1.0000000019096,0.640809667725491
17200.0000000302,17.6182372208132,1.0000000020028,0.633152275173938
17300.0000000287,17.6147912272261,1.00000000183301,0.634096902683919
17400.0000000273,17.6115862945519,1.00000000202598,0.643741731817093
17500.0000000258,17.6064469336104,1.00000000193651,0.649518540191281
17600.0000000244,17.5986852773586,1.0000000019161,0.656144690620638
17700.0000000229,17.5888693354119,1.00000000194687,0.659392711521959
17800.0000000215,17.5751099399206,1.00000000209707,0.658477841245121
17900.00000002,17.5568955568147,1.00000000194208,0.6485908817262
18000.0000000186,17.5352880208859,1.00000000204057,0.644585519820003
18100.0000000171,17.5085143251577,1.00000000211556,0.644424398210042
18200.0000000156,17.4758808349244,1.00000000202315,0.630725479540575
18300.0000000142,17.4395496550588,1.00000000195772,0.631525721108513
18400.0000000127,17.4059558885658,1.00000000192477,0.631681063112935
18500.0000000113,17.3786443765155,1.00000000182156,0.627631978253472
18600.0000000098,17.3599443223852,1.00000000184685,0.627862399575836
18700.0000000084,17.348800251239,1.00000000195018,0.626493638791845
18800.0000000069,17.3427465525522,1.00000000199546,0.633581161515439
18900.0000000055,17.3442201115191,1.00000000189543,0.631515510292731
19000.000000004,17.354298268263,1.00000000196303,0.624169289434395
19100.0000000026,17.3721773343954,1.00000000196646,0.618521964534192
19200.0000000011,17.393221757601,1.00000000209653,0.61756658460512
19299.9999999996,17.4135902560098,1.00000000207714,0.623079089023393
19399.9999999982,17.4347987594354,1.00000000202776,0.619986747969823
19499.9999999967,17.4560064212206,1.00000000214008,0.630485973248792
19599.9999999953,17.4772311695153,1.00000000194228,0.627529257792824
19699.9999999938,17.5028337587084,1.00000000188725,0.619778649700586
19799.9999999924,17.5303964198137,1.00000000205574,0.612281410708621
19899.9999999909,17.5562176604624,1.0000000020766,0.608332510126529
19999.9999999895,17.5808237720896,1.00000000202937,0.614435180638158
20099.999999988,17.6080543879223,1.00000000212189,0.610827777824648
20199.9999999865,17.6325594212678,1.00000000220417,0.613868176206752
20299.9999999851,17.6530368398765,1.00000000218772,0.615119169492781
20399.9999999836,17.6722170424671,1.00000000200914,0.611619334496005
20499.9999999822,17.696253594808,1.0000000019456,0.608427084202826
20599.9999999807,17.7240273572285,1.00000000205425,0.613324093916732
20699.9999999793,17.7509355017881,1.0000000021593,0.611980263126419
20799.9999999778,17.7738320306802,1.00000000215486,0.618353685065322
20899.9999999764,17.7966769579593,1.00000000202723,0.625788583477639
20999.9999999749,17.8203527819066,1.00000000212559,0.642161559783235
21099.9999999734,17.8446836887549,1.00000000216741,0.645795039400945
21199.999999972,17.8627027636436,1.00000000228154,0.64537019701948
21299.9999999705,17.8776465820167,1.0000000021601,0.646531393319555
21399.9999999691,17.8919963417056,1.00000000212394,0.648558103898522
21499.9999999676,17.9029363228548,1.00000000210084,0.652331389474685
21599.9999999662,17.9164794169282,1.0000000020372,0.651362307962653
21699.9999999647,17.9339316123249,1.00000000208048,0.648596445836085
21799.9999999633,17.9524852753546,1.00000000216201,0.655896066848196
21899.9999999618,17.9676555393637,1.0000000022678,0.653499167791154
21999.9999999603,17.9802409710578,1.00000000204633,0.653912269722662
22099.9999999589,17.9921979892378,1.00000000214358,0.658592085609878
22199.9999999574,18.0014235443676,1.0000000022493,0.655161858614768
22299.999999956,18.0081253810795,1.0000000021769,0.653913008334005
22399.9999999545,18.013634773531,1.00000000215581,0.655149701439748
22499.9999999531,18.0177020220771,1.00000000223793,0.65948391108374
22599.9999999516,18.0223038617137,1.00000000204117,0.662792459386822
22699.9999999502,18.0268145442441,1.0000000021886,0.668495347323406
22799.9999999487,18.0306217919668,1.00000000220014,0.667326629858917
22899.9999999473,18.0316713664784,1.00000000221071,0.659095039925846
22999.9999999458,18.0298673366319,1.00000000223903,0.660419293121631
23099.9999999443,18.0259229081526,1.00000000212946,0.666461228099845
23199.9999999429,18.0201845406562,1.00000000222319,0.668225448654825
23299.9999999414,18.0120808078967,1.00000000220478,0.668145938036376
23399.99999994,18.0024923149591,1.00000000222318,0.66246043507807
23499.9999999385,17.991851462211,1.00000000232298,0.674811625009686
23599.9999999371,17.9797854683482,1.00000000214169,0.67057606109672
23699.9999999356,17.9679106110182,1.00000000220796,0.668420461091304
23799.9999999342,17.953654211992,1.00000000227136,0.666904973525208
23899.9999999327,17.936040184101,1.00000000221692,0.672783340790296
23999.9999999312,17.915414524987,1.00000000239433,0.684267553351487
24099.9999999298,17.8925365613136,1.00000000226551,0.679832628347683
24199.9999999283,17.870033616788,1.00000000221642,0.67987250451346
24299.9999999269,17.8450189919115,1.00000000231658,0.683322747954765
24399.9999999254,17.8187225270607,1.00000000224136,0.680280412875487
24499.999999924,17.7934547418723,1.00000000221741,0.6758511924634
24599.9999999225,17.769929849672,1.00000000213778,0.666393907428156
24699.9999999211,17.7505686249239,1.00000000210671,0.662195621785405
24799.9999999196,17.7370663148885,1.00000000219539,0.656063974966745
24899.9999999181,17.7295123807336,1.00000000219649,0.642773990720789
24999.9999999167,17.7265140217211,1.00000000219158,0.63880644215943
25099.9999999152,17.7285393678972,1.00000000228396,0.637637696568093
25199.9999999138,17.736353587216,1.00000000215487,0.643541770028212
25299.9999999123,17.7505052086019,1.00000000217256,0.645144992284232
25399.9999999109,17.7722215394698,1.00000000227128,0.643617409145442
25499.9999999094,17.7990058911673,1.0000000022051,0.646029425555666
25599.999999908,17.8303936395549,1.00000000224933,0.643911141144136
25699.9999999065,17.8639965534686,1.00000000226677,0.644043902806952
25799.9999999051,17.8967124383813,1.00000000242145,0.646726275444628
25899.9999999036,17.9288929423665,1.00000000239945,0.64825105511748
25999.9999999021,17.9622308928526,1.00000000239522,0.639865965397914
26099.9999999007,17.9984182139537,1.00000000231436,0.645402866967342
26199.9999998992,18.0353508815885,1.00000000236603,0.642472489205937
26299.9999998978,18.0739297499284,1.00000000241167,0.641307091603449
26399.9999998963,18.1164478463841,1.00000000222347,0.638315489596435
26499.9999998949,18.1615966159699,1.00000000235769,0.640158312211748
26599.9999998934,18.2059873063801,1.00000000245865,0.640597141855612
26699.999999892,18.2506991501139,1.00000000213197,0.63192536643085
26799.9999998905,18.2969925031779,1.00000000241068,0.639443528529227
26899.999999889,18.341113025348,1.00000000231445,0.640670337643265
26999.9999998876,18.3812936313627,1.00000000243599,0.640753473298248
27099.9999998861,18.4221622015917,1.00000000235445,0.632536505979143
27199.9999998847,18.4660812994683,1.00000000229507,0.623664752784343
27299.9999998832,18.5098348515171,1.00000000238802,0.635676496311235
27399.9999998818,18.5564579784959,1.00000000238257,0.63788259395667
27499.9999998803,18.6037967627535,1.00000000235448,0.632677424428207
27599.9999998789,18.6535054729178,1.00000000229461,0.634314808423975
27699.9999998774,18.7049410401909,1.00000000243671,0.63969045230917
27799.9999998759,18.7526420060909,1.00000000239166,0.651717775465741
27899.9999998745,18.7995996197315,1.0000000023406,0.658245346155546
27999.999999873,18.8448321297736,1.00000000237878,0.651047527477004
28099.9999998716,18.8882775383383,1.00000000240687,0.662809323614415
28199.9999998701,18.928163558558,1.0000000024882,0.667302951907032
28299.9999998687,18.9633281621636,1.00000000251756,0.675215103905597
28399.9999998672,18.9935617606194,1.00000000251057,0.673686138328008
28499.9999998658,19.0233281967414,1.00000000242347,0.671115282680631
28599.9999998643,19.0511473946383,1.00000000234743,0.673549414727366
28699.9999998629,19.0822654007552,1.00000000222183,0.672674023408879
28799.9999998614,19.1128946975846,1.0000000025308,0.685119888809196
28899.9999998599,19.1396451938634,1.00000000253144,0.685409715542155
28999.9999998585,19.1628128620547,1.00000000248887,0.690903596203611
29099.999999857,19.1836047314323,1.00000000230144,0.690369552926346
