Time,AGPnorm,Energy,Entropy
0,0,1,-7.38618625308193e-17
99.9999999999986,0.00160518096709185,0.999999999999574,0.00495646763489193
199.999999999993,0.0105386676311909,0.999999999996374,0.0142811485569248
300,0.0214123098333977,0.999999999996202,0.0260183827440008
400.000000000022,0.0318913763009509,0.999999999999126,0.0409722956923983
500.000000000045,0.0440440306019868,0.999999999999783,0.0594691128587038
600.000000000068,0.0607430884118737,0.9999999999975,0.080940666549723
700.000000000091,0.0768346997269879,0.999999999996095,0.104985963907713
800.000000000113,0.0932845312667437,0.999999999998702,0.133322042149272
900.000000000136,0.108825522482319,1.00000000000345,0.168420264419896
1000.00000000016,0.125448080849864,1.00000000003418,0.212999371838772
1100.0000000001,0.144192634618915,1.00000000016034,0.266264502677157
1200,0.18623795536523,1.00000000044538,0.32091547221758
1299.99999999991,0.259825447979771,1.0000000007992,0.371521130327167
1399.99999999982,0.430433307732836,1.00000000113197,0.415792019082512
1499.99999999973,0.839250996861732,1.00000000151533,0.452594817792143
1599.99999999964,1.57500615710168,1.00000000170083,0.482784756234901
1699.99999999955,2.65280565675914,1.00000000180152,0.508840725954433
1799.99999999946,4.1312398214461,1.00000000191528,0.53014687335515
1899.99999999937,6.07448061118829,1.00000000206381,0.546305613995751
1999.99999999928,8.44146012241437,1.0000000022065,0.558485332133067
2099.99999999919,11.1348228407676,1.00000000201821,0.569456290259088
2199.99999999909,14.1065807218617,1.00000000219169,0.576769892077278
2299.999999999,17.3151370007853,1.00000000206054,0.581871891471043
2399.99999999891,20.6672034759083,1.00000000191644,0.584798424875276
2499.99999999882,24.0530241006863,1.00000000199198,0.587541780153908
2599.99999999873,27.4084557535698,1.00000000187703,0.588262515048531
2699.99999999864,30.6923242312005,1.00000000185796,0.587954148423998
2799.99999999855,33.8457376827448,1.00000000177107,0.586933292656407
2899.99999999846,36.8072441128446,1.00000000176489,0.585608161883545
2999.99999999837,39.5377028465757,1.00000000166424,0.583298822186775
3099.99999999828,42.0282059849592,1.00000000159762,0.580468272084867
3199.99999999819,44.2644326066472,1.0000000016178,0.578652507208917
3299.99999999809,46.2268634300945,1.00000000154942,0.577587273258135
3399.999999998,47.9061086736951,1.00000000138721,0.575010272033471
3499.99999999791,49.3116738054656,1.00000000138837,0.572621116458158
3599.99999999782,50.4515699859056,1.00000000135417,0.5747760056651
3699.99999999773,51.3378733188023,1.00000000128658,0.5646990897088
3799.99999999764,51.9864041484325,1.000000001306,0.57265475963322
3899.99999999755,52.3982675126285,1.00000000121501,0.56364553110968
3999.99999999746,52.6146118713763,1.0000000012147,0.572009015070417
4099.99999999738,52.6518356143871,1.00000000110824,0.55375085050636
4199.99999999775,52.5285876328526,1.00000000134352,0.575270406286491
4299.99999999811,52.2908902887723,1.00000000101653,0.549026282640175
4399.99999999848,51.9090963970888,1.00000000120273,0.564944203760469
4499.99999999884,51.4800023960856,1.00000000137647,0.564197124830293
4599.9999999992,50.9500366122301,1.00000000089968,0.521638488078267
4699.99999999957,50.3673505256484,1.00000000149246,0.580473487845683
4799.99999999993,49.7747790934727,1.00000000105086,0.532080265671198
4900.00000000029,49.1030709547195,1.00000000095534,0.516193347429408
5000.00000000066,48.4257855063914,1.00000000162002,0.580439714876165
5100.00000000102,47.7648517723134,1.00000000109331,0.522844849620821
5200.00000000139,47.0552888728285,1.00000000091784,0.492972061894287
5300.00000000175,46.3375734620765,1.00000000165886,0.571328371585781
5400.00000000211,45.6557280249636,1.0000000013684,0.53691876176284
5500.00000000248,44.9636439134365,1.00000000093109,0.484159846322745
5600.00000000284,44.2517595705422,1.000000001162,0.506257325778268
5700.00000000321,43.5614438690564,1.00000000160576,0.564246117491849
5800.00000000357,42.899460352114,1.00000000123807,0.510436705827357
5900.00000000393,42.2374875792539,1.00000000099923,0.482369946017527
6000.0000000043,41.5729428393798,1.00000000117708,0.497167138666816
6100.00000000466,40.9243842829005,1.00000000150603,0.539576193100704
6200.00000000502,40.3005354621041,1.00000000139684,0.530535642707869
6300.00000000539,39.6915344918247,1.00000000109477,0.487787991671128
6400.00000000575,39.0919994187806,1.0000000010938,0.499416052911051
6500.00000000612,38.503429019763,1.00000000123089,0.504516261911462
6600.00000000648,37.9301624431753,1.00000000138488,0.524983661311228
6700.00000000684,37.3737335719972,1.00000000145122,0.528501390942407
6800.00000000721,36.8341542007259,1.0000000011104,0.497678622893141
6900.00000000757,36.3122237097942,1.00000000112435,0.505549766730753
7000.00000000793,35.8055603779222,1.00000000134233,0.524385158544408
7100.0000000083,35.3147222513954,1.00000000106281,0.50231031211726
7200.00000000866,34.8398648560191,1.00000000131079,0.517138381804059
7300.00000000903,34.3766604345616,1.00000000149862,0.526111824146555
7400.00000000939,33.9270903672259,1.00000000113107,0.508917639968324
7500.00000000975,33.4987433265067,1.00000000103213,0.498662041051695
7600.00000001012,33.0863337286556,1.00000000133374,0.523063921684697
7700.00000001048,32.6838738563813,1.00000000132738,0.528986377096229
7800.00000001084,32.3000711810997,1.00000000101272,0.488871892424672
7900.00000001121,31.9343702103712,1.000000001249,0.504499173918267
8000.00000001157,31.5755708708308,1.00000000142938,0.52946275564627
8100.00000001194,31.2213554470311,1.00000000133822,0.519391644463278
8200.0000000123,30.8851267009438,1.00000000108658,0.502712649988666
8300.00000001266,30.5684642429478,1.00000000120997,0.511962675988334
8400.00000001303,30.2597759826137,1.00000000144553,0.522664536985493
8500.00000001339,29.9548570527969,1.00000000136041,0.522571065480775
8600.00000001376,29.6658475847471,1.00000000106799,0.509526202681977
8700.00000001412,29.3958266719984,1.00000000113464,0.495592292325224
8800.00000001448,29.1355265300624,1.00000000132608,0.527489552101951
8900.00000001485,28.8770480572805,1.00000000144005,0.53477148158269
9000.00000001521,28.6215443839421,1.00000000133961,0.523037854110741
9100.00000001557,28.381413068792,1.0000000011211,0.514821847554947
9200.00000001594,28.1555962116989,1.00000000118401,0.524950057461381
9300.0000000163,27.938959510448,1.00000000122718,0.530919315577714
9400.00000001667,27.7285811372482,1.00000000123339,0.525880248331936
9500.00000001703,27.5232025663529,1.0000000012577,0.51632957636976
9600.00000001739,27.324154143633,1.00000000129198,0.535280616753494
9700.00000001776,27.1340875163752,1.00000000121338,0.532369417798559
9800.00000001812,26.953749356471,1.00000000123221,0.52371336111358
9900.00000001848,26.7821044845661,1.00000000126679,0.534889491231386
10000.0000000188,26.6146737231989,1.00000000136398,0.538345282610702
10100.0000000192,26.449363524981,1.00000000128011,0.536902953990485
10200.0000000196,26.2925900976608,1.00000000118978,0.53023384002001
10300.0000000199,26.1505860643459,1.00000000119018,0.527390673709215
10400.0000000203,26.0141881382716,1.00000000145307,0.539312120640454
10500.0000000207,25.8768320448061,1.00000000131929,0.54102086311464
10600.000000021,25.7506000630225,1.00000000108809,0.517037231786096
10700.0000000214,25.6375446919445,1.00000000117737,0.524512004645594
10800.0000000218,25.528210065891,1.00000000136134,0.526275211800782
10900.0000000221,25.4128197926214,1.00000000151708,0.550991626135312
11000.0000000225,25.2899590052559,1.00000000143057,0.563019400399598
11100.0000000229,25.1699660007225,1.00000000122248,0.553654829290561
11200.0000000232,25.0578325326999,1.00000000128472,0.546896764165578
11300.0000000236,24.9544027224893,1.00000000138181,0.548930000208168
11400.0000000239,24.8548509919927,1.00000000129851,0.544773807484863
11500.0000000243,24.7579032227685,1.0000000014145,0.54466828637692
11600.0000000247,24.6650232160882,1.0000000012294,0.542905962340858
11700.000000025,24.581489349918,1.0000000011217,0.545480974330381
11800.0000000254,24.5057242370853,1.00000000125582,0.553036495886515
11900.0000000258,24.4349843226694,1.00000000130615,0.546960551693124
12000.0000000261,24.3642083746258,1.00000000141386,0.548268683493284
12100.0000000265,24.2942634041095,1.00000000128848,0.547877856922303
12200.0000000269,24.2333632868088,1.00000000116914,0.532418903739155
12300.0000000272,24.1840610207326,1.00000000120527,0.5392442469115
12400.0000000276,24.1393998310068,1.00000000136434,0.560436471608456
12500.0000000279,24.0919175310416,1.0000000013754,0.556505881205975
12600.0000000283,24.0403526227528,1.0000000014041,0.560072984744459
12700.0000000287,23.9803337743625,1.00000000139251,0.561204619007341
12800.000000029,23.9126353446144,1.00000000140688,0.576919045187301
12900.0000000294,23.8398677514165,1.0000000013442,0.581850908017152
13000.0000000298,23.7661169707302,1.0000000012178,0.579590230694177
13100.0000000301,23.6979489562228,1.00000000118696,0.569073705616759
13200.0000000305,23.6392414911316,1.00000000134179,0.561358878215629
13300.0000000309,23.5866862397556,1.00000000130189,0.550832193016655
13400.0000000312,23.5376993581139,1.00000000130441,0.548866088855783
13500.0000000316,23.4927579925634,1.00000000130983,0.553962988601244
13600.0000000319,23.4530675824207,1.00000000128395,0.558309061625977
13700.0000000323,23.4201740224955,1.00000000122163,0.561415733974537
13800.0000000327,23.3936852276434,1.00000000136009,0.559519797241701
13900.000000033,23.3643534796885,1.0000000015006,0.56260562629441
14000.0000000334,23.336587130668,1.00000000132803,0.560973372436971
14100.0000000338,23.3147006688608,1.00000000117174,0.545035843600111
14200.0000000341,23.2986259636013,1.00000000128011,0.543935431922395
14300.0000000345,23.285627080813,1.00000000128943,0.549931721757908
14400.0000000349,23.2757665840342,1.0000000012816,0.558408313923803
14500.0000000352,23.2688288119227,1.00000000128469,0.573628774300908
14600.0000000356,23.2621320820659,1.00000000139541,0.582287472634015
14700.0000000359,23.2507295952642,1.00000000134821,0.591622042261562
14800.0000000363,23.2331662183059,1.00000000136607,0.599467400301618
14900.0000000367,23.2133528171142,1.00000000125719,0.593202329217537
15000.000000037,23.1936775773999,1.00000000129774,0.593457787875581
15100.0000000374,23.1717768775379,1.00000000133983,0.588554672332092
15200.0000000378,23.1421064116516,1.00000000139745,0.597062343048567
15300.0000000381,23.1040127446894,1.00000000141684,0.593849899109296
15400.0000000385,23.0556962697243,1.00000000141575,0.603209603425283
15500.0000000389,23.0025834658545,1.00000000138895,0.605762592275497
15600.0000000392,22.9489737536143,1.00000000127779,0.605452794757883
15700.0000000396,22.8989787911209,1.00000000123854,0.598183066808218
15800.0000000399,22.8573581918168,1.00000000129244,0.588997309496997
15900.0000000403,22.8231730264632,1.00000000135937,0.5844825379344
16000.0000000407,22.7943726359266,1.00000000143249,0.578698226263869
16100.000000041,22.7710387716966,1.00000000139619,0.579017814497919
16200.0000000414,22.7513779686028,1.00000000144912,0.578684313049197
16300.0000000418,22.7362853474816,1.00000000135819,0.575160819509901
16400.0000000418,22.7266579676265,1.0000000012913,0.587565302667703
16500.0000000404,22.7226963379982,1.00000000128979,0.583879485390334
16600.0000000389,22.719398534805,1.00000000139733,0.582355406519041
16700.0000000375,22.7165406477487,1.00000000138322,0.577655315986372
16800.000000036,22.7160891101833,1.00000000135631,0.572450893030135
16900.0000000346,22.7187643467496,1.0000000014002,0.560640760128673
17000.0000000331,22.7251986532695,1.00000000130668,0.565212763783836
17100.0000000317,22.7378001273723,1.00000000137258,0.574666333552093
17200.0000000302,22.7543015511794,1.00000000138334,0.576039859352971
17300.0000000287,22.7705640093748,1.00000000142828,0.580329420153539
17400.0000000273,22.78520096593,1.0000000014603,0.581718375436762
17500.0000000258,22.7984767064887,1.00000000144798,0.574861363990963
17600.0000000244,22.8123207878169,1.0000000013411,0.576597533958965
17700.0000000229,22.8251481439651,1.00000000142856,0.59602454781568
17800.0000000215,22.8361684653831,1.00000000136918,0.603726656807887
17900.00000002,22.8439074725086,1.0000000013948,0.609414062609873
18000.0000000186,22.8482109671402,1.00000000139818,0.615567639014481
18100.0000000171,22.8491546182905,1.00000000140043,0.613191215155209
18200.0000000156,22.8436067607473,1.00000000146268,0.611829431503765
18300.0000000142,22.8357886011469,1.00000000135787,0.618066282367486
18400.0000000127,22.8278038220692,1.00000000142597,0.626796141663993
18500.0000000113,22.8165523289946,1.00000000147064,0.629564927267777
18600.0000000098,22.8009690117113,1.00000000135127,0.631252034320219
18700.0000000084,22.7807930729495,1.00000000138,0.630380488716108
18800.0000000069,22.7578211097847,1.00000000135885,0.625495997721559
18900.0000000055,22.730581436952,1.00000000137625,0.625893956869606
19000.000000004,22.6979138841994,1.00000000146705,0.622538008886191
19100.0000000026,22.6597941773285,1.00000000152743,0.622355848974589
19200.0000000011,22.6152635700963,1.00000000162841,0.623001749008614
19299.9999999996,22.5659758431115,1.00000000148094,0.616301584843078
19399.9999999982,22.5160276912711,1.00000000138769,0.619973643243262
19499.9999999967,22.4676245922833,1.00000000137225,0.617225553588192
19599.9999999953,22.4235338139555,1.00000000130401,0.610288158131028
19699.9999999938,22.3852831189314,1.00000000130123,0.609982386230543
19799.9999999924,22.3531868654669,1.00000000144008,0.608579410150842
19899.9999999909,22.3265792644679,1.00000000146999,0.607394745316064
19999.9999999895,22.3034591174245,1.00000000140691,0.607834464566681
20099.999999988,22.2850162687522,1.00000000146575,0.600424801829946
20199.9999999865,22.2713245556434,1.00000000136668,0.586645985251207
20299.9999999851,22.2636033871564,1.00000000139306,0.580831860094961
20399.9999999836,22.2600862745934,1.0000000013616,0.581129430664711
20499.9999999822,22.2612960163791,1.00000000140415,0.588827842077651
20599.9999999807,22.2667702257342,1.00000000151506,0.597233843435758
20699.9999999793,22.2744666823797,1.00000000138958,0.599264595955181
20799.9999999778,22.2844188481465,1.00000000142634,0.595500167620252
20899.9999999764,22.2956056134283,1.00000000144681,0.591691349744444
20999.9999999749,22.3085632009194,1.00000000141639,0.586839408691948
21099.9999999734,22.3239262898738,1.00000000146396,0.576620913519626
21199.999999972,22.343276198683,1.00000000130197,0.570440985872909
21299.9999999705,22.3687895469775,1.00000000142677,0.572609083806901
21399.9999999691,22.3973414739354,1.00000000140192,0.576008112106636
21499.9999999676,22.4252475013692,1.00000000143842,0.581031912587456
21599.9999999662,22.4528863882156,1.00000000140187,0.583297970536287
21699.9999999647,22.483150671255,1.00000000139784,0.586593699869502
21799.9999999633,22.5137677999632,1.00000000149549,0.589799183347386
21899.9999999618,22.5419282525023,1.00000000151736,0.589694623647219
21999.9999999603,22.5648500039975,1.00000000152849,0.59873378732828
22099.9999999589,22.5839048615058,1.00000000147936,0.604261261392162
22199.9999999574,22.6009583442096,1.00000000153694,0.619624098954232
22299.999999956,22.6172192343602,1.00000000146097,0.630626643223917
22399.9999999545,22.6314964237574,1.00000000145683,0.631010609799648
22499.9999999531,22.643116035844,1.00000000147898,0.633776924174937
22599.9999999516,22.6526670225127,1.00000000148443,0.626541104198348
22699.9999999502,22.6617427537579,1.00000000139782,0.629086505499493
22799.9999999487,22.6717578202757,1.00000000142518,0.633646304710141
22899.9999999473,22.6818934190795,1.00000000147481,0.638615186171245
22999.9999999458,22.6925169294479,1.00000000141533,0.639409449386537
23099.9999999443,22.702030347687,1.00000000148938,0.638064143697853
23199.9999999429,22.7060258726103,1.00000000162232,0.635392725428254
23299.9999999414,22.7056584178773,1.00000000153244,0.641167542065395
23399.99999994,22.7025854896268,1.00000000144406,0.646643330039811
23499.9999999385,22.6968344781282,1.00000000152523,0.646040880457192
23599.9999999371,22.6896435169526,1.00000000141192,0.638080514646082
23699.9999999356,22.6801885294381,1.00000000151493,0.645538933210087
23799.9999999342,22.6707411221283,1.0000000014183,0.646802744325091
23899.9999999327,22.6627342161232,1.00000000139015,0.637800929681596
23999.9999999312,22.6559065598989,1.00000000150495,0.640705810653354
24099.9999999298,22.6475065714962,1.0000000015209,0.639271792084367
24199.9999999283,22.6355649295864,1.00000000160845,0.642540201575937
24299.9999999269,22.6181774317541,1.0000000015368,0.642073531016968
24399.9999999254,22.5979024411307,1.00000000145918,0.640821967931476
24499.999999924,22.5766049275893,1.00000000159864,0.649841380585708
24599.9999999225,22.5526757074319,1.00000000152759,0.646679312707046
24699.9999999211,22.5280986399803,1.00000000150431,0.646127233058529
24799.9999999196,22.5030897534651,1.00000000149012,0.650568810813168
24899.9999999181,22.4758342089851,1.00000000151364,0.649620093835185
24999.9999999167,22.4481277600023,1.00000000149117,0.636826766130445
25099.9999999152,22.4187212685889,1.00000000149177,0.639445402267997
25199.9999999138,22.3869066723478,1.00000000144451,0.639533810267724
25299.9999999123,22.3526378913466,1.00000000156664,0.640963133508909
25399.9999999109,22.3164720406875,1.00000000146986,0.64092544830103
25499.9999999094,22.277697983934,1.00000000164196,0.653188850432277
25599.999999908,22.2358422134438,1.00000000164389,0.64756467519728
25699.9999999065,22.1915990291521,1.00000000156097,0.64710832127342
25799.9999999051,22.1464427788815,1.00000000151242,0.646381976204171
25899.9999999036,22.1010448121269,1.00000000146994,0.649851237654055
25999.9999999021,22.0565362162156,1.00000000155135,0.648438684437534
26099.9999999007,22.0150152933138,1.00000000144932,0.635095423174311
26199.9999998992,21.9764978503625,1.00000000145986,0.626246315799534
26299.9999998978,21.9416457340207,1.00000000148615,0.621776947122148
26399.9999998963,21.911035588089,1.00000000150832,0.62233404026043
26499.9999998949,21.8849142503443,1.00000000149952,0.624014877528194
26599.9999998934,21.8627367173119,1.00000000156183,0.627880644644391
26699.999999892,21.8431408647462,1.00000000154115,0.631189070722701
26799.9999998905,21.8276398015611,1.00000000149261,0.627645399972517
26899.999999889,21.816511861555,1.00000000148414,0.626705607432826
26999.9999998876,21.8090102905381,1.0000000015072,0.623382481424102
27099.9999998861,21.8070066275763,1.00000000152773,0.61467406506241
27199.9999998847,21.8092300706379,1.00000000158958,0.612350806420224
27299.9999998832,21.8148492756903,1.00000000153584,0.614282101593252
27399.9999998818,21.825348032021,1.00000000155436,0.61142872733341
27499.9999998803,21.8375022582272,1.00000000156836,0.613318654505056
27599.9999998789,21.8527284611306,1.00000000155255,0.608866552003989
27699.9999998774,21.871076812844,1.00000000150308,0.605172854348076
27799.9999998759,21.8907972848277,1.00000000163354,0.602129797351765
27899.9999998745,21.9109878223296,1.00000000146635,0.593901025245903
27999.999999873,21.9343239178668,1.00000000156809,0.596058969566869
28099.9999998716,21.9604469373848,1.00000000159616,0.599584179559375
28199.9999998701,21.9867151846511,1.00000000156986,0.59603038470175
28299.9999998687,22.0172261786581,1.00000000151259,0.588782982818949
28399.9999998672,22.0532598676582,1.00000000154819,0.592180321906899
28499.9999998658,22.0911712061488,1.00000000158436,0.594822262891781
28599.9999998643,22.1293339623624,1.00000000156721,0.598882631035145
28699.9999998629,22.1701428396213,1.00000000151546,0.59994260488214
28799.9999998614,22.2126734746586,1.00000000168457,0.607721849958708
28899.9999998599,22.2558478567038,1.00000000159112,0.610687934050316
28999.9999998585,22.2988550903953,1.00000000167796,0.616867058625537
