Time,AGPnorm,Energy,Entropy
0,0,1,-7.37703360592817e-17
99.9999999999986,0.000255170880842218,0.999999999999472,0.00102613024085851
199.999999999993,0.0017140596973857,0.999999999998332,0.00311763838641931
300,0.0035587794713879,0.999999999998549,0.00582772558907998
400.000000000022,0.00542377139750004,0.999999999999749,0.00924539205094987
500.000000000045,0.00783513878316892,0.999999999999824,0.0134687098949347
600.000000000068,0.01099322994168,0.999999999998711,0.018313471298283
700.000000000091,0.0145058671306631,0.999999999998285,0.0235518730493913
800.000000000113,0.0185386820132035,0.999999999999309,0.0292007727335779
900.000000000136,0.0227358818609145,0.99999999999997,0.0354203305342915
1000.00000000016,0.0273065625193966,0.999999999999174,0.0421768461158292
1100.0000000001,0.0326562277118677,0.999999999998283,0.0493358858686764
1200,0.0381373655842879,0.999999999998844,0.0568372952402765
1299.99999999991,0.0435414804515117,0.99999999999989,0.0648877165199155
1399.99999999982,0.0496015961133431,0.999999999999558,0.0735015861406266
1499.99999999973,0.0559676449721727,0.999999999998486,0.0826020881804854
1599.99999999964,0.0622946768600341,0.999999999998622,0.092184099055716
1699.99999999955,0.0688147625458708,0.999999999999528,0.102372302279271
1799.99999999946,0.075521677852008,0.99999999999988,0.113319541909426
1899.99999999937,0.0821645236737599,0.999999999999132,0.125044799697906
1999.99999999928,0.0892180640570217,0.999999999998672,0.137554432842054
2099.99999999919,0.0964163980027565,0.999999999999685,0.151069147263441
2199.99999999909,0.103273916763795,1.00000000000133,0.165795336445534
2299.999999999,0.110138945691249,1.00000000000246,0.181921267635871
2399.99999999891,0.117543387434609,1.00000000000458,0.199487971355463
2499.99999999882,0.127272556401421,1.00000000001075,0.218418431889268
2599.99999999873,0.1388566816896,1.00000000002028,0.238595089624396
2699.99999999864,0.152545170862633,1.00000000003395,0.259830280444325
2799.99999999855,0.175380867250975,1.0000000000483,0.281457366778582
2899.99999999846,0.222733565621342,1.00000000007064,0.302700925608753
2999.99999999837,0.30507334410385,1.00000000009368,0.323510987998851
3099.99999999828,0.432144935389343,1.00000000012244,0.343414593941277
3199.99999999819,0.632205521219315,1.00000000013383,0.362237851719412
3299.99999999809,0.950756790244655,1.00000000016136,0.379564839867066
3399.999999998,1.42324238573743,1.00000000020478,0.395516216358764
3499.99999999791,2.07225820090854,1.00000000022057,0.410276743649959
3599.99999999782,2.93950621671752,1.00000000025484,0.42381417642113
3699.99999999773,4.08496199755071,1.00000000026635,0.436123256452484
3799.99999999764,5.55282468787058,1.00000000026358,0.447118908928324
3899.99999999755,7.36246097006016,1.00000000030433,0.457232582457754
3999.99999999746,9.53961990928421,1.00000000030121,0.466608356588662
4099.99999999738,12.1312386840393,1.000000000314,0.474859042203651
4199.99999999775,15.1697689879062,1.00000000034288,0.481929220245922
4299.99999999811,18.65142803142,1.0000000003509,0.488758951563124
4399.99999999848,22.5736640974471,1.00000000035644,0.494773095684294
4499.99999999884,26.9568146392164,1.0000000003741,0.499872369882691
4599.9999999992,31.811713068919,1.00000000036921,0.504445724062189
4699.99999999957,37.1113009103367,1.00000000037685,0.508510722864963
4799.99999999993,42.8296700021242,1.00000000038658,0.512022631546804
4900.00000000029,48.9572919347627,1.00000000040191,0.515024520847353
5000.00000000066,55.4874875632711,1.00000000037113,0.517738522528226
5100.00000000102,62.3861364981948,1.00000000038835,0.519809440164146
5200.00000000139,69.6045595771668,1.00000000038812,0.521632083914956
5300.00000000175,77.1167989362761,1.00000000039165,0.523225598712768
5400.00000000211,84.9061098964433,1.00000000037156,0.524515452451519
5500.00000000248,92.9380956868814,1.00000000037724,0.525346337611055
5600.00000000284,101.158000130532,1.00000000037778,0.525863746895907
5700.00000000321,109.530024933819,1.00000000038718,0.52645346492184
5800.00000000357,118.031623353662,1.00000000036195,0.526875269238057
5900.00000000393,126.636458828422,1.00000000036681,0.526361179189809
6000.0000000043,135.296837645865,1.00000000036958,0.525806426749488
6100.00000000466,143.967528681865,1.00000000036439,0.526236560175635
6200.00000000502,152.629561513283,1.00000000035047,0.525929562435022
6300.00000000539,161.261465029152,1.00000000035565,0.524454355034372
6400.00000000575,169.827629025962,1.00000000035757,0.523176234736228
6500.00000000612,178.288808574369,1.00000000034097,0.523590225806179
6600.00000000648,186.624428784764,1.00000000033539,0.522978101276757
6700.00000000684,194.819395948907,1.00000000031921,0.521145925433827
6800.00000000721,202.853401115309,1.0000000003256,0.519266363343031
6900.00000000757,210.697496875291,1.00000000031924,0.518821418434815
7000.00000000793,218.327443030723,1.00000000031829,0.518507099047213
7100.0000000083,225.738514514346,1.00000000030871,0.517207050901208
7200.00000000866,232.919134600492,1.00000000030554,0.515040436910379
7300.00000000903,239.852827696341,1.000000000308,0.513506152275607
7400.00000000939,246.521033249582,1.00000000028459,0.512859639913237
7500.00000000975,252.918631653628,1.00000000029563,0.51223838946565
7600.00000001012,259.044184533686,1.00000000029413,0.510795622382179
7700.00000001048,264.890043323901,1.00000000027888,0.508807326589363
7800.00000001084,270.447063236661,1.00000000027786,0.507817693095083
7900.00000001121,275.709325225818,1.00000000027294,0.507443648820378
8000.00000001157,280.681784622634,1.00000000026119,0.507060170792401
8100.00000001194,285.363709343772,1.00000000026334,0.50521627136978
8200.0000000123,289.748725161633,1.00000000026092,0.501940253655293
8300.00000001266,293.830876541592,1.0000000002493,0.499424899401968
8400.00000001303,297.6149183041,1.00000000025124,0.499375871951127
8500.00000001339,301.113662119839,1.00000000024374,0.502113549570368
8600.00000001376,304.33739793963,1.00000000023728,0.504937207994398
8700.00000001412,307.289035919422,1.00000000022239,0.503958477961664
8800.00000001448,309.96459182487,1.00000000023011,0.49805617622896
8900.00000001485,312.36051466362,1.00000000022449,0.489717304330359
9000.00000001521,314.472256534554,1.0000000002194,0.484255676734242
9100.00000001557,316.306311907359,1.00000000021272,0.488308758405168
9200.00000001594,317.886060160658,1.00000000022511,0.499466719966123
9300.0000000163,319.246373210534,1.00000000022964,0.509433590409978
9400.00000001667,320.415123069998,1.0000000002455,0.511890859989252
9500.00000001703,321.393509639861,1.0000000002286,0.5031791956606
9600.00000001739,322.1562215301,1.00000000019784,0.485164777997465
9700.00000001776,322.670150419066,1.00000000017561,0.467664915775813
9800.00000001812,322.92379250711,1.00000000015837,0.463290794559239
9900.00000001848,322.942482052942,1.00000000017525,0.47757989188561
10000.0000000188,322.782304978885,1.00000000020664,0.500918798941172
10100.0000000192,322.505420322629,1.0000000002422,0.520191626682195
10200.0000000196,322.154410725592,1.0000000002563,0.52722462017274
10300.0000000199,321.736306745117,1.00000000024935,0.518297992697813
10400.0000000203,321.216825024528,1.00000000021476,0.49266222597361
10500.0000000207,320.53723450634,1.0000000001633,0.457397097209449
10600.000000021,319.648206914641,1.00000000012647,0.43097352578352
10700.0000000214,318.545536881327,1.00000000012429,0.432759033270769
10800.0000000218,317.277058913986,1.00000000016433,0.461939650739776
10900.0000000221,315.91725927077,1.00000000020933,0.497815006272453
11000.0000000225,314.536565227361,1.00000000027016,0.525031117847747
11100.0000000229,313.18201317048,1.00000000029,0.538266685850483
11200.0000000232,311.867211563606,1.00000000028152,0.536346848967001
11300.0000000236,310.568310925847,1.00000000025535,0.516091145700343
11400.0000000239,309.230965772975,1.00000000020073,0.475830483333913
11500.0000000243,307.788578265249,1.00000000014163,0.424899168777003
11600.0000000247,306.194379874799,1.00000000009693,0.384842760717788
11700.000000025,304.447082732436,1.00000000009056,0.381707163947076
11800.0000000254,302.587184645986,1.00000000013023,0.418624776440615
11900.0000000258,300.674711857957,1.00000000020033,0.467989267902394
12000.0000000261,298.768030686861,1.00000000026224,0.507814541430574
12100.0000000265,296.912057650645,1.00000000029617,0.531347312423734
12200.0000000269,295.132260555407,1.0000000003295,0.542046428246385
12300.0000000272,293.432121544791,1.00000000032226,0.541727327002388
12400.0000000276,291.79296485983,1.0000000002854,0.52540453137858
12500.0000000279,290.175996798875,1.00000000023951,0.488988429380131
12600.0000000283,288.532077151282,1.00000000019163,0.434666210694883
12700.0000000287,286.816002558861,1.00000000011948,0.374366043416997
12800.000000029,285.004010179564,1.00000000007816,0.331171502443703
12900.0000000294,283.103128463513,1.00000000007899,0.329714660005706
13000.0000000298,281.145337622875,1.00000000011805,0.369221389849747
13100.0000000301,279.169521315564,1.00000000017725,0.425415700187951
13200.0000000305,277.207680304023,1.00000000023612,0.474708448968773
13300.0000000309,275.283601072002,1.00000000031222,0.507321827808662
13400.0000000312,273.415194701938,1.00000000033564,0.524636453640945
13500.0000000316,271.614065444637,1.00000000032638,0.532471739194352
13600.0000000319,269.88275904136,1.00000000032013,0.534732564137832
13700.0000000323,268.213488286377,1.00000000032655,0.529108186117419
13800.0000000327,266.588528169487,1.00000000029134,0.510023385419254
13900.000000033,264.982571147242,1.00000000023726,0.474063028368615
14000.0000000334,263.368250757435,1.00000000018232,0.423276489205865
14100.0000000338,261.722887569595,1.00000000013188,0.366457807644409
14200.0000000341,260.035992535702,1.00000000009329,0.319956437077838
14300.0000000345,258.312736623624,1.00000000007678,0.300159602409652
14400.0000000349,256.570664278749,1.00000000008527,0.312066378390438
14500.0000000352,254.82936515835,1.00000000012135,0.35193705443311
14600.0000000356,253.101702011348,1.00000000017743,0.405521333493854
14700.0000000359,251.393528336165,1.00000000023875,0.453908786596383
14800.0000000363,249.708085898312,1.00000000027609,0.485528937946049
14900.0000000367,248.048773792352,1.0000000002998,0.500614878030336
15000.000000037,246.419715103513,1.00000000029478,0.506194456581207
15100.0000000374,244.825478585584,1.00000000032135,0.510840094770779
15200.0000000378,243.269629701725,1.000000000305,0.518420950127281
15300.0000000381,241.752569284233,1.00000000030635,0.524242691717123
15400.0000000385,240.270042022525,1.00000000028259,0.522507227442578
15500.0000000389,238.813322871338,1.00000000024295,0.507930005314888
15600.0000000392,237.371279427016,1.00000000022609,0.478765447672999
15700.0000000396,235.933361326596,1.00000000018577,0.438704304006269
15800.0000000399,234.493545322517,1.00000000015407,0.395397803293759
15900.0000000403,233.05191395796,1.00000000013605,0.355901081711291
16000.0000000407,231.614381990528,1.000000000118,0.326253909674429
16100.000000041,230.190516784803,1.00000000010621,0.313487691370104
16200.0000000414,228.790473269228,1.00000000011185,0.322266448419428
16300.0000000418,227.421757597629,1.00000000012212,0.343828035090255
16400.0000000418,226.085584526662,1.00000000015961,0.373286621513602
16500.0000000404,224.776683502603,1.00000000019602,0.410813454795028
16600.0000000389,223.486519987757,1.00000000022992,0.450551014436561
16700.0000000375,222.207611002344,1.00000000024481,0.482293400855045
16800.000000036,220.935961707798,1.00000000025379,0.498339837645404
16900.0000000346,219.670818697445,1.00000000024323,0.497385327684072
17000.0000000331,218.412908952871,1.00000000023676,0.486397813002477
17100.0000000317,217.162829944213,1.00000000025502,0.476793553256635
17200.0000000302,215.92050080826,1.00000000025858,0.478076718454283
17300.0000000287,214.686153884782,1.00000000028377,0.492093654744505
17400.0000000273,213.461310689994,1.0000000003065,0.512591476544629
17500.0000000258,212.248496468259,1.00000000030108,0.52782395395004
17600.0000000244,211.049698464879,1.00000000028158,0.530548946040681
17700.0000000229,209.865181299597,1.00000000025491,0.519554131515754
17800.0000000215,208.693984824715,1.00000000023177,0.495442847574002
17900.00000002,207.535636995319,1.0000000001757,0.460221389879813
18000.0000000186,206.39225900997,1.00000000014039,0.418621108125353
18100.0000000171,205.270067241314,1.00000000011564,0.379071653781645
18200.0000000156,204.178176051838,1.00000000009635,0.348537083760264
18300.0000000142,203.124951526539,1.00000000011098,0.330412826861237
18400.0000000127,202.115236872449,1.00000000013072,0.324347907986809
18500.0000000113,201.150119486986,1.00000000014807,0.330929249995747
18600.0000000098,200.228382385732,1.00000000016394,0.350834238680504
18700.0000000084,199.347008285724,1.00000000017481,0.376318262327363
18800.0000000069,198.499591744877,1.00000000019297,0.401523489674494
18900.0000000055,197.675886477397,1.00000000020743,0.424159083621758
19000.000000004,196.863211778664,1.00000000024636,0.445219257609479
19100.0000000026,196.049792592613,1.00000000026096,0.465367951025795
19200.0000000011,195.227807058374,1.00000000025752,0.48494491249314
19299.9999999996,194.395778831726,1.00000000024652,0.499809629184205
19399.9999999982,193.557474751293,1.00000000023683,0.503563627756121
19499.9999999967,192.719445771869,1.00000000019665,0.494811360882455
19599.9999999953,191.888338045259,1.00000000016859,0.477266065840927
19699.9999999938,191.067974457655,1.00000000017537,0.458190084457338
19799.9999999924,190.256780060274,1.00000000018512,0.446019621027217
19899.9999999909,189.448068725471,1.00000000021871,0.446063800795088
19999.9999999895,188.632656247481,1.00000000025076,0.457451164391525
20099.999999988,187.803367863187,1.0000000003051,0.47621264826955
20199.9999999865,186.958019550769,1.00000000031462,0.498174841875028
20299.9999999851,186.099177182244,1.00000000032637,0.516867967854639
20399.9999999836,185.231779109913,1.00000000031513,0.527965808546919
20499.9999999822,184.361178453047,1.00000000029413,0.530736800678121
20599.9999999807,183.492562534186,1.00000000025569,0.525226046755769
20699.9999999793,182.630561494457,1.00000000023988,0.510019639984371
20799.9999999778,181.77963528635,1.0000000002216,0.485778247498992
20899.9999999764,180.945095653207,1.0000000001796,0.456183315193325
20999.9999999749,180.134015736368,1.0000000001496,0.425611719756535
21099.9999999734,179.35579489829,1.00000000011747,0.396038997221888
21199.999999972,178.621309730317,1.00000000010376,0.367785074329265
21299.9999999705,177.940413091153,1.00000000009507,0.344652259477252
21399.9999999691,177.319538398593,1.0000000001044,0.330022527982876
21499.9999999676,176.759224321419,1.00000000012055,0.32694191479865
21599.9999999662,176.253512044897,1.00000000014722,0.337034250298144
21699.9999999647,175.792156319685,1.00000000016955,0.356889625712197
21799.9999999633,175.364504626141,1.00000000019911,0.379244127541686
21899.9999999618,174.962118531988,1.00000000021002,0.400842000676478
21999.9999999603,174.577852132223,1.00000000022154,0.419935432353244
22099.9999999589,174.205649299346,1.00000000020832,0.436757359285583
22199.9999999574,173.839249317105,1.00000000022653,0.451257567172022
22299.999999956,173.471624101279,1.00000000023259,0.46262160074751
22399.9999999545,173.096169506108,1.00000000023943,0.471557853381251
22499.9999999531,172.707235975863,1.00000000024125,0.479054321889771
22599.9999999516,172.300009656156,1.00000000024837,0.48590958382668
22699.9999999502,171.871963899832,1.0000000002482,0.493158527165504
22799.9999999487,171.423416620362,1.00000000024564,0.501073381237091
22899.9999999473,170.957109125473,1.00000000023949,0.508923354592152
22999.9999999458,170.478615194262,1.00000000022851,0.513197595289548
23099.9999999443,169.99526164286,1.00000000020494,0.509927919112548
23199.9999999429,169.514087193363,1.00000000019107,0.500118057347647
23299.9999999414,169.041083142957,1.00000000017422,0.488522368693899
23399.99999994,168.579412301767,1.00000000016642,0.479728445976479
23499.9999999385,168.127370594774,1.00000000017109,0.47508655895284
23599.9999999371,167.679238078953,1.00000000019663,0.472768616104122
23699.9999999356,167.227735058719,1.00000000021053,0.470701148936501
23799.9999999342,166.766442782382,1.00000000022936,0.469278464595783
23899.9999999327,166.290989336878,1.00000000023528,0.471013009182995
23999.9999999312,165.799095816086,1.00000000025355,0.474723582525427
24099.9999999298,165.28890152995,1.00000000027171,0.481267561429866
24199.9999999283,164.759273869416,1.0000000003021,0.491919960118957
24299.9999999269,164.210474347238,1.00000000030259,0.505976979790168
24399.9999999254,163.64453115204,1.00000000029188,0.520074068837503
24499.999999924,163.064927280163,1.00000000029813,0.530646091323216
24599.9999999225,162.476121734003,1.00000000028629,0.535999202162414
24699.9999999211,161.88324081384,1.00000000027851,0.534042760049167
24799.9999999196,161.291753361482,1.0000000002397,0.524560093467363
24899.9999999181,160.707550725682,1.0000000002256,0.508164338723206
24999.9999999167,160.137115660537,1.00000000020208,0.486311642896591
25099.9999999152,159.588266527261,1.00000000016088,0.460126059830473
25199.9999999138,159.07000419938,1.00000000012918,0.432922106682944
25299.9999999123,158.591805494373,1.00000000011043,0.409614573625733
25399.9999999109,158.161906054397,1.00000000010898,0.390826106037943
25499.9999999094,157.786098505457,1.00000000011591,0.375938174918288
25599.999999908,157.46745024592,1.00000000012333,0.364482484884295
25699.9999999065,157.207211807236,1.00000000013086,0.356033952541267
25799.9999999051,157.005589763684,1.00000000013662,0.351239115380046
25899.9999999036,156.861267963069,1.00000000013694,0.351087552041744
25999.9999999021,156.770124004385,1.00000000014565,0.356453686831368
26099.9999999007,156.72410218992,1.00000000016685,0.368247281705269
26199.9999998992,156.710661482065,1.00000000019918,0.385051478865456
26299.9999998978,156.714821725355,1.00000000021898,0.403414796720756
26399.9999998963,156.721896979909,1.0000000002351,0.420746222372931
26499.9999998949,156.721185415059,1.00000000025452,0.436789175737677
26599.9999998934,156.707057761417,1.00000000025388,0.451654223199622
26699.999999892,156.678272904577,1.00000000025075,0.464595711122214
26799.9999998905,156.636334475044,1.00000000023451,0.475687050447737
26899.999999889,156.584751321455,1.00000000022429,0.483583403442535
26999.9999998876,156.528124230182,1.0000000002169,0.488013905498329
27099.9999998861,156.47109749174,1.00000000019212,0.489708229424821
27199.9999998847,156.417004780424,1.00000000018447,0.489252325697082
27299.9999998832,156.366889117283,1.00000000018772,0.488073233676159
27399.9999998818,156.319009389267,1.00000000018077,0.487256192106047
27499.9999998803,156.268675710547,1.00000000020011,0.487770535163681
27599.9999998789,156.209007011142,1.00000000020622,0.490532004025463
27699.9999998774,156.132522671439,1.00000000023934,0.497066140145155
27799.9999998759,156.032623072664,1.00000000025842,0.504284590012378
27899.9999998745,155.905184365962,1.00000000026284,0.509252144353578
27999.999999873,155.748655082927,1.00000000024669,0.510974582149957
28099.9999998716,155.563795015829,1.00000000026,0.509743309031904
28199.9999998701,155.352678160335,1.00000000026148,0.508270035917238
28299.9999998687,155.118360036657,1.00000000024512,0.510492556670461
28399.9999998672,154.86494635741,1.00000000023689,0.516578907902255
28499.9999998658,154.597508514062,1.00000000023009,0.521246086456284
28599.9999998643,154.321569710741,1.00000000021475,0.519617104435523
28699.9999998629,154.042590997194,1.00000000020434,0.512230241543836
28799.9999998614,153.765988932406,1.00000000019899,0.503083972218079
28899.9999998599,153.496144820997,1.00000000018774,0.495279198300305
