Time,AGPnorm,Energy,Entropy
0,0,1,-1.14122069198406e-17
99.9999999999986,2.63616389720328e-05,1.00000000000534,0.00111144146099313
199.999999999993,0.00218526812117377,1.00000000000068,0.00170738238473451
300,0.00570408842191154,1.00000000000255,0.0031572719906642
400.000000000022,0.00781504416113402,1.00000000000437,0.00525107770394503
500.000000000045,0.00963066233226058,0.999999999999654,0.00715278258583447
600.000000000068,0.0138840907613454,1.00000000000506,0.00998816482376537
700.000000000091,0.0173153636178781,1.00000000000146,0.0126209133160692
800.000000000113,0.021972989005865,1.00000000000164,0.0157973211027692
900.000000000136,0.027117887404482,1.00000000000496,0.0192550874612191
1000.00000000016,0.0321177788030905,0.999999999999636,0.0226699423970721
1100.0000000001,0.0386977664889394,1.00000000000452,0.0267139212172899
1200,0.0451526303112057,1.00000000000234,0.0305994067188956
1299.99999999991,0.0517022206885146,1.0000000000008,0.0350003184821202
1399.99999999982,0.058893435837949,1.00000000000532,0.0395555516744375
1499.99999999973,0.0666846227033726,0.999999999999981,0.0441248353449886
1599.99999999964,0.0749992589712347,1.00000000000373,0.049307093374698
1699.99999999955,0.0833121776862146,1.00000000000316,0.0543179544136829
1799.99999999946,0.0917288149259998,1.00000000000019,0.0598258576532377
1899.99999999937,0.100773415323645,1.00000000000541,0.0655500873754662
1999.99999999928,0.110355395447958,1.0000000000006,0.0713034877002936
2099.99999999919,0.119533134596903,1.00000000000278,0.0777395332592045
2199.99999999909,0.128865681158893,1.00000000000389,0.0840420426209438
2299.999999999,0.138857256568575,0.999999999999945,0.0908532478625944
2399.99999999891,0.149182333487102,1.00000000000517,0.0981208186283163
2499.99999999882,0.159483234795593,1.00000000000132,0.105410044943394
2599.99999999873,0.169004168344798,1.00000000000183,0.113544356866891
2699.99999999864,0.178872371944013,1.0000000000046,0.121756995581899
2799.99999999855,0.189819270292919,1.00000000000012,0.130646264842698
2899.99999999846,0.200431511021282,1.00000000000477,0.140441244655101
2999.99999999837,0.210517883323329,1.00000000000245,0.150534851337395
3099.99999999828,0.220190726996119,1.00000000000256,0.161912062463852
3199.99999999819,0.230480907610472,1.00000000000875,0.174142143748745
3299.99999999809,0.241044955021592,1.00000000000922,0.187452892558231
3399.999999998,0.252215686854252,1.00000000002119,0.202249739880744
3499.99999999791,0.260754917225828,1.00000000003486,0.217286393658466
3599.99999999782,0.272318004172089,1.00000000005383,0.233214175344216
3699.99999999773,0.287565518096981,1.00000000008195,0.2494142690003
3799.99999999764,0.301489059828598,1.00000000011281,0.265204489377763
3899.99999999755,0.330347280198171,1.00000000014811,0.281354808932497
3999.99999999746,0.362164795967678,1.0000000001861,0.296483399338825
4099.99999999738,0.417759050522309,1.00000000021708,0.311747248411046
4199.99999999775,0.503515363318709,1.00000000026106,0.326718358915722
4299.99999999811,0.614580251800275,1.00000000031174,0.340743773012947
4399.99999999848,0.788625013649652,1.00000000034559,0.354874472903568
4499.99999999884,1.01146854006309,1.00000000039086,0.367951224717873
4599.9999999992,1.31883224714596,1.00000000044367,0.380807182644433
4699.99999999957,1.71959140002582,1.00000000047275,0.393587000893213
4799.99999999993,2.21677683806878,1.00000000049239,0.405070711856823
4900.00000000029,2.85556024637345,1.00000000053604,0.416636411222946
5000.00000000066,3.6148050821742,1.00000000058042,0.427403122261863
5100.00000000102,4.54324023993581,1.00000000061621,0.437678658504362
5200.00000000139,5.63809199782767,1.00000000065831,0.447826570942855
5300.00000000175,6.90443727794315,1.00000000065738,0.456737091749238
5400.00000000211,8.38817349694825,1.00000000066766,0.465943002040438
5500.00000000248,10.0468839993438,1.00000000070691,0.474471260201489
5600.00000000284,11.9413700612825,1.0000000007343,0.482072555419417
5700.00000000321,14.0517901244314,1.00000000072902,0.49001194804715
5800.00000000357,16.3688694695798,1.00000000078574,0.496612456770662
5900.00000000393,18.9481595318695,1.00000000076227,0.503445486227261
6000.0000000043,21.7177398191,1.00000000076701,0.51008744679981
6100.00000000466,24.7418883213484,1.00000000078422,0.515311904976281
6200.00000000502,27.9955786837674,1.00000000081403,0.521153917459714
6300.00000000539,31.4401806162046,1.00000000080123,0.526315680377533
6400.00000000575,35.1493343540857,1.0000000008202,0.530920898230083
6500.00000000612,39.0282347062854,1.000000000804,0.535889792006709
6600.00000000648,43.1296293025527,1.00000000084345,0.539366405593139
6700.00000000684,47.4421219387531,1.00000000079945,0.543708917544403
6800.00000000721,51.8933514717959,1.00000000085902,0.54745107254165
6900.00000000757,56.5720832589767,1.00000000083851,0.550443159185404
7000.00000000793,61.3787365660412,1.00000000081791,0.554062115839348
7100.0000000083,66.3402217122239,1.00000000080276,0.556524982364531
7200.00000000866,71.4717279328079,1.00000000082956,0.559212407674602
7300.00000000903,76.6746806920221,1.00000000082931,0.56221331256969
7400.00000000939,82.0403834866792,1.00000000080648,0.563797979417366
7500.00000000975,87.4850966415488,1.00000000081671,0.56620027125574
7600.00000001012,93.0022341298827,1.00000000080421,0.568068990077918
7700.00000001048,98.6345753280432,1.00000000080193,0.569683989810243
7800.00000001084,104.273761260402,1.00000000080973,0.571677099914114
7900.00000001121,109.99829277369,1.00000000080617,0.572371857592811
8000.00000001157,115.753001641152,1.00000000079101,0.574109010541046
8100.00000001194,121.501648831982,1.00000000079749,0.575507351166835
8200.0000000123,127.305615376107,1.00000000075937,0.576204078595871
8300.00000001266,133.062684963479,1.0000000007501,0.577453999540633
8400.00000001303,138.829539531386,1.00000000075834,0.577757494901768
8500.00000001339,144.581695154729,1.00000000073924,0.578616529217819
8600.00000001376,150.263718106264,1.00000000075079,0.579791849236249
8700.00000001412,155.943097481277,1.00000000074796,0.579141857722081
8800.00000001448,161.535763427775,1.00000000074315,0.580456022543803
8900.00000001485,167.07344506183,1.00000000073142,0.580232240730992
9000.00000001521,172.558199307072,1.00000000070293,0.580746505960958
9100.00000001557,177.925839070676,1.00000000070031,0.581180518844093
9200.00000001594,183.241300908581,1.0000000006998,0.580821752433407
9300.0000000163,188.442439109473,1.00000000067651,0.581001149937029
9400.00000001667,193.539678204698,1.00000000066731,0.581472641922535
9500.00000001703,198.553927283893,1.00000000069084,0.580539277071426
9600.00000001739,203.419656719634,1.00000000068533,0.581161907247916
9700.00000001776,208.196442428022,1.00000000066437,0.580851361388011
9800.00000001812,212.839729694909,1.00000000065031,0.580053886090323
9900.00000001848,217.347848332924,1.00000000064418,0.581302670889943
10000.0000000188,221.750088401034,1.00000000062503,0.57936372760151
10100.0000000192,225.987478039886,1.00000000063909,0.580307758082625
10200.0000000196,230.11068547905,1.00000000063854,0.579579477339567
10300.0000000199,234.091214314587,1.00000000060825,0.578411290427794
10400.0000000203,237.919103782096,1.00000000060586,0.579645182335663
10500.0000000207,241.627499329855,1.0000000006207,0.577764754205768
10600.000000021,245.168083704875,1.00000000058776,0.578113968215302
10700.0000000214,248.577862028881,1.00000000058,0.578088577815107
10800.0000000218,251.845807639297,1.00000000060219,0.576894168343019
10900.0000000221,254.953015800059,1.00000000057921,0.577342650253763
11000.0000000225,257.933714337296,1.00000000056705,0.576655832618498
11100.0000000229,260.752044037346,1.0000000005599,0.576407036583833
11200.0000000232,263.432668389283,1.00000000055317,0.575967988179433
11300.0000000236,265.974591057068,1.0000000005565,0.575469603898875
11400.0000000239,268.359523600626,1.00000000054322,0.575754105499059
11500.0000000243,270.616740234862,1.00000000053753,0.57463492449809
11600.0000000247,272.721564448047,1.00000000053713,0.575094634867012
11700.000000025,274.690581380199,1.00000000052857,0.573776534328375
11800.0000000254,276.528201203475,1.00000000051864,0.573063400012253
11900.0000000258,278.216768141849,1.00000000051738,0.574195183634089
12000.0000000261,279.785703614506,1.00000000049788,0.573044144582981
12100.0000000265,281.214813415963,1.00000000048839,0.571497150545736
12200.0000000269,282.513900097559,1.00000000048763,0.572743479247543
12300.0000000272,283.694800737058,1.00000000049971,0.573047296322958
12400.0000000276,284.741487152298,1.00000000047464,0.572607524078956
12500.0000000279,285.676508820942,1.00000000047147,0.569755293130712
12600.0000000283,286.486844073043,1.00000000045966,0.569644554153374
12700.0000000287,287.179847537517,1.00000000046881,0.57356583833589
12800.000000029,287.77333348841,1.00000000047414,0.57289493686376
12900.0000000294,288.250349636966,1.00000000044567,0.568050202656796
13000.0000000298,288.623428927028,1.00000000042266,0.566234111638234
13100.0000000301,288.889453723782,1.00000000045627,0.571942085984516
13200.0000000305,289.062805723847,1.00000000046642,0.575128097518155
13300.0000000309,289.156277089921,1.00000000045022,0.568279787723482
13400.0000000312,289.147800125218,1.00000000042332,0.561391295805817
13500.0000000316,289.046994046423,1.00000000041119,0.564540681520357
13600.0000000319,288.864904821716,1.00000000047165,0.575033799754636
13700.0000000323,288.617008186883,1.00000000047931,0.573893566126907
13800.0000000327,288.308318007237,1.00000000044284,0.56266684386875
13900.000000033,287.911902993325,1.0000000003889,0.553690594425641
14000.0000000334,287.438489375319,1.00000000042178,0.562232849912938
14100.0000000338,286.908039669728,1.00000000048129,0.576497311920117
14200.0000000341,286.336886622565,1.0000000004924,0.575011011330654
14300.0000000345,285.72500744629,1.00000000043068,0.557656895043762
14400.0000000349,285.04005711317,1.00000000037499,0.545584953530485
14500.0000000352,284.288796108055,1.00000000039969,0.554139059816032
14600.0000000356,283.495789791604,1.00000000049978,0.575076625111842
14700.0000000359,282.682182401787,1.00000000054655,0.579521604937803
14800.0000000363,281.850822554955,1.00000000043852,0.557771513449987
14900.0000000367,280.967146864393,1.00000000035871,0.539281999050436
15000.000000037,280.023952609583,1.00000000036415,0.536818158035117
15100.0000000374,279.040375518819,1.00000000049158,0.56477908052029
15200.0000000378,278.04433132725,1.00000000057044,0.582340749188341
15300.0000000381,277.054825517797,1.00000000054047,0.571246951779277
15400.0000000385,276.04333034985,1.00000000041627,0.541519995558872
15500.0000000389,274.988537401104,1.00000000034746,0.52440726364791
15600.0000000392,273.886284081781,1.00000000036505,0.531569715355713
15700.0000000396,272.759695597206,1.00000000053151,0.567843850276075
15800.0000000399,271.643558599637,1.00000000059381,0.583362583463153
15900.0000000403,270.537856448432,1.00000000056728,0.56725225782938
16000.0000000407,269.424706360448,1.00000000040916,0.534405179052308
16100.000000041,268.278010648962,1.0000000003322,0.514169945957538
16200.0000000414,267.090591901868,1.00000000035937,0.51840355410369
16300.0000000418,265.886343848946,1.00000000049052,0.554781321090724
16400.0000000418,264.690579633882,1.00000000060624,0.582679816499441
16500.0000000404,263.516259169631,1.00000000059547,0.575772415125093
16600.0000000389,262.351760837611,1.0000000004754,0.541744314740334
16700.0000000375,261.169471510561,1.00000000036848,0.513575435265026
16800.000000036,259.960558715806,1.0000000003168,0.503514639907602
16900.0000000346,258.725535495018,1.00000000039632,0.521895858108513
17000.0000000331,257.488032791254,1.00000000054681,0.561904500889881
17100.0000000317,256.270164315011,1.00000000064854,0.583206597892841
17200.0000000302,255.073241406558,1.00000000060553,0.568413289042017
17300.0000000287,253.88738148358,1.00000000047886,0.533360613368339
17400.0000000273,252.692311109124,1.00000000037134,0.505513746799245
17500.0000000258,251.478116173363,1.00000000034382,0.499367094940195
17600.0000000244,250.248638127947,1.00000000038394,0.513459616013306
17700.0000000229,249.015364856584,1.00000000050113,0.544583530582189
17800.0000000215,247.797358062438,1.00000000061202,0.573580837834538
17900.00000002,246.601425886496,1.00000000062583,0.57268088320463
18000.0000000186,245.420708869458,1.00000000053734,0.545384319056318
18100.0000000171,244.24538758084,1.00000000043923,0.51320975213958
18200.0000000156,243.061679682208,1.00000000035227,0.498378794801127
18300.0000000142,241.869580302799,1.00000000037432,0.502316711017524
18400.0000000127,240.671174865271,1.00000000041774,0.516185539123828
18500.0000000113,239.475675020386,1.0000000005035,0.53998742246686
18600.0000000098,238.294416881447,1.0000000005873,0.5616395185884
18700.0000000084,237.130016814298,1.00000000059506,0.563194687458208
18800.0000000069,235.980888606795,1.00000000055167,0.543419455185116
18900.0000000055,234.84000346061,1.00000000045418,0.516381389414048
19000.000000004,233.699357447972,1.00000000039614,0.501654144066904
19100.0000000026,232.557923907769,1.00000000038666,0.502483119613219
19200.0000000011,231.414513875203,1.00000000040342,0.510359185452617
19299.9999999996,230.274222159626,1.00000000044573,0.521717647447284
19399.9999999982,229.141431349821,1.00000000050952,0.534555344661612
19499.9999999967,228.019648114265,1.00000000055157,0.548961835862339
19599.9999999953,226.9119232321,1.00000000056629,0.54943239047205
19699.9999999938,225.815925527517,1.00000000053024,0.536571226690644
19799.9999999924,224.728331687908,1.00000000047179,0.519756424769612
19899.9999999909,223.646760336441,1.00000000042927,0.507304039919313
19999.9999999895,222.568512696651,1.00000000039577,0.505826957453374
20099.999999988,221.494993766675,1.00000000040871,0.51230861156116
20199.9999999865,220.425565123317,1.00000000044512,0.517091473679863
20299.9999999851,219.362792383822,1.00000000045724,0.521361025176441
20399.9999999836,218.3083725342,1.00000000048892,0.52554582349296
20499.9999999822,217.263291051029,1.00000000054973,0.535721823111939
20599.9999999807,216.228857235312,1.00000000055082,0.539124059592153
20699.9999999793,215.204259448108,1.0000000005338,0.534811262423879
20799.9999999778,214.18817941544,1.00000000045674,0.524232122499302
20899.9999999764,213.180196357101,1.00000000044987,0.516015216616716
20999.9999999749,212.179331074085,1.00000000044553,0.515303732075602
21099.9999999734,211.186234661304,1.00000000042741,0.518788033605784
21199.999999972,210.199994367012,1.00000000042101,0.517098737234888
21299.9999999705,209.221103467758,1.00000000042533,0.51453569257373
21399.9999999691,208.249927012233,1.00000000045836,0.515206419346209
21499.9999999676,207.286874528125,1.00000000048479,0.519646979247884
21599.9999999662,206.332687489812,1.00000000050925,0.526602288404274
21699.9999999647,205.387322134653,1.0000000005387,0.534211131179029
21799.9999999633,204.450187113491,1.00000000049032,0.536347427788859
21899.9999999618,203.521680013469,1.00000000046642,0.53084045684238
21999.9999999603,202.601265534828,1.00000000048957,0.526484963931705
22099.9999999589,201.689478579913,1.00000000047174,0.52845561480044
22199.9999999574,200.786341124199,1.00000000045511,0.526749214283064
22299.999999956,199.892353012987,1.00000000043892,0.523360951839368
22399.9999999545,199.007379117546,1.00000000040091,0.514705313558293
22499.9999999531,198.131336650449,1.00000000039496,0.506561258799436
22599.9999999516,197.264567678367,1.00000000042433,0.506361165607391
22699.9999999502,196.406624793579,1.00000000046186,0.512949363289262
22799.9999999487,195.556815929245,1.00000000050836,0.522736167687716
22899.9999999473,194.714683535745,1.00000000051338,0.527004580581524
22999.9999999458,193.879739805771,1.00000000050741,0.535116158063152
23099.9999999443,193.052351857057,1.00000000045295,0.534202664322492
23199.9999999429,192.232907303869,1.00000000046346,0.530252697152955
23299.9999999414,191.421135914936,1.00000000049259,0.5317040650397
23399.99999994,190.616922669034,1.00000000049863,0.539916765949457
23499.9999999385,189.820541317902,1.00000000048974,0.534800078552678
23599.9999999371,189.033633014665,1.00000000042952,0.52417149534129
23699.9999999356,188.257124862042,1.00000000039822,0.510706608011882
23799.9999999342,187.492630955647,1.00000000035734,0.495509749153246
23899.9999999327,186.739973988073,1.00000000039275,0.494169325811187
23999.9999999312,185.997441701928,1.00000000045815,0.502293211881125
24099.9999999298,185.26275019886,1.00000000050129,0.514909251414139
24199.9999999283,184.534055128412,1.00000000053522,0.520316028069971
24299.9999999269,183.810472631283,1.00000000050814,0.523739336850663
24399.9999999254,183.092791143726,1.00000000047904,0.527781469551142
24499.999999924,182.381878330021,1.00000000046084,0.53222731291084
24599.9999999225,181.677761442863,1.00000000044676,0.531511688037996
24699.9999999211,180.979303177341,1.00000000049923,0.535413096608508
24799.9999999196,180.285691929426,1.00000000051494,0.544401504257287
24899.9999999181,179.597160421981,1.00000000051864,0.542756082229946
24999.9999999167,178.915571810624,1.00000000047215,0.528798163187521
25099.9999999152,178.244516797556,1.00000000040779,0.512106575962152
25199.9999999138,177.586554383832,1.00000000034711,0.497813009025805
25299.9999999123,176.943824515027,1.0000000003441,0.485217610724491
25399.9999999109,176.314750582554,1.00000000040192,0.487744841383745
25499.9999999094,175.695757560561,1.00000000048374,0.496906420759094
25599.999999908,175.083178174318,1.00000000051983,0.509163160866951
25699.9999999065,174.474678917363,1.00000000052493,0.51422569072439
25799.9999999051,173.869548923551,1.00000000051531,0.51470813030817
25899.9999999036,173.26787280086,1.00000000047216,0.515760306469798
25999.9999999021,172.670914829615,1.00000000046904,0.523811590862098
26099.9999999007,172.078651797707,1.00000000048422,0.534188969164946
26199.9999998992,171.490201180562,1.00000000047467,0.534958608072715
26299.9999998978,170.904727419677,1.0000000005178,0.537910847219532
26399.9999998963,170.321385532554,1.00000000054268,0.543329746980615
26499.9999998949,169.740659626429,1.00000000053109,0.540735903497872
26599.9999998934,169.165435252005,1.00000000048115,0.527657848054143
26699.999999892,168.599090631616,1.0000000004249,0.510387048611617
26799.9999998905,168.045341770984,1.00000000038781,0.498840800984192
26899.999999889,167.506565567248,1.00000000035742,0.493033263790867
26999.9999998876,166.982191028747,1.00000000037508,0.487761762186032
27099.9999998861,166.471256478392,1.00000000041094,0.487344649744091
27199.9999998847,165.969763681661,1.00000000046847,0.493448042643759
27299.9999998832,165.474563373404,1.00000000051208,0.500635176266891
27399.9999998818,164.983032751864,1.00000000049645,0.507142031838608
27499.9999998803,164.49337040567,1.00000000052042,0.512549904650412
27599.9999998789,164.005032141792,1.00000000050696,0.512739162540545
27699.9999998774,163.518136107692,1.00000000048924,0.516606712241526
27799.9999998759,163.032876572003,1.00000000049139,0.526044996842672
27899.9999998745,162.549168874271,1.00000000049352,0.534791165255559
27999.999999873,162.066269560302,1.00000000050321,0.536760510607935
28099.9999998716,161.584816036465,1.00000000050712,0.534850341521755
28199.9999998701,161.10508798698,1.00000000049144,0.532735696752987
28299.9999998687,160.628168158613,1.00000000049623,0.530875154060545
28399.9999998672,160.155396331003,1.00000000049848,0.528260846869376
28499.9999998658,159.688075571935,1.000000000473,0.519309740765846
28599.9999998643,159.229827992935,1.00000000043165,0.508706304107202
28699.9999998629,158.782328650916,1.00000000042233,0.502857727547972
28799.9999998614,158.347105043636,1.00000000040289,0.499051091176604
28899.9999998599,157.92524475815,1.00000000039678,0.495512018337644
