Time,AGPnorm,Energy,Entropy
0,0,1,-1.13120998415964e-17
99.9999999999986,9.03984924644449e-06,1.00000000000416,0.000442417115978705
199.999999999993,0.000775232961719126,1.00000000000031,0.000687975955953283
300,0.00195939297685447,1.00000000000208,0.00126495356867215
400.000000000022,0.00273872535638519,1.00000000000323,0.00212992803753309
500.000000000045,0.00339566558878255,0.999999999999671,0.00289248525930963
600.000000000068,0.00479200518055867,1.00000000000396,0.00408502502490372
700.000000000091,0.00592304731318035,1.00000000000093,0.0052008085321418
800.000000000113,0.00773852642541829,1.00000000000134,0.00650455218578556
900.000000000136,0.00973552219913423,1.00000000000376,0.0079740534184774
1000.00000000016,0.0114037886688432,0.999999999999581,0.00940366646571362
1100.0000000001,0.0135813187822344,1.00000000000354,0.0111220246063244
1200,0.015922140527018,1.00000000000167,0.0127796158368532
1299.99999999991,0.0186130809482927,1.00000000000065,0.014605620682132
1399.99999999982,0.0214202824127029,1.00000000000408,0.0165423183284512
1499.99999999973,0.0241391959712744,0.99999999999975,0.0184513987771287
1599.99999999964,0.027269042302609,1.00000000000294,0.0206092605428863
1699.99999999955,0.0306074946306527,1.00000000000244,0.0227001284006709
1799.99999999946,0.0340554787671729,1.0000000000001,0.0249550746764851
1899.99999999937,0.0375287214214908,1.00000000000413,0.027305402260809
1999.99999999928,0.0411939705315922,1.00000000000017,0.0296122078245106
2099.99999999919,0.0452709552527237,1.00000000000225,0.0321719785819715
2199.99999999909,0.0494587571182426,1.00000000000314,0.0346564544469609
2299.999999999,0.0535905567676847,0.999999999999736,0.0372897585316892
2399.99999999891,0.0576586366711886,1.00000000000395,0.0400372148728816
2499.99999999882,0.0621056732897217,1.0000000000008,0.042717176915916
2599.99999999873,0.0669470772751219,1.00000000000153,0.0456691922183877
2699.99999999864,0.0717825474059636,1.00000000000365,0.0485486557589183
2799.99999999855,0.0765615430584385,0.999999999999603,0.0515435199238743
2899.99999999846,0.081250307736943,1.00000000000356,0.0546968341658571
2999.99999999837,0.0863371745687748,1.00000000000157,0.0577661213132227
3099.99999999828,0.0916877988183731,1.00000000000087,0.061119069012399
3199.99999999819,0.0969251258601437,1.00000000000393,0.0644272341429897
3299.99999999809,0.102252448569368,0.999999999999731,0.0678036678044201
3399.999999998,0.107585007454397,1.00000000000299,0.0714040405898557
3499.99999999791,0.113187193405014,1.00000000000235,0.074911821274116
3599.99999999782,0.118863747637504,1.00000000000034,0.0786993262148627
3699.99999999773,0.124300837505821,1.00000000000399,0.082498734817215
3799.99999999764,0.130018148365196,1.00000000000013,0.0863222333175798
3899.99999999755,0.135878183248468,1.00000000000233,0.0904516206845616
3999.99999999746,0.141837493678097,1.000000000003,0.0944913087507952
4099.99999999738,0.14774307950709,0.999999999999971,0.0987967776923376
4199.99999999775,0.153319193531812,1.00000000000386,0.103203096394148
4299.99999999811,0.159290838062739,1.00000000000075,0.107610338722307
4399.99999999848,0.165449546406279,1.00000000000168,0.112400429713925
4499.99999999884,0.171560335508278,1.00000000000343,0.117157650639263
4599.9999999992,0.177593800251175,0.999999999999801,0.122159261450852
4699.99999999957,0.183363630206751,1.00000000000354,0.127391222159572
4799.99999999993,0.189469876898904,1.00000000000156,0.132646381994396
4900.00000000029,0.195730470353991,1.00000000000121,0.138375543252486
5000.00000000066,0.201769213477871,1.00000000000385,0.144186419761341
5100.00000000102,0.207761935076959,1.00000000000021,0.150266371955801
5200.00000000139,0.213807230411853,1.00000000000345,0.156780398532511
5300.00000000175,0.219875316948557,1.0000000000031,0.16339622656342
5400.00000000211,0.226176059802798,1.00000000000214,0.170578279999239
5500.00000000248,0.232207508000901,1.00000000000596,0.178003813162217
5600.00000000284,0.238004420562285,1.00000000000375,0.185710553609478
5700.00000000321,0.244856178669226,1.00000000000754,0.193981490271496
5800.00000000357,0.251058974048011,1.00000000001018,0.202349490331509
5900.00000000393,0.258210868649915,1.00000000001063,0.211143525833476
6000.0000000043,0.266369477014478,1.00000000001733,0.220109749937677
6100.00000000466,0.273945351560538,1.00000000001956,0.229079460902755
6200.00000000502,0.28635173990671,1.00000000002424,0.238453982859903
6300.00000000539,0.299072486419179,1.00000000003205,0.247626827439126
6400.00000000575,0.316546814931146,1.00000000003564,0.256869026686338
6500.00000000612,0.341825124823313,1.00000000004428,0.266133351245915
6600.00000000648,0.370672359577021,1.00000000005038,0.275032076445219
6700.00000000684,0.415908459918485,1.00000000005895,0.284124349887375
6800.00000000721,0.471304056351488,1.00000000006682,0.292898677846069
6900.00000000757,0.545169189754621,1.00000000007068,0.301515507566866
7000.00000000793,0.645673065195478,1.00000000008727,0.310086673920321
7100.0000000083,0.766950895693145,1.00000000009047,0.31824101400402
7200.00000000866,0.93038203197746,1.00000000009867,0.326491344689505
7300.00000000903,1.12913264704201,1.00000000011185,0.334397628989476
7400.00000000939,1.37587053419442,1.00000000011858,0.342063322047217
7500.00000000975,1.68369541513594,1.00000000012328,0.349850117884428
7600.00000001012,2.04553877938867,1.00000000014014,0.357063300787034
7700.00000001048,2.49105654097633,1.0000000001476,0.364359617009605
7800.00000001084,3.01111904296505,1.00000000015115,0.371468233142517
7900.00000001121,3.62233754730176,1.00000000016483,0.378118548589209
8000.00000001157,4.34205722905071,1.00000000017189,0.384959560249647
8100.00000001194,5.15922818867828,1.0000000001816,0.391344336631651
8200.0000000123,6.11147680436019,1.00000000017279,0.397727952152164
8300.00000001266,7.18457890207441,1.00000000019839,0.40385776975678
8400.00000001303,8.39644437138447,1.0000000001967,0.409654836719905
8500.00000001339,9.76956247199507,1.00000000020829,0.415566751023677
8600.00000001376,11.2834449669655,1.00000000020914,0.421125642241748
8700.00000001412,12.9836745906987,1.00000000021734,0.426476494547913
8800.00000001448,14.8504315042653,1.00000000022782,0.431852841891019
8900.00000001485,16.8968973199721,1.00000000023452,0.436780294768128
9000.00000001521,19.1539255051706,1.00000000022939,0.441840711960595
9100.00000001557,21.5864351027966,1.00000000024276,0.446617200045189
9200.00000001594,24.2460578269848,1.00000000023992,0.451056558691886
9300.0000000163,27.110758571213,1.00000000025367,0.455690054739507
9400.00000001667,30.1815312266711,1.00000000025607,0.459839286818552
9500.00000001703,33.5013902654444,1.00000000025489,0.464006525663457
9600.00000001739,37.0182702889725,1.00000000027319,0.468147833088445
9700.00000001776,40.7852758535282,1.00000000027301,0.471806585814843
9800.00000001812,44.7850883125827,1.0000000002695,0.475713709340723
9900.00000001848,48.9994256088422,1.00000000027465,0.479285770110071
10000.0000000188,53.4849925624108,1.00000000026274,0.482708809390832
10100.0000000192,58.1762104042463,1.00000000028561,0.486126270189008
10200.0000000196,63.1191801974128,1.00000000028764,0.489217415549621
10300.0000000199,68.3103270969096,1.00000000028587,0.492384853047831
10400.0000000203,73.7068059404311,1.00000000028263,0.495482632675109
10500.0000000207,79.3774134435299,1.00000000027956,0.498161194564944
10600.000000021,85.252353272486,1.00000000029855,0.50097199620378
10700.0000000214,91.3600708394309,1.00000000029301,0.503573363407381
10800.0000000218,97.7177168001733,1.00000000029823,0.506010178707458
10900.0000000221,104.259072771098,1.00000000027514,0.50872756627781
11000.0000000225,111.05807217367,1.00000000028729,0.51073674916881
11100.0000000229,118.051734885698,1.00000000028084,0.513132762798742
11200.0000000232,125.243853563898,1.00000000030588,0.515138208224495
11300.0000000236,132.67418623972,1.00000000031311,0.516973551528645
11400.0000000239,140.258740292794,1.00000000029943,0.519190114626899
11500.0000000243,148.067748417545,1.00000000029562,0.52092901955817
11600.0000000247,156.055522500074,1.00000000029742,0.522649709658285
11700.000000025,164.197177819702,1.00000000030595,0.524427544698065
11800.0000000254,172.552754615952,1.00000000029598,0.525898939528564
11900.0000000258,181.030792284075,1.00000000030741,0.527503922289498
12000.0000000261,189.686836361823,1.00000000030055,0.528880618046208
12100.0000000265,198.500148671507,1.0000000002995,0.530286705407661
12200.0000000269,207.419607795063,1.00000000030385,0.53155848927437
12300.0000000272,216.516916601869,1.00000000028828,0.532670842270818
12400.0000000276,225.706018722088,1.00000000029715,0.534008126223686
12500.0000000279,235.018888582916,1.00000000029764,0.534980329178176
12600.0000000283,244.462463739499,1.00000000028569,0.535966736347556
12700.0000000287,253.966738798862,1.00000000028711,0.53717416659086
12800.000000029,263.605045257961,1.00000000028871,0.537766015271972
12900.0000000294,273.305252813702,1.0000000002752,0.538764934441872
13000.0000000298,283.074405783786,1.00000000030097,0.539357749620435
13100.0000000301,292.944045509069,1.00000000029241,0.540009186803018
13200.0000000305,302.832225737774,1.00000000028887,0.540918210988201
13300.0000000309,312.805652293065,1.00000000029096,0.541470606415016
13400.0000000312,322.814808431354,1.00000000028525,0.54192408180103
13500.0000000316,332.840746231221,1.00000000027869,0.542547717163673
13600.0000000319,342.932558918562,1.00000000028705,0.542894755331573
13700.0000000323,353.008281095312,1.00000000027394,0.543656877058668
13800.0000000327,363.119106377334,1.00000000029059,0.543752094543383
13900.000000033,373.240245442543,1.00000000027884,0.544097689382909
14000.0000000334,383.333135228315,1.0000000002957,0.544458839506887
14100.0000000338,393.455328600964,1.0000000002681,0.544723025155459
14200.0000000341,403.532494829919,1.00000000027553,0.545245399796354
14300.0000000345,413.598043100858,1.00000000027618,0.545198808351085
14400.0000000349,423.649526894067,1.00000000027011,0.545127082257172
14500.0000000352,433.634099601006,1.00000000026991,0.545747905784052
14600.0000000356,443.611957084298,1.00000000026264,0.545766525722078
14700.0000000359,453.522227951847,1.00000000026297,0.545829836910543
14800.0000000363,463.376094848421,1.00000000025812,0.545873623567064
14900.0000000367,473.195426962014,1.00000000026992,0.545739206003919
15000.000000037,482.917541304683,1.00000000026727,0.545855871527668
15100.0000000374,492.597338041308,1.00000000025951,0.545913709628377
15200.0000000378,502.192709140165,1.00000000025289,0.546011447469107
15300.0000000381,511.696255652005,1.00000000025289,0.546056327452283
15400.0000000385,521.141470597965,1.00000000025578,0.545675638121349
15500.0000000389,530.468153148315,1.00000000026036,0.545655204648499
15600.0000000392,539.721542576419,1.00000000024829,0.545593251497277
15700.0000000396,548.874747561108,1.00000000024769,0.54547594509773
15800.0000000399,557.909449878957,1.00000000024961,0.545858455337246
15900.0000000403,566.864864214992,1.00000000023497,0.545290065134849
16000.0000000407,575.68642323027,1.00000000024274,0.5452254991027
16100.000000041,584.407309484226,1.00000000023943,0.544993539933498
16200.0000000414,593.018064691754,1.000000000239,0.544837342726682
16300.0000000418,601.489794328658,1.00000000024383,0.545014136502646
16400.0000000418,609.86242955136,1.00000000023491,0.544494099918884
16500.0000000404,618.095710967789,1.00000000024005,0.544971304950678
16600.0000000389,626.203191486061,1.00000000024227,0.544065020300212
16700.0000000375,634.194945346963,1.000000000239,0.544194990334507
16800.000000036,642.033000920185,1.00000000023237,0.543560795913403
16900.0000000346,649.759543055014,1.00000000023402,0.543851077469119
17000.0000000331,657.338494853044,1.00000000023738,0.54299001179354
17100.0000000317,664.7767936809,1.00000000023725,0.54353813958099
17200.0000000302,672.091200732054,1.00000000022557,0.542687687764365
17300.0000000287,679.244476220498,1.00000000022977,0.542802094797354
17400.0000000273,686.272111028524,1.00000000022328,0.542003073958495
17500.0000000258,693.150267928935,1.00000000022548,0.541822053505597
17600.0000000244,699.875786063308,1.00000000021585,0.54180532225191
17700.0000000229,706.471668451233,1.00000000022346,0.541252315099689
17800.0000000215,712.902837014246,1.00000000021359,0.541337132339197
17900.00000002,719.197660665144,1.00000000021451,0.540860161169438
18000.0000000186,725.343692082076,1.00000000021187,0.540608800490902
18100.0000000171,731.330054458571,1.00000000021592,0.540191629884353
18200.0000000156,737.181811246136,1.00000000021051,0.539562767477389
18300.0000000142,742.869988653972,1.00000000021276,0.539504602821502
18400.0000000127,748.413503809967,1.00000000019757,0.539263069407428
18500.0000000113,753.811691101153,1.00000000020691,0.539155588817899
18600.0000000098,759.046453598726,1.00000000020257,0.538917959416275
18700.0000000084,764.145628655672,1.00000000020346,0.538483867354778
18800.0000000069,769.084241165512,1.00000000019393,0.537934322482488
18900.0000000055,773.874549801968,1.00000000020172,0.537482431550288
19000.000000004,778.522287482377,1.00000000019796,0.5368560412668
19100.0000000026,783.007550361453,1.00000000019837,0.537030468357566
19200.0000000011,787.357258253826,1.00000000019487,0.537074643696238
19299.9999999996,791.552655519644,1.00000000018728,0.537067851419849
19399.9999999982,795.599776094124,1.00000000019037,0.537100728649522
19499.9999999967,799.509218460676,1.00000000018807,0.535903209777384
19599.9999999953,803.260659688443,1.00000000018295,0.535442525572872
19699.9999999938,806.876777181349,1.00000000019016,0.534162785066761
19799.9999999924,810.344134662161,1.00000000018514,0.533920221177763
19899.9999999909,813.664609209205,1.00000000018722,0.534538400315724
19999.9999999895,816.852383521668,1.0000000001823,0.535127370781611
20099.999999988,819.891537387417,1.00000000018262,0.536196905724417
20199.9999999865,822.800131155044,1.00000000018052,0.535912265421646
20299.9999999851,825.572272733387,1.00000000018133,0.534925778796041
20399.9999999836,828.202771823075,1.00000000017288,0.533119509735335
20499.9999999822,830.705210902104,1.00000000017652,0.530740076311511
20599.9999999807,833.062801096088,1.00000000016712,0.530039727375408
20699.9999999793,835.288438074678,1.00000000016825,0.53041781029987
20799.9999999778,837.382785170714,1.0000000001689,0.532684763234014
20899.9999999764,839.343074521528,1.0000000001712,0.535411628655599
20999.9999999749,841.188131348151,1.00000000017507,0.537199991568569
21099.9999999734,842.908903248928,1.00000000017981,0.537076743063255
21199.999999972,844.513781021535,1.00000000017012,0.534636277776004
21299.9999999705,846.00217149924,1.00000000016953,0.530526094647533
21399.9999999691,847.36067260212,1.00000000016233,0.526218723071248
21499.9999999676,848.598430161718,1.00000000015524,0.523841247857665
21599.9999999662,849.705033028745,1.00000000015723,0.52490356347438
21699.9999999647,850.688732406123,1.00000000015356,0.529215619121556
21799.9999999633,851.563835487532,1.00000000016446,0.535065834550426
21899.9999999618,852.330479411528,1.00000000017127,0.539661421875234
21999.9999999603,853.010813571864,1.00000000017699,0.541759313302235
22099.9999999589,853.600061907898,1.00000000017414,0.539403512084344
22199.9999999574,854.097186444918,1.00000000017253,0.533281927151096
22299.999999956,854.49954323943,1.00000000015586,0.524982956552402
22399.9999999545,854.786543978271,1.00000000014681,0.517724292930514
22499.9999999531,854.96082726036,1.00000000014034,0.514584860931379
22599.9999999516,855.01770769315,1.00000000013771,0.517728540930114
22699.9999999502,854.965412252265,1.00000000014587,0.525981092039914
22799.9999999487,854.827402840128,1.000000000164,0.53589633960302
22899.9999999473,854.612750290837,1.0000000001766,0.543642471421104
22999.9999999458,854.342849457594,1.00000000018386,0.547156944439188
23099.9999999443,854.0209000604,1.00000000018423,0.544826836166525
23199.9999999429,853.639203052952,1.00000000017647,0.536633719538992
23299.9999999414,853.192443036104,1.0000000001586,0.524062491542327
23399.99999994,852.655018003793,1.00000000013402,0.510852781422014
23499.9999999385,852.01865770192,1.00000000012246,0.502083935267642
23599.9999999371,851.276396743457,1.00000000012221,0.501523340742813
23699.9999999356,850.431875580148,1.00000000012907,0.510806317338928
23799.9999999342,849.51002205488,1.00000000014804,0.525075594800743
23899.9999999327,848.527354449437,1.00000000017123,0.539113420155334
23999.9999999312,847.509850715205,1.00000000018937,0.54904265737097
24099.9999999298,846.472711541874,1.00000000019613,0.552498716293429
24199.9999999283,845.415101975082,1.00000000019652,0.548773072652828
24299.9999999269,844.336311896917,1.00000000017932,0.537905591188415
24399.9999999254,843.213639453369,1.00000000015961,0.520881102148064
24499.999999924,842.027725442215,1.00000000013554,0.501732270976617
24599.9999999225,840.760248437686,1.00000000011179,0.486660227974471
24699.9999999211,839.396987669844,1.00000000010087,0.481955084905379
24799.9999999196,837.947782341411,1.00000000010711,0.490681743131899
24899.9999999181,836.424778516458,1.00000000012938,0.509289202948313
24999.9999999167,834.854871472785,1.00000000016554,0.529702172761421
25099.9999999152,833.264961397791,1.00000000018669,0.545772473119239
25199.9999999138,831.671501583047,1.00000000020481,0.555584050779986
25299.9999999123,830.089859214991,1.00000000021124,0.557100293393632
25399.9999999109,828.517389502392,1.00000000021182,0.551361872228959
25499.9999999094,826.943315007978,1.00000000019754,0.537813097861837
25599.999999908,825.350920173975,1.00000000016428,0.51670572406778
25699.9999999065,823.711800440064,1.00000000012709,0.492511460422434
25799.9999999051,822.00938544143,1.0000000001041,0.471429868663539
25899.9999999036,820.228551094356,1.00000000008792,0.461368936674266
25999.9999999021,818.369829738727,1.00000000009188,0.468094246985151
26099.9999999007,816.451106686393,1.00000000011693,0.489260770710625
26199.9999998992,814.490351669758,1.00000000014835,0.515051099539947
26299.9999998978,812.516849376605,1.0000000001826,0.537789967887933
26399.9999998963,810.551200743577,1.00000000020478,0.552654126360995
26499.9999998949,808.606599370552,1.00000000023648,0.560151455005797
26599.9999998934,806.693493867457,1.00000000023554,0.560006586515947
26699.999999892,804.804986170936,1.00000000022763,0.553398706543814
26799.9999998905,802.9321496524,1.00000000020257,0.538729774114444
26899.999999889,801.055738017885,1.00000000017187,0.515656645321667
26999.9999998876,799.1510403398,1.00000000013571,0.487507720900091
27099.9999998861,797.201664456959,1.00000000010409,0.460327040281864
27199.9999998847,795.189640907789,1.00000000008156,0.443648626658781
27299.9999998832,793.115698229925,1.00000000008079,0.44433963355281
27399.9999998818,790.988588833055,1.00000000009913,0.462335788712597
27499.9999998803,788.823838333522,1.00000000012845,0.491200818388081
27599.9999998789,786.64693015414,1.0000000001708,0.520856370533496
27699.9999998774,784.475510314274,1.00000000019849,0.541125737294209
27799.9999998759,782.32630632233,1.00000000023648,0.555891677059599
27899.9999998745,780.212280747504,1.00000000022729,0.560088809951575
27999.999999873,778.132984060462,1.00000000024259,0.560523138685699
28099.9999998716,776.090129057993,1.00000000023512,0.55473572804532
28199.9999998701,774.071007801758,1.00000000020909,0.540700117956805
28299.9999998687,772.061543481725,1.00000000019639,0.521360109881709
28399.9999998672,770.045510787224,1.00000000014822,0.491369347037867
28499.9999998658,768.001307023073,1.00000000012286,0.461254444367625
28599.9999998643,765.918856531574,1.00000000008603,0.435122836390094
28699.9999998629,763.788879669542,1.00000000007652,0.423722997463236
28799.9999998614,761.614000471097,1.00000000007941,0.430458121310306
