Time,AGPnorm,Energy,Entropy
0,0,1,-1.26134918587712e-17
99.9999999999986,1.2149671949018e-05,0.999999999998992,0.000557912667998764
199.999999999993,0.00106499135667843,0.999999999998868,0.000894162849961083
300,0.00266688424068561,1.00000000000009,0.00157519684428177
400.000000000022,0.00364602952696673,0.999999999998347,0.00273048067395619
500.000000000045,0.00442073632311992,0.999999999999764,0.00368859647888176
600.000000000068,0.00646908264671799,0.999999999999345,0.00513927204606517
700.000000000091,0.00805445251271233,0.999999999998569,0.00662886204197089
800.000000000113,0.0101708595746179,1.0000000000002,0.00817324195791719
900.000000000136,0.0127014969198673,0.999999999998482,0.0100894400062773
1000.00000000016,0.0149250877115997,0.999999999999443,0.0119009545480145
1100.0000000001,0.0181126359495313,0.999999999999712,0.0139474015980871
1200,0.021243344345642,0.999999999998353,0.0161557644038538
1299.99999999991,0.0243308198661239,1.00000000000015,0.0183420771551068
1399.99999999982,0.028016505510512,0.999999999998749,0.0208002671119359
1499.99999999973,0.0316596985279794,0.999999999999101,0.0232575070916633
1599.99999999964,0.0358505862278504,1.00000000000001,0.0258169842701022
1699.99999999955,0.0401289124155025,0.999999999998245,0.0285867582755347
1799.99999999946,0.0442793940857258,0.999999999999964,0.0313299238198655
1899.99999999937,0.0490921530605249,0.999999999999122,0.0342529381996757
1999.99999999928,0.0539328007988447,0.99999999999877,0.0372753249603724
2099.99999999919,0.0588435014222715,1.00000000000017,0.0403331192342331
2199.99999999909,0.0640022208717599,0.999999999998281,0.0435970120515801
2299.999999999,0.0692204695376669,0.9999999999997,0.0468768711476071
2399.99999999891,0.0750016747440844,0.99999999999953,0.0502692413334165
2499.99999999882,0.0807452994824144,0.999999999998475,0.0538349184141119
2599.99999999873,0.086202331177376,1.00000000000017,0.0574114885804377
2699.99999999864,0.092081947599777,0.9999999999985,0.0611692387689334
2799.99999999855,0.0982267273537592,0.999999999999413,0.0650187930778574
2899.99999999846,0.104642210241143,0.99999999999987,0.0689448065347008
2999.99999999837,0.110956537727882,0.999999999998236,0.0730794581639251
3099.99999999828,0.116937836387714,1.00000000000004,0.0772414727370422
3199.99999999819,0.123454133574373,0.999999999998884,0.081571981885188
3299.99999999809,0.130268344492632,0.999999999999114,0.0860833571948544
3399.999999998,0.136933523674923,1.00000000000007,0.0906572683117688
3499.99999999791,0.143541348674457,0.999999999998117,0.0954659740505986
3599.99999999782,0.150061701273547,0.999999999999829,0.100366774891653
3699.99999999773,0.157090149415803,0.999999999999337,0.105444728736846
3799.99999999764,0.164232889327562,0.999999999998803,0.110803995883288
3899.99999999755,0.170878167430111,1.00000000000012,0.116250510109961
3999.99999999746,0.177605040713852,0.999999999998256,0.121974247763234
4099.99999999738,0.184550554873703,0.999999999999678,0.127932283568463
4199.99999999775,0.191848741280542,0.999999999999785,0.134140328529091
4299.99999999811,0.198915985750441,0.999999999998643,0.14075921807523
4399.99999999848,0.205469185655558,1.00000000000034,0.14757482212562
4499.99999999884,0.212305313958452,0.999999999999077,0.154815383869446
4599.9999999992,0.219413955802719,1.00000000000037,0.162535642164247
4699.99999999957,0.226839317931216,1.0000000000017,0.170656124286562
4799.99999999993,0.23341558064729,1.00000000000113,0.179359431263077
4900.00000000029,0.240151580965184,1.00000000000485,0.188402222823406
5000.00000000066,0.247701170913952,1.00000000000683,0.197932391457347
5100.00000000102,0.254620543459051,1.00000000001088,0.207980762201161
5200.00000000139,0.263908914083288,1.00000000001699,0.218236256251852
5300.00000000175,0.271670833959035,1.00000000002155,0.228790446453329
5400.00000000211,0.281889271775217,1.00000000003059,0.239398685481849
5500.00000000248,0.297750482678506,1.00000000003767,0.250092523118038
5600.00000000284,0.312950248002818,1.00000000004772,0.260855988729146
5700.00000000321,0.339747761157411,1.00000000005909,0.271344448188941
5800.00000000357,0.372763454661456,1.00000000006906,0.281757871033306
5900.00000000393,0.416887377249772,1.00000000007925,0.292025376835172
6000.0000000043,0.485761963775897,1.00000000009631,0.302025903865039
6100.00000000466,0.567465320001615,1.00000000010562,0.311999161363379
6200.00000000502,0.683615310303869,1.00000000012132,0.321511946909911
6300.00000000539,0.836185116496132,1.00000000012894,0.330866300464384
6400.00000000575,1.02432193724973,1.00000000014591,0.340125303518931
6500.00000000612,1.27581409290649,1.0000000001567,0.349014537064026
6600.00000000648,1.57916410953676,1.00000000017517,0.357771466642941
6700.00000000684,1.95469279251134,1.00000000018876,0.366178146789152
6800.00000000721,2.41937407917365,1.00000000020668,0.374299480587963
6900.00000000757,2.96356390337454,1.00000000021207,0.382504442209165
7000.00000000793,3.62160129045212,1.00000000022858,0.390117703205818
7100.0000000083,4.39153045225123,1.00000000024298,0.397610669831022
7200.00000000866,5.2797490063556,1.00000000024902,0.404982705385376
7300.00000000903,6.31748581488029,1.00000000025945,0.411926727418491
7400.00000000939,7.49127373854573,1.0000000002718,0.418898989511133
7500.00000000975,8.8270585665454,1.00000000028235,0.425377932525362
7600.00000001012,10.3384098295727,1.00000000028363,0.431662107158618
7700.00000001048,12.0136560318251,1.00000000029262,0.437979767906656
7800.00000001084,13.8886275445754,1.00000000029729,0.443790583377152
7900.00000001121,15.9558332047763,1.00000000030253,0.449583343597108
8000.00000001157,18.2195984834907,1.00000000032279,0.4549901341829
8100.00000001194,20.7080284743631,1.00000000033164,0.460163817133464
8200.0000000123,23.3983758107812,1.00000000033244,0.465488922765989
8300.00000001266,26.3166812264274,1.00000000034142,0.470226907015794
8400.00000001303,29.4695153769754,1.00000000034399,0.474891734162534
8500.00000001339,32.8358758970557,1.00000000035816,0.479442722253516
8600.00000001376,36.450666140373,1.00000000035451,0.483704641946381
8700.00000001412,40.2926968169209,1.00000000033879,0.488092539410534
8800.00000001448,44.3660157409193,1.000000000371,0.49185206199214
8900.00000001485,48.6931890422589,1.00000000037405,0.495566607017446
9000.00000001521,53.2356623358282,1.00000000036838,0.499392625174303
9100.00000001557,58.0223680848881,1.00000000036684,0.502755677923846
9200.00000001594,63.0449909397642,1.00000000037395,0.506151375465808
9300.0000000163,68.2814289353262,1.00000000037244,0.509288013468211
9400.00000001667,73.7651089627033,1.00000000037839,0.51216338398162
9500.00000001703,79.4537656162041,1.00000000037646,0.515260735603019
9600.00000001739,85.3593192296473,1.00000000038285,0.517818031154128
9700.00000001776,91.4914184748218,1.00000000037396,0.52038073355792
9800.00000001812,97.8067452382948,1.00000000039697,0.522860312195761
9900.00000001848,104.339814801778,1.000000000398,0.525129828618261
10000.0000000188,111.056854004524,1.00000000038618,0.527539686064805
10100.0000000192,117.949069945677,1.00000000039114,0.529577458256669
10200.0000000196,125.041369379359,1.00000000037635,0.531538865410964
10300.0000000199,132.279355774973,1.00000000039306,0.533439902763248
10400.0000000203,139.689239659866,1.00000000038477,0.535228162888661
10500.0000000207,147.254925245103,1.00000000037979,0.5370286478329
10600.000000021,154.946246801847,1.00000000036641,0.538598273148747
10700.0000000214,162.796892901079,1.00000000038118,0.539909529430802
10800.0000000218,170.75482813433,1.00000000037826,0.541537701930029
10900.0000000221,178.830553364808,1.00000000039687,0.542577631331541
11000.0000000225,187.026572477972,1.00000000038909,0.543960103339211
11100.0000000229,195.299237979535,1.00000000037163,0.545200345968352
11200.0000000232,203.681467671382,1.00000000037897,0.545946405935683
11300.0000000236,212.132247817904,1.00000000036915,0.547488306700287
11400.0000000239,220.64532785196,1.00000000037664,0.547989184841282
11500.0000000243,229.23890991343,1.0000000003781,0.548788688990721
11600.0000000247,237.862736322117,1.0000000003862,0.549892171211869
11700.000000025,246.543994516104,1.00000000037329,0.550227072932914
11800.0000000254,255.256412600254,1.00000000037887,0.551285286894483
11900.0000000258,263.979973944681,1.00000000036657,0.551756195031143
12000.0000000261,272.740871539386,1.00000000036079,0.551851047267501
12100.0000000265,281.490763777085,1.00000000037782,0.553089078214097
12200.0000000269,290.247825093711,1.00000000037115,0.552968494273451
12300.0000000272,299.000337257713,1.0000000003539,0.553351411565198
12400.0000000276,307.719380881216,1.00000000036159,0.554313273572019
12500.0000000279,316.435169612555,1.00000000035877,0.553995042820588
12600.0000000283,325.105005097197,1.00000000035826,0.554510972070577
12700.0000000287,333.735620697867,1.00000000035741,0.554790794561392
12800.000000029,342.331933781425,1.00000000035509,0.554418330361374
12900.0000000294,350.855312813204,1.00000000035757,0.555376549242201
13000.0000000298,359.337401544142,1.00000000035328,0.554961815442561
13100.0000000301,367.745911942409,1.00000000034154,0.554822815402841
13200.0000000305,376.07488740968,1.00000000034308,0.555446124729731
13300.0000000309,384.342534153459,1.00000000033792,0.555161401484655
13400.0000000312,392.509483828348,1.00000000033697,0.555243976304261
13500.0000000316,400.599181598108,1.00000000032684,0.555343881775939
13600.0000000319,408.594962225301,1.00000000033465,0.554887748366638
13700.0000000323,416.479133872993,1.00000000032566,0.555083248689628
13800.0000000327,424.277361482108,1.00000000031936,0.555116604779923
13900.000000033,431.955134364074,1.00000000031645,0.554786855538177
14000.0000000334,439.526325473938,1.00000000031759,0.55470479290959
14100.0000000338,446.986454949306,1.00000000030518,0.554652299581609
14200.0000000341,454.315683193117,1.00000000031973,0.554151359009804
14300.0000000345,461.535972845274,1.0000000003113,0.553940172362179
14400.0000000349,468.622267039346,1.0000000003006,0.554333644910356
14500.0000000352,475.581657510592,1.00000000029354,0.553969561392799
14600.0000000356,482.416043638769,1.00000000030085,0.553116066441045
14700.0000000359,489.10312215432,1.00000000030637,0.553223446884686
14800.0000000363,495.666886898192,1.00000000029182,0.55326098406521
14900.0000000367,502.088772995466,1.00000000028861,0.552772100907286
15000.000000037,508.364906894681,1.00000000028904,0.552569005541407
15100.0000000374,514.508483819049,1.00000000029182,0.5523581444527
15200.0000000378,520.498491150136,1.00000000028951,0.551840246114648
15300.0000000381,526.352332232358,1.00000000028787,0.551384091800512
15400.0000000385,532.057826030549,1.0000000002769,0.55134138981156
15500.0000000389,537.61105116097,1.00000000027243,0.551731943715018
15600.0000000392,543.026412521597,1.00000000028132,0.550602413466519
15700.0000000396,548.282654310312,1.00000000027238,0.55030290371929
15800.0000000399,553.39662907866,1.0000000002743,0.550500187334312
15900.0000000403,558.362077221438,1.00000000027426,0.549758845629627
16000.0000000407,563.172501059053,1.0000000002717,0.550159418566838
16100.000000041,567.841045784809,1.00000000026134,0.549130798866508
16200.0000000414,572.356148618181,1.000000000265,0.550149744506311
16300.0000000418,576.724531086646,1.00000000025906,0.548819506631903
16400.0000000418,580.950200527809,1.00000000026006,0.548648918111252
16500.0000000404,585.018685038322,1.0000000002512,0.547705566770641
16600.0000000389,588.94982735301,1.00000000025996,0.548097950890836
16700.0000000375,592.729346195847,1.00000000024757,0.547771664031155
16800.000000036,596.363789640544,1.00000000025803,0.54794174952285
16900.0000000346,599.856894782897,1.00000000024498,0.547174572933528
17000.0000000331,603.199652264284,1.00000000025813,0.546762053552178
17100.0000000317,606.405734677713,1.00000000023954,0.54542781713007
17200.0000000302,609.466445956912,1.00000000024231,0.545219856924897
17300.0000000287,612.382835078266,1.00000000023856,0.545570765283257
17400.0000000273,615.164810808539,1.00000000023223,0.546590362331771
17500.0000000258,617.803340119316,1.00000000024327,0.546651039660415
17600.0000000244,620.311305312799,1.00000000023941,0.54588489698053
17700.0000000229,622.682776351351,1.00000000022883,0.543753538756628
17800.0000000215,624.915082567659,1.00000000023399,0.542410310012315
17900.00000002,627.017385074052,1.00000000022842,0.54163762267688
18000.0000000186,628.980594450537,1.00000000023168,0.543351564820061
18100.0000000171,630.818411619008,1.00000000022659,0.545866765180011
18200.0000000156,632.532347235839,1.00000000022729,0.547341939494549
18300.0000000142,634.122599135456,1.00000000023065,0.546499243156963
18400.0000000127,635.596635930576,1.00000000021291,0.542396646566835
18500.0000000113,636.942615313525,1.00000000021525,0.538713344721324
18600.0000000098,638.163695957774,1.00000000020465,0.536678569153481
18700.0000000084,639.260069982283,1.00000000020447,0.539064131751788
18800.0000000069,640.234188452378,1.00000000021066,0.544081655085786
18900.0000000055,641.103614292137,1.00000000022563,0.548699381539514
19000.000000004,641.871219880835,1.00000000022082,0.550106136106413
19100.0000000026,642.542506039227,1.00000000021959,0.546291378511349
19200.0000000011,643.114617910284,1.00000000020812,0.538934421565403
19299.9999999996,643.571378945062,1.00000000019123,0.531854485883485
19399.9999999982,643.914003960362,1.00000000018572,0.529800057354254
19499.9999999967,644.139847661486,1.00000000018872,0.534620876445175
19599.9999999953,644.26342789767,1.00000000020739,0.544059418973226
19699.9999999938,644.305675757039,1.00000000022165,0.551933622774058
19799.9999999924,644.275236225079,1.00000000022207,0.554418816367241
19899.9999999909,644.18232635691,1.00000000022779,0.549622251564128
19999.9999999895,644.014857054136,1.0000000002136,0.53833265588206
20099.999999988,643.756066105794,1.00000000018076,0.526684903034924
20199.9999999865,643.395536268209,1.00000000016493,0.519134574530892
20299.9999999851,642.925711843086,1.00000000016456,0.522812598098319
20399.9999999836,642.366325094661,1.00000000018777,0.535347738141609
20499.9999999822,641.73729194332,1.00000000021128,0.549165991699508
20599.9999999807,641.061855484975,1.0000000002387,0.558183309391872
20699.9999999793,640.356010473602,1.00000000024925,0.557832833809604
20799.9999999778,639.613115782818,1.00000000023194,0.548377608880545
20899.9999999764,638.82067042011,1.00000000020032,0.531497284924088
20999.9999999749,637.953327615312,1.00000000016354,0.51357540974887
21099.9999999734,636.993050481679,1.00000000014646,0.504335332064703
21199.999999972,635.942635434591,1.00000000015521,0.509455539263868
21299.9999999705,634.814292526149,1.00000000018244,0.527441333283512
21399.9999999691,633.639728679765,1.00000000023041,0.547518802753516
21499.9999999676,632.445100669978,1.00000000025909,0.560610307254564
21599.9999999662,631.244831844242,1.00000000027938,0.563369766048222
21699.9999999647,630.043636870009,1.00000000026481,0.554823042594433
21799.9999999633,628.821963021741,1.00000000022555,0.536551995985254
21899.9999999618,627.557590719836,1.00000000017782,0.512190975013236
21999.9999999603,626.225168534127,1.00000000014324,0.491369982403062
22099.9999999589,624.810182028146,1.00000000012803,0.485702512467784
22199.9999999574,623.323436592864,1.00000000014817,0.500091947799163
22299.999999956,621.784414788044,1.00000000019426,0.526869075746858
22399.9999999545,620.224832089277,1.00000000024449,0.550998737582978
22499.9999999531,618.670698140079,1.00000000026199,0.56497199559658
22599.9999999516,617.133600391838,1.00000000028787,0.56746968980945
22699.9999999502,615.615621957082,1.0000000002745,0.558577741851573
22799.9999999487,614.098953809211,1.00000000023534,0.538747204369029
22899.9999999473,612.559373014433,1.00000000018912,0.510335203203034
22999.9999999458,610.972238582461,1.00000000014393,0.481725402778878
23099.9999999443,609.317556664823,1.00000000012043,0.467026326067635
23199.9999999429,607.59926845468,1.00000000012057,0.474737064198438
23299.9999999414,605.830985086466,1.00000000016647,0.502504365951971
23399.99999994,604.039707549112,1.00000000022065,0.534936087775929
23499.9999999385,602.254004425474,1.00000000026408,0.557968079164627
23599.9999999371,600.490360947986,1.00000000030609,0.568896199475303
23699.9999999356,598.759250128731,1.00000000030691,0.569566652059876
23799.9999999342,597.05604177846,1.00000000030007,0.559102618425831
23899.9999999327,595.36437267323,1.00000000025833,0.538465220834207
23999.9999999312,593.664653394526,1.00000000019225,0.507632450434428
24099.9999999298,591.930508410092,1.00000000014317,0.474412504262553
24199.9999999283,590.148064953389,1.00000000011142,0.453092533557125
24299.9999999269,588.312458292383,1.00000000010734,0.453497052917775
24399.9999999254,586.433266085128,1.00000000014052,0.477258363392986
24499.999999924,584.533433684133,1.0000000002,0.513256999545316
24599.9999999225,582.633265783194,1.00000000025252,0.544337049320315
24699.9999999211,580.753216151852,1.00000000030779,0.562976474892026
24799.9999999196,578.905289016488,1.00000000031333,0.569377264440824
24899.9999999181,577.091540355371,1.00000000032288,0.567325060906715
24999.9999999167,575.30888198904,1.00000000029293,0.556765590184915
25099.9999999152,573.542873500543,1.00000000025202,0.536021721900659
25199.9999999138,571.776553350355,1.00000000020044,0.506465096569808
25299.9999999123,569.992358961355,1.0000000001552,0.471706837373109
25399.9999999109,568.17404662346,1.00000000012262,0.445719819212643
25499.9999999094,566.319527942146,1.00000000010575,0.438539959862568
25599.999999908,564.431064400441,1.00000000012426,0.452864147249657
25699.9999999065,562.521938634469,1.00000000016938,0.484121530471857
25799.9999999051,560.609589489537,1.00000000021656,0.520071619801537
25899.9999999036,558.707949708771,1.00000000026874,0.546621616916216
25999.9999999021,556.830307482414,1.000000000299,0.561866132754957
26099.9999999007,554.983269735991,1.00000000030774,0.564535217786037
26199.9999998992,553.167415869871,1.00000000031297,0.561835221050955
26299.9999998978,551.380698900502,1.00000000029451,0.551568677628139
26399.9999998963,549.612400052432,1.00000000026628,0.534124787422243
26499.9999998949,547.852191611353,1.00000000022824,0.510698539502515
26599.9999998934,546.087507256862,1.00000000017877,0.479828370624107
26699.999999892,544.306498590703,1.00000000014499,0.451926031970991
26799.9999998905,542.505641729479,1.00000000012072,0.435060439861606
26899.999999889,540.682235269733,1.00000000011643,0.435259215881206
26999.9999998876,538.843409734064,1.00000000013977,0.451380291940005
27099.9999998861,536.996901857224,1.0000000001796,0.479118074669919
27199.9999998847,535.152156215268,1.00000000022402,0.510959553401951
27299.9999998832,533.31999110592,1.00000000027364,0.536513924278825
27399.9999998818,531.506883466422,1.00000000029705,0.550336381269347
27499.9999998803,529.71714303535,1.00000000030548,0.55549983885083
27599.9999998789,527.953385896979,1.00000000031913,0.552667317659965
27699.9999998774,526.212932594085,1.00000000028704,0.544554510574323
27799.9999998759,524.492491583271,1.00000000027248,0.534813360211688
27899.9999998745,522.7860430467,1.00000000024257,0.518509662036513
27999.999999873,521.08552382426,1.00000000021885,0.499277541769152
28099.9999998716,519.385759957164,1.0000000001873,0.477738446923771
28199.9999998701,517.679920263773,1.00000000015416,0.455570452895944
28299.9999998687,515.967047549202,1.00000000013988,0.441483228398482
28399.9999998672,514.245805846152,1.00000000013659,0.436175192842685
28499.9999998658,512.518846384062,1.00000000013885,0.443739839896161
28599.9999998643,510.790417252785,1.00000000016283,0.460424709032447
28699.9999998629,509.064240924415,1.00000000019788,0.484104911065975
28799.9999998614,507.346102422298,1.00000000022543,0.507602773111056
