Time,AGPnorm,Energy,Entropy
0,0,1,6.13990079897833e-19
99.9999999999986,0.0050434164170737,1.00000000000112,0.0153210245963858
199.999999999993,0.0137697848712977,1.00000000000028,0.0445412858651623
300,0.0285057272397825,1.00000000000094,0.0872953244965179
400.000000000022,0.0439670974472027,1.00000000000274,0.143313880836807
500.000000000045,0.0599733285225003,1.00000000003839,0.221272674142648
600.000000000068,0.0947489081105227,1.00000000031727,0.324206330977147
700.000000000091,0.2171283433345,1.00000000089043,0.423501171954008
800.000000000113,0.760507726904704,1.0000000014853,0.493558947882666
900.000000000136,1.98125470693077,1.00000000180406,0.53599735146667
1000.00000000016,4.03903990219012,1.00000000191042,0.558556610066382
1100.0000000001,6.85312081644019,1.00000000215512,0.568486479569017
1200,10.1487877000346,1.0000000019076,0.570260727057039
1299.99999999991,13.6722011307314,1.00000000195416,0.568126920204068
1399.99999999982,17.1115323554329,1.00000000172599,0.561177875064862
1499.99999999973,20.2654452479183,1.00000000168037,0.551635788603648
1599.99999999964,22.9799478167299,1.00000000157492,0.546728257770509
1699.99999999955,25.1744996240689,1.00000000146501,0.53518254521251
1799.99999999946,26.8502488161001,1.00000000133191,0.540604513333683
1899.99999999937,27.9821671095098,1.00000000115935,0.511486117643159
1999.99999999928,28.6684676684788,1.00000000122527,0.54719457105456
2099.99999999919,28.9259269660072,1.00000000092344,0.478687592472891
2199.99999999909,28.8273228509773,1.0000000013457,0.554132035358192
2299.999999999,28.594550669453,1.000000001057,0.495430217075517
2399.99999999891,28.0364799301528,1.00000000086175,0.459488824151001
2499.99999999882,27.4438828330566,1.00000000158185,0.582677166066164
2599.99999999873,26.8712102473738,1.00000000098246,0.460467677453269
2699.99999999864,26.1163285715887,1.00000000073578,0.388306958963004
2799.99999999855,25.3406155959737,1.00000000174151,0.555912489042621
2899.99999999846,24.6856046438209,1.00000000161457,0.559457394226174
2999.99999999837,24.0357156794447,1.00000000073832,0.382761492616504
3099.99999999828,23.3255684898771,1.0000000007421,0.36800272821981
3199.99999999819,22.6194290287604,1.00000000151688,0.519621711087391
3299.99999999809,21.9678748788013,1.00000000160419,0.551133021977313
3399.999999998,21.3892437419209,1.00000000151788,0.546079158267193
3499.99999999791,20.8246473180023,1.00000000071052,0.379346653978625
3599.99999999782,20.2953234967129,1.00000000071349,0.347390792184056
3699.99999999773,19.80049405182,1.00000000132992,0.475290850559223
3799.99999999764,19.3049713748573,1.00000000126022,0.53449807087229
3899.99999999755,18.8248859271501,1.00000000125571,0.502147997440172
3999.99999999746,18.3567798276822,1.00000000166612,0.569469523712095
4099.99999999738,17.9189795513342,1.00000000128706,0.535313089718122
4199.99999999775,17.5257206867858,1.00000000060143,0.386308308415724
4299.99999999811,17.2331925115169,1.00000000070624,0.337231675952791
4399.99999999848,17.013320266735,1.00000000110726,0.437249506530736
4499.99999999884,16.7803249936545,1.00000000140662,0.517065165925784
4599.9999999992,16.5046636903245,1.00000000136794,0.55259094397057
4699.99999999957,16.2291217830612,1.00000000093536,0.517803409348589
4799.99999999993,15.9677601434741,1.00000000110552,0.509269349172076
4900.00000000029,15.6845764762765,1.00000000154373,0.527275612713842
5000.00000000066,15.3837747204992,1.00000000164507,0.57211785879837
5100.00000000102,15.0889257406536,1.00000000134859,0.565542642353431
5200.00000000139,14.8295027845334,1.0000000007971,0.454996197539567
5300.00000000175,14.6716643586448,1.00000000059238,0.361021926891087
5400.00000000211,14.6501630364895,1.00000000078691,0.361174195480449
5500.00000000248,14.7004040512887,1.00000000120725,0.436981333580393
5600.00000000284,14.7170453810933,1.00000000145584,0.514675948799505
5700.00000000321,14.6887398688896,1.00000000126819,0.540983613885255
5800.00000000357,14.639929322698,1.00000000126485,0.534362785685446
5900.00000000393,14.5578469344396,1.00000000142412,0.554084903527253
6000.0000000043,14.4409077638968,1.0000000013405,0.546673513477235
6100.00000000466,14.3141614141683,1.00000000112818,0.541231116275489
6200.00000000502,14.1867079984502,1.00000000123796,0.546121068360733
6300.00000000539,14.062886690995,1.00000000108356,0.544630268535473
6400.00000000575,13.9316596428207,1.00000000124694,0.545145071849782
6500.00000000612,13.7775807883284,1.0000000013949,0.557933675832766
6600.00000000648,13.6014850478492,1.00000000173485,0.561965944423505
6700.00000000684,13.4116808016168,1.00000000165362,0.585127136528676
6800.00000000721,13.2218992828994,1.00000000125483,0.573257276828466
6900.00000000757,13.0508653883244,1.00000000088488,0.500909695719841
7000.00000000793,12.9487834612496,1.0000000006425,0.415931391898049
7100.0000000083,12.9740880657263,1.00000000063437,0.369913883527015
7200.00000000866,13.1389562686489,1.00000000081484,0.380106564246054
7300.00000000903,13.3859016654822,1.00000000112656,0.424084122760644
7400.00000000939,13.6270913671826,1.00000000135529,0.483493267652211
7500.00000000975,13.8273647242666,1.00000000131932,0.52452133435031
7600.00000001012,13.9753229443106,1.00000000135033,0.5508641045002
7700.00000001048,14.0862023285651,1.00000000122669,0.553480758221593
7800.00000001084,14.1637575730459,1.00000000122484,0.573341290908578
7900.00000001121,14.1996306618618,1.00000000139517,0.589691603206439
8000.00000001157,14.1988780763933,1.00000000123109,0.580771664738883
8100.00000001194,14.1763292622424,1.00000000131763,0.566973565975885
8200.0000000123,14.1410997760397,1.00000000121544,0.559911847876842
8300.00000001266,14.0955696813365,1.00000000140303,0.555956436399615
8400.00000001303,14.0357819731414,1.00000000123918,0.5479776021564
8500.00000001339,13.9771396751148,1.00000000110853,0.551479554916225
8600.00000001376,13.9231753554285,1.00000000122776,0.5532347189656
8700.00000001412,13.8684650659082,1.00000000124178,0.554107261835496
8800.00000001448,13.8098686250135,1.0000000011948,0.559063262428148
8900.00000001485,13.7522761691593,1.00000000118008,0.56044211113744
9000.00000001521,13.6900242206029,1.0000000012404,0.559925081767103
9100.00000001557,13.6188912938708,1.00000000132438,0.559247252523136
9200.00000001594,13.5341742700713,1.00000000126189,0.57495614145092
9300.0000000163,13.4404433258813,1.00000000126875,0.597961185067095
9400.00000001667,13.3446251273617,1.00000000107399,0.584815669022933
9500.00000001703,13.2505378778687,1.00000000109185,0.588470124221221
9600.00000001739,13.1510604188532,1.00000000129459,0.587631420566565
9700.00000001776,13.0437073653254,1.00000000140497,0.590211639547841
9800.00000001812,12.9289749398658,1.00000000148137,0.597781099023369
9900.00000001848,12.8124720615322,1.00000000155894,0.596770827179828
10000.0000000188,12.7000066153187,1.00000000176556,0.597809673299929
10100.0000000192,12.5906668161511,1.00000000164825,0.594424552959064
10200.0000000196,12.4785893147229,1.00000000145693,0.58208222754717
10300.0000000199,12.36057278508,1.00000000111566,0.540357068165342
10400.0000000203,12.2529930531023,1.00000000080509,0.480984772793985
10500.0000000207,12.1928062871641,1.00000000071581,0.430369889432994
10600.000000021,12.2253296486118,1.00000000057399,0.387986587390294
10700.0000000214,12.3781258908352,1.00000000065889,0.381816067770292
10800.0000000218,12.6581410199691,1.00000000080448,0.393523964759288
10900.0000000221,13.0162814400945,1.00000000116231,0.420681978635853
11000.0000000225,13.4105584214491,1.00000000129,0.452333718278258
11100.0000000229,13.787625247698,1.00000000155111,0.487032226181089
11200.0000000232,14.1296386519876,1.00000000135379,0.505931003265205
11300.0000000236,14.4367390351491,1.00000000140809,0.535012307157534
11400.0000000239,14.7020421017821,1.0000000012373,0.556107734366628
11500.0000000243,14.9329437415423,1.0000000013692,0.565510371816721
11600.0000000247,15.1284529836264,1.00000000136207,0.569580355323277
11700.000000025,15.2903123017895,1.00000000137531,0.590476359527847
11800.0000000254,15.4217172774319,1.00000000132904,0.599731366011868
11900.0000000258,15.5231573329945,1.00000000124093,0.602463528615174
12000.0000000261,15.5917049866979,1.0000000014779,0.606993226289612
12100.0000000265,15.6353921958153,1.00000000138518,0.612387336134174
12200.0000000269,15.6591796459558,1.00000000120587,0.610973274487033
12300.0000000272,15.6656916602228,1.00000000130604,0.599968099165149
12400.0000000276,15.666113132083,1.00000000129763,0.589031084915558
12500.0000000279,15.6521973348684,1.00000000145369,0.593735425086085
12600.0000000283,15.6240348830781,1.0000000012967,0.586833527573501
12700.0000000287,15.5933834998672,1.00000000129423,0.585296337589819
12800.000000029,15.5493801050877,1.00000000136493,0.59191762844462
12900.0000000294,15.4952225332707,1.00000000123358,0.593073355127354
13000.0000000298,15.4349212295072,1.00000000136397,0.601623173681096
13100.0000000301,15.3686863424832,1.00000000130181,0.602840165552104
13200.0000000305,15.2952698137708,1.00000000139298,0.6138688359352
13300.0000000309,15.2188808338924,1.00000000132346,0.606889419971934
13400.0000000312,15.1464702336875,1.00000000118757,0.59321075978787
13500.0000000316,15.0797271869225,1.00000000123559,0.574698030110761
13600.0000000319,15.0213130469626,1.00000000119138,0.563495646982358
13700.0000000323,14.9652293041558,1.00000000145045,0.575935700951208
13800.0000000327,14.9099062715578,1.00000000121471,0.581537481071435
13900.000000033,14.8552189443124,1.00000000133477,0.575828877115083
14000.0000000334,14.8006838363875,1.00000000130688,0.586476357217677
14100.0000000338,14.748547000031,1.00000000123007,0.591400143983484
14200.0000000341,14.7039298095014,1.00000000111612,0.584937564243153
14300.0000000345,14.6595134302011,1.00000000142229,0.580635500830477
14400.0000000349,14.6128407637507,1.0000000012718,0.586531035948462
14500.0000000352,14.5711115656313,1.00000000124349,0.579260758442399
14600.0000000356,14.5348338262705,1.00000000123826,0.56132336842504
14700.0000000359,14.4977430816572,1.00000000145317,0.556493874618087
14800.0000000363,14.4586394031848,1.00000000127866,0.55875167086789
14900.0000000367,14.4250484403774,1.00000000117389,0.566372904260969
15000.000000037,14.3942480126292,1.00000000135807,0.591370800420348
15100.0000000374,14.3592333324125,1.00000000133971,0.608480181812281
15200.0000000378,14.3246041953822,1.00000000132341,0.606679899739642
15300.0000000381,14.2903272214765,1.00000000138777,0.589488784234891
15400.0000000385,14.2520180346274,1.00000000133707,0.584863546456945
15500.0000000389,14.2146303812235,1.00000000120454,0.589000609845056
15600.0000000392,14.1817854564713,1.00000000138015,0.598490848428392
15700.0000000396,14.1461031894118,1.00000000139036,0.609050410882804
15800.0000000399,14.106656871887,1.00000000134052,0.615491631516137
15900.0000000403,14.0671057793813,1.00000000135206,0.614199140839355
16000.0000000407,14.0236843263523,1.00000000135398,0.626817484866687
16100.000000041,13.974369411006,1.00000000138801,0.624516391784369
16200.0000000414,13.9220165732966,1.00000000140615,0.612314967464111
16300.0000000418,13.8657465488396,1.00000000145497,0.614515478705282
16400.0000000418,13.8091303420018,1.000000001283,0.621262508729974
16500.0000000404,13.7581692305414,1.00000000112699,0.614055955233715
16600.0000000389,13.7129368059631,1.0000000013129,0.613796009389854
16700.0000000375,13.6636664069697,1.00000000152095,0.617868816978864
16800.000000036,13.6087605688058,1.00000000146311,0.61043995510684
16900.0000000346,13.5545759689259,1.00000000119492,0.615264362998536
17000.0000000331,13.5025932844767,1.00000000143315,0.626021833287106
17100.0000000317,13.4470674800599,1.00000000154016,0.623764981340502
17200.0000000302,13.39244409406,1.00000000126969,0.604381922395143
17300.0000000287,13.3415976466665,1.00000000130476,0.614608805179774
17400.0000000273,13.2886545218449,1.00000000134917,0.603126852106728
17500.0000000258,13.2336673516433,1.00000000134146,0.61877940498741
17600.0000000244,13.1769234300851,1.00000000145521,0.62266949043686
17700.0000000229,13.117164485424,1.00000000135815,0.623815165451656
17800.0000000215,13.0559763333657,1.000000001335,0.615470205251436
17900.00000002,12.9925045167468,1.00000000141528,0.631449262044545
18000.0000000186,12.9268423945931,1.00000000141199,0.629377853199993
18100.0000000171,12.8613439876521,1.0000000013516,0.628323530248431
18200.0000000156,12.7970828229265,1.00000000127365,0.624621586763751
18300.0000000142,12.7308148381013,1.00000000161834,0.648997732603468
18400.0000000127,12.6628702638586,1.00000000136923,0.631275746031437
18500.0000000113,12.5956856949499,1.00000000134208,0.637439910729163
18600.0000000098,12.5289003703565,1.00000000123067,0.620406067375952
18700.0000000084,12.4624714527058,1.00000000133836,0.630419004138423
18800.0000000069,12.3969290613237,1.0000000013264,0.641167850039416
18900.0000000055,12.3320795770697,1.0000000011712,0.629233821563335
19000.000000004,12.2679933771735,1.00000000124422,0.630076043117128
19100.0000000026,12.2055570861324,1.00000000126827,0.634946349525535
19200.0000000011,12.1453988182024,1.00000000129538,0.635134717261257
19299.9999999996,12.089288806227,1.00000000132233,0.627671811998809
19399.9999999982,12.0394818671327,1.00000000141036,0.63443570947481
19499.9999999967,11.9978814204965,1.00000000150493,0.639247531533275
19599.9999999953,11.9704233546456,1.00000000162943,0.639507629366886
19699.9999999938,11.9545769170833,1.00000000169388,0.647559469972205
19799.9999999924,11.9631433025966,1.00000000178959,0.643883549886082
19899.9999999909,11.9851775193088,1.00000000180518,0.644818559144273
19999.9999999895,12.0384498727788,1.0000000017308,0.640110334384895
20099.999999988,12.0984375478225,1.0000000017938,0.627092937755761
20199.9999999865,12.1832464824965,1.00000000190682,0.619424106210031
20299.9999999851,12.2605527847177,1.00000000164586,0.606604244820715
20399.9999999836,12.334960372633,1.00000000146548,0.597581793499615
20499.9999999822,12.379983301349,1.00000000134817,0.584959874081228
20599.9999999807,12.3943169222197,1.00000000120443,0.558698036499687
20699.9999999793,12.3758436681142,1.00000000094539,0.526649387105427
20799.9999999778,12.3319312151019,1.00000000095163,0.498186993132466
20899.9999999764,12.2815549491867,1.00000000091331,0.469051090390212
20999.9999999749,12.2456477010608,1.00000000083114,0.443018757611093
21099.9999999734,12.24954013814,1.0000000007828,0.421627414399461
21199.999999972,12.3181259069986,1.00000000080328,0.405946560282889
21299.9999999705,12.4785398352697,1.00000000077534,0.395506014304786
21399.9999999691,12.7343031372518,1.00000000080197,0.393919549018357
21499.9999999676,13.1127794984574,1.00000000094119,0.403182238349572
21599.9999999662,13.5712770926155,1.00000000095859,0.410534729635004
21699.9999999647,14.1345284849819,1.00000000122611,0.423157844712702
21799.9999999633,14.7319611405912,1.00000000136411,0.437997342094645
21899.9999999618,15.3794622623581,1.00000000144942,0.44450026662003
21999.9999999603,16.0302686388233,1.00000000142707,0.45864928883067
22099.9999999589,16.6808557712398,1.00000000155878,0.469499444495134
22199.9999999574,17.3224232683248,1.00000000152247,0.491399174004041
22299.999999956,17.9332753941236,1.00000000161586,0.496638795130548
22399.9999999545,18.531112417597,1.0000000016389,0.516159833961812
22499.9999999531,19.0929541550902,1.00000000157197,0.524270142728651
22599.9999999516,19.6464076361406,1.00000000156165,0.532231264592153
22699.9999999502,20.1638221398547,1.000000001398,0.541592687245356
22799.9999999487,20.6658511792758,1.00000000143089,0.550205459920742
22899.9999999473,21.1483937476237,1.00000000149499,0.564011095843875
22999.9999999458,21.5911527123343,1.00000000160445,0.566228023351193
23099.9999999443,22.0129350274093,1.00000000155924,0.584184185002191
23199.9999999429,22.3962983965425,1.00000000146676,0.594978893166903
23299.9999999414,22.7624778423138,1.00000000145675,0.597944300092578
23399.99999994,23.0911902604413,1.00000000142363,0.60469506852374
23499.9999999385,23.3955747829981,1.00000000139838,0.621980343736906
23599.9999999371,23.6699948165123,1.00000000137305,0.625949211532056
23699.9999999356,23.9138512075043,1.00000000152381,0.624860300831933
23799.9999999342,24.1379484104204,1.00000000143818,0.625611664326028
23899.9999999327,24.3271718242843,1.0000000015334,0.637601703481382
23999.9999999312,24.4984484462113,1.00000000157014,0.643263417124959
24099.9999999298,24.6442218954968,1.00000000139149,0.634977167173901
24199.9999999283,24.7780065022769,1.00000000138564,0.627223874914842
24299.9999999269,24.8899336582687,1.00000000147378,0.639603035283187
24399.9999999254,24.9825095999075,1.00000000143408,0.640560940883718
24499.999999924,25.0555428521548,1.00000000150829,0.64363025151142
24599.9999999225,25.1131665061867,1.00000000139312,0.634812715157443
24699.9999999211,25.1684651499266,1.00000000131416,0.62984942476021
24799.9999999196,25.2138854344907,1.00000000139829,0.623079583685998
24899.9999999181,25.2535790147425,1.00000000153104,0.620962855186092
24999.9999999167,25.2725859906704,1.00000000166814,0.644664129802221
25099.9999999152,25.2719837266828,1.00000000177773,0.645410891883314
25199.9999999138,25.2632427465239,1.00000000137084,0.635187691747446
25299.9999999123,25.2535404252106,1.00000000142058,0.627796681717123
25399.9999999109,25.2447267553266,1.00000000133404,0.617253420967177
25499.9999999094,25.2294771514711,1.0000000014107,0.60585653745725
25599.999999908,25.2113641203212,1.00000000160204,0.599991280584735
25699.9999999065,25.1859307790714,1.00000000147164,0.624375288595744
25799.9999999051,25.1550292276481,1.00000000152697,0.632207455460192
25899.9999999036,25.1183280987164,1.00000000165445,0.646106787541532
25999.9999999021,25.0793829383613,1.0000000013136,0.627377017316571
26099.9999999007,25.044688437545,1.00000000128973,0.60030136158329
26199.9999998992,25.0096088381178,1.000000001372,0.608408745712338
26299.9999998978,24.9686181096874,1.00000000169762,0.605705223725607
26399.9999998963,24.9166968972068,1.00000000159648,0.607127576381134
26499.9999998949,24.8610155618625,1.00000000136785,0.604609641682208
26599.9999998934,24.8064646936285,1.00000000135892,0.594679483314421
26699.999999892,24.7558183582621,1.00000000139261,0.613950320526899
26799.9999998905,24.7016870599644,1.00000000156818,0.633471491418227
26899.999999889,24.6402719185274,1.00000000149787,0.637304946260663
26999.9999998876,24.5780516894063,1.00000000138899,0.634149673512659
27099.9999998861,24.5178141254711,1.0000000014747,0.624623581491155
27199.9999998847,24.4602111540041,1.00000000140881,0.62650101855397
27299.9999998832,24.4021056909917,1.00000000140347,0.625210589115399
27399.9999998818,24.3449501641402,1.0000000014436,0.6171585760689
27499.9999998803,24.2936885025301,1.00000000108633,0.589882351682018
27599.9999998789,24.2504348315803,1.00000000136925,0.587143888693989
27699.9999998774,24.2066212835678,1.00000000154611,0.612333658316119
27799.9999998759,24.1543616059639,1.00000000168405,0.619129096518966
27899.9999998745,24.0969583163175,1.00000000153188,0.611607687640895
27999.999999873,24.0414081266983,1.00000000113528,0.586132689593766
28099.9999998716,23.9913465161514,1.00000000133838,0.620099862160092
28199.9999998701,23.9395015809782,1.00000000155659,0.638606789104738
28299.9999998687,23.8816895226004,1.00000000164367,0.625163510467037
28399.9999998672,23.8208396245141,1.00000000143754,0.62140128141677
28499.9999998658,23.7616024983229,1.00000000140286,0.613636963518808
28599.9999998643,23.7050930396318,1.00000000129353,0.616105508875061
28699.9999998629,23.6496157528424,1.00000000136741,0.603821573702174
28799.9999998614,23.5929421749306,1.00000000150594,0.614476349119201
28899.9999998599,23.5340517713849,1.00000000148498,0.620041527175725
28999.9999998585,23.4765235803834,1.00000000125176,0.60850554534693
29099.999999857,23.4193053759585,1.00000000138574,0.62554883440495
