Time,AGPnorm,Energy,Entropy
0,0,1,-7.08643705879638e-17
99.9999999999986,0.000546389293039387,1.00000000000004,0.00203947044835645
199.999999999993,0.00372923820744903,0.999999999999763,0.00612284218337589
300,0.00779291915572332,0.999999999999719,0.011380452146543
400.000000000022,0.0119380207144744,1.00000000000001,0.0179615164262766
500.000000000045,0.0170843262360439,0.999999999999908,0.0259526525178179
600.000000000068,0.0236936326488015,0.999999999999764,0.0351411386209523
700.000000000091,0.0311746019103203,0.999999999999782,0.0451795450589128
800.000000000113,0.0388566416312194,1.00000000000001,0.0560836571135153
900.000000000136,0.0474806462742383,1.00000000000005,0.0681804450381528
1000.00000000016,0.0564524344072182,0.999999999999565,0.0814447044316449
1100.0000000001,0.0665530110030465,0.99999999999985,0.0959295530008131
1200,0.0759625956895457,1.00000000000006,0.11168901401477
1299.99999999991,0.0860500273145092,1.00000000000046,0.129121039527285
1399.99999999982,0.0961634183649042,1.00000000000028,0.148778634519866
1499.99999999973,0.106480857512126,1.00000000000208,0.170990848971032
1599.99999999964,0.117440824489145,1.00000000000896,0.196514874801713
1699.99999999955,0.129145329529028,1.00000000002663,0.225403613498281
1799.99999999946,0.141175305447404,1.00000000005723,0.257420193972465
1899.99999999937,0.157830640137484,1.0000000001167,0.290438326994649
1999.99999999928,0.204261637963309,1.00000000018499,0.322810478207251
2099.99999999919,0.304420059913705,1.00000000026978,0.353041983627627
2199.99999999909,0.481931428333062,1.00000000033879,0.380658511026864
2299.999999999,0.786958463767821,1.00000000043214,0.405525021443372
2399.99999999891,1.29768173948841,1.00000000050573,0.427481444481591
2499.99999999882,2.07856419050757,1.00000000057938,0.446982499685347
2599.99999999873,3.16679455372672,1.00000000061628,0.464246142472764
2699.99999999864,4.61317945535536,1.0000000006966,0.479497659263958
2799.99999999855,6.47472302620547,1.00000000073189,0.492498944410728
2899.99999999846,8.77889770534484,1.00000000078429,0.503783393832975
2999.99999999837,11.5272439700251,1.0000000007899,0.513649352571411
3099.99999999828,14.718207008005,1.00000000074448,0.522235214350853
3199.99999999819,18.3535539852997,1.00000000080616,0.529150018245105
3299.99999999809,22.4013436468015,1.00000000079534,0.535102723648849
3399.999999998,26.8198871444113,1.0000000008019,0.539951532082895
3499.99999999791,31.5747824213251,1.00000000088431,0.544069146115246
3599.99999999782,36.6300905559079,1.00000000081894,0.547563943861413
3699.99999999773,41.9286451467867,1.00000000079539,0.550042680369863
3799.99999999764,47.4052852763149,1.00000000080498,0.551457315431721
3899.99999999755,53.0179216954238,1.00000000079756,0.553244556026899
3999.99999999746,58.7232954138342,1.00000000079948,0.554517148590568
4099.99999999738,64.4737623238459,1.00000000077975,0.554042538987319
4199.99999999775,70.2059955231567,1.00000000075582,0.554010315331867
4299.99999999811,75.8744077523205,1.00000000074614,0.554672433281362
4399.99999999848,81.4550479158294,1.00000000077159,0.553163344915223
4499.99999999884,86.9144963285424,1.00000000072461,0.551985331096063
4599.9999999992,92.210229031647,1.00000000073098,0.551523610013247
4699.99999999957,97.3048042573204,1.0000000006856,0.549841228404483
4799.99999999993,102.185224836595,1.00000000070122,0.548672675150575
4900.00000000029,106.839013476102,1.0000000006915,0.547163471875569
5000.00000000066,111.244703839187,1.00000000066232,0.545498210009407
5100.00000000102,115.382322397462,1.0000000006098,0.544205460079935
5200.00000000139,119.240078105595,1.00000000062174,0.544198585157003
5300.00000000175,122.824718050711,1.00000000062088,0.541454918387355
5400.00000000211,126.129834717959,1.00000000057934,0.539591504758167
5500.00000000248,129.151232528876,1.00000000058118,0.539496511939578
5600.00000000284,131.88135036497,1.00000000058823,0.537514543527738
5700.00000000321,134.326086086874,1.00000000054946,0.532650404510072
5800.00000000357,136.493766838728,1.00000000052084,0.533920042558702
5900.00000000393,138.396093843198,1.00000000050466,0.537548500888346
6000.0000000043,140.034140411855,1.00000000051145,0.530914901923248
6100.00000000466,141.399101052,1.00000000048305,0.522476565034012
6200.00000000502,142.506462955084,1.00000000049721,0.5302295873551
6300.00000000539,143.397347589045,1.00000000050464,0.541157917937487
6400.00000000575,144.086636872249,1.00000000047951,0.529586904881693
6500.00000000612,144.541156149985,1.00000000039505,0.508819112256619
6600.00000000648,144.755077887113,1.00000000040801,0.518216260361402
6700.00000000684,144.801292682319,1.00000000049322,0.54554921741999
6800.00000000721,144.740409729551,1.00000000051387,0.546471742821689
6900.00000000757,144.542459103727,1.00000000040022,0.510235701856902
7000.00000000793,144.139382670443,1.00000000032132,0.485579957068398
7100.0000000083,143.557514320799,1.00000000040474,0.517651238210625
7200.00000000866,142.906435576211,1.00000000057312,0.556567914645341
7300.00000000903,142.245836657914,1.00000000057502,0.555137742970433
7400.00000000939,141.528264838577,1.00000000042596,0.506801003734914
7500.00000000975,140.661985259892,1.00000000026142,0.457775885365042
7600.00000001012,139.643428930955,1.00000000034186,0.481701345497214
7700.00000001048,138.571578810557,1.00000000052389,0.542114865864715
7800.00000001084,137.534969584365,1.00000000065623,0.567189978903597
7900.00000001121,136.541289530291,1.00000000057432,0.547225676594801
8000.00000001157,135.517486666674,1.00000000038616,0.479610784652311
8100.00000001194,134.385227390849,1.0000000002262,0.419538391439806
8200.0000000123,133.149654688111,1.00000000029294,0.448932408916681
8300.00000001266,131.886617649811,1.0000000005209,0.524111786102979
8400.00000001303,130.668570116343,1.00000000066468,0.56224235451697
8500.00000001339,129.521388364612,1.00000000065427,0.56122021994297
8600.00000001376,128.415047072833,1.00000000052783,0.517940754950751
8700.00000001412,127.284678959244,1.00000000032611,0.435461081886421
8800.00000001448,126.083702434627,1.00000000020024,0.381449977593341
8900.00000001485,124.824952534556,1.00000000029522,0.417911824238316
9000.00000001521,123.55889575631,1.00000000050302,0.496384213675443
9100.00000001557,122.330218661011,1.00000000062359,0.542727193660945
9200.00000001594,121.160696984386,1.00000000069445,0.55474026713026
9300.0000000163,120.046411163998,1.00000000066377,0.542750310375796
9400.00000001667,118.957709097365,1.00000000050081,0.495210046356714
9500.00000001703,117.857831193571,1.00000000034009,0.420803185052806
9600.00000001739,116.728342627228,1.00000000023725,0.370635827822335
9700.00000001776,115.578530069199,1.000000000274,0.385569380244444
9800.00000001812,114.429142939869,1.00000000043327,0.449840142190826
9900.00000001848,113.298060927425,1.0000000005599,0.509011726120244
10000.0000000188,112.197786266592,1.00000000066842,0.533285743542276
10100.0000000192,111.135129850569,1.00000000065516,0.540615192074287
10200.0000000196,110.1078905781,1.00000000063447,0.536199053927942
10300.0000000199,109.103668951286,1.00000000050805,0.504811806498399
10400.0000000203,108.107228653595,1.00000000040908,0.453502858077697
10500.0000000207,107.111839666186,1.00000000032023,0.405997989350751
10600.000000021,106.122382819401,1.0000000002987,0.383495704748449
10700.0000000214,105.146622583629,1.00000000033377,0.40335542344662
10800.0000000218,104.187714131514,1.00000000041645,0.442828523601787
10900.0000000221,103.245365619911,1.00000000048106,0.486791088281528
11000.0000000225,102.31780381336,1.00000000055523,0.512061336559663
11100.0000000229,101.404576268758,1.00000000057085,0.51673243673379
11200.0000000232,100.506705889188,1.00000000062422,0.525400945218718
11300.0000000236,99.6258948738271,1.00000000062293,0.535887333552683
11400.0000000239,98.7618741102504,1.00000000054581,0.52263740698198
11500.0000000243,97.9126414254522,1.00000000041007,0.480792234426622
11600.0000000247,97.0794733256647,1.00000000032464,0.434291995305753
11700.000000025,96.267897536537,1.00000000031494,0.40732501721121
11800.0000000254,95.4827457526038,1.00000000036393,0.404401836679325
11900.0000000258,94.7245024015971,1.00000000039546,0.424025008126818
12000.0000000261,93.9889600519843,1.00000000043381,0.453372933417304
12100.0000000265,93.2696090580204,1.00000000047622,0.473896761956567
12200.0000000269,92.5620190520805,1.00000000047407,0.492456979390726
12300.0000000272,91.8656048878302,1.00000000041992,0.499131899673927
12400.0000000276,91.1804805369167,1.00000000045157,0.494934496631715
12500.0000000279,90.5014336616363,1.00000000053863,0.501795865013541
12600.0000000283,89.82169135652,1.00000000066257,0.521891883086198
12700.0000000287,89.1407226842164,1.00000000064394,0.537868138698418
12800.000000029,88.4636583352056,1.00000000059821,0.534481650086474
12900.0000000294,87.7978283111255,1.00000000046343,0.503434175162309
13000.0000000298,87.1531192898086,1.00000000033602,0.456818395621952
13100.0000000301,86.5405790596644,1.00000000027371,0.420445957879985
13200.0000000305,85.9655142438328,1.00000000033526,0.405684017619548
13300.0000000309,85.4233747753511,1.00000000041244,0.413408122588582
13400.0000000312,84.9043685599563,1.00000000047489,0.431678153386932
13500.0000000316,84.4005694506602,1.00000000050957,0.458638834947563
13600.0000000319,83.9053939395605,1.00000000052285,0.479599024749984
13700.0000000323,83.4149354766816,1.00000000051383,0.491512340579477
13800.0000000327,82.9298807214709,1.00000000048894,0.495994349165821
13900.000000033,82.4530713231265,1.00000000041019,0.496690104061496
14000.0000000334,81.9882983577635,1.00000000038929,0.496224688151777
14100.0000000338,81.5345912730901,1.00000000043481,0.493854222345643
14200.0000000341,81.0834528342929,1.0000000004773,0.495715923383684
14300.0000000345,80.6241080721204,1.00000000057195,0.505704998491962
14400.0000000349,80.1504317303289,1.00000000063181,0.520333885398285
14500.0000000352,79.6648104533416,1.0000000006221,0.535612026341961
14600.0000000356,79.1753964012556,1.00000000060572,0.536182347776001
14700.0000000359,78.6918124208377,1.00000000047738,0.517647139411731
14800.0000000363,78.2249314758899,1.00000000039228,0.485520485227969
14900.0000000367,77.7857338220684,1.00000000032368,0.45223785884517
15000.000000037,77.3837926939405,1.00000000032194,0.43263874249795
15100.0000000374,77.0221178054262,1.00000000033166,0.423051293033349
15200.0000000378,76.6963456195153,1.00000000036122,0.421532551654195
15300.0000000381,76.3960177858319,1.00000000043156,0.43510042797207
15400.0000000385,76.1084942701814,1.00000000047898,0.459422959941077
15500.0000000389,75.826352172834,1.0000000005181,0.473968951612155
15600.0000000392,75.5493154109295,1.00000000048195,0.480263706729209
15700.0000000396,75.2782564336376,1.00000000048422,0.485889582617625
15800.0000000399,75.0114860322719,1.00000000046962,0.493835388888319
15900.0000000403,74.743834956499,1.00000000049396,0.507183873247247
16000.0000000407,74.470170463005,1.00000000050084,0.521089270415616
16100.000000041,74.1898413687678,1.00000000048388,0.528184644992819
16200.0000000414,73.9066090290288,1.0000000004491,0.533485255928212
16300.0000000418,73.6254510830314,1.00000000041975,0.530355991898431
16400.0000000418,73.3475450743071,1.00000000042523,0.520445895010463
16500.0000000404,73.0713254118187,1.00000000043131,0.511237064475202
16600.0000000389,72.7929093867832,1.00000000051567,0.499944935141627
16700.0000000375,72.5080551081999,1.00000000053115,0.503999589271212
16800.000000036,72.2117059147635,1.00000000059468,0.518964172287273
16900.0000000346,71.9010983418378,1.00000000063436,0.536918969648897
17000.0000000331,71.5792528211219,1.00000000061446,0.546871551580627
17100.0000000317,71.2546014198014,1.00000000053694,0.5413809621099
17200.0000000302,70.9387246047485,1.00000000042071,0.518845991017254
17300.0000000287,70.6448360147005,1.0000000003595,0.490686951544858
17400.0000000273,70.3840105359517,1.00000000034007,0.463389833134116
17500.0000000258,70.1613304653121,1.00000000032917,0.447066351577087
17600.0000000244,69.9754688778855,1.00000000038239,0.441697209035945
17700.0000000229,69.8207804808757,1.0000000004145,0.444078327084448
17800.0000000215,69.6890261149751,1.00000000043329,0.449577437614578
17900.00000002,69.5712149084681,1.00000000045836,0.453744331150034
18000.0000000186,69.4602160843164,1.00000000048463,0.462500444231928
18100.0000000171,69.3495533546453,1.00000000046953,0.477339365205096
18200.0000000156,69.236714719835,1.00000000050562,0.492527429402712
18300.0000000142,69.125224457231,1.00000000048032,0.499123143228839
18400.0000000127,69.0222438037697,1.00000000043272,0.500045037431522
18500.0000000113,68.9342514398416,1.00000000039329,0.499187172172859
18600.0000000098,68.8599080361774,1.00000000040996,0.501281272160093
18700.0000000084,68.7900101306428,1.00000000045944,0.511940501930417
18800.0000000069,68.7117786130832,1.00000000054783,0.52394049016948
18900.0000000055,68.614088453595,1.00000000059287,0.533324185434427
19000.000000004,68.4917325918401,1.00000000059161,0.538617023462593
19100.0000000026,68.3447194544862,1.00000000057202,0.539128515269301
19200.0000000011,68.1787022869907,1.00000000051229,0.541026132264108
19299.9999999996,68.0020277640919,1.00000000047752,0.547643954700883
19399.9999999982,67.823516830764,1.00000000047337,0.547921260500531
19499.9999999967,67.6495296712758,1.00000000042714,0.536968502481879
19599.9999999953,67.4831009884207,1.00000000039111,0.526813934329959
19699.9999999938,67.3245152852892,1.00000000042303,0.525391155789745
19799.9999999924,67.16911036377,1.00000000045213,0.524489497894864
19899.9999999909,67.0110565388141,1.00000000049505,0.520603881311899
19999.9999999895,66.8458463404055,1.00000000051351,0.520750254499515
20099.999999988,66.6702952631998,1.00000000056817,0.526145364420158
20199.9999999865,66.4828501905924,1.00000000060028,0.535232604595197
20299.9999999851,66.2822266403791,1.00000000058959,0.544974176249488
20399.9999999836,66.071106447615,1.00000000058254,0.551920351530644
20499.9999999822,65.8562621708995,1.00000000053956,0.552199188199518
20599.9999999807,65.6474215046079,1.00000000048596,0.541483380899648
20699.9999999793,65.4544062871202,1.0000000003937,0.521207280227166
20799.9999999778,65.285841800463,1.00000000035365,0.496498557921304
20899.9999999764,65.1475008496922,1.00000000034609,0.479342327441006
20999.9999999749,65.0424049087944,1.00000000035627,0.466422298639714
21099.9999999734,64.9701439341837,1.00000000037055,0.459476984630802
21199.999999972,64.9270866058308,1.00000000038786,0.461551061617462
21299.9999999705,64.9083793436552,1.00000000043409,0.461226688339497
21399.9999999691,64.9063714127298,1.00000000044534,0.458030586757575
21499.9999999676,64.9122355138811,1.00000000046999,0.461429299252674
21599.9999999662,64.919637194224,1.00000000050952,0.467160562245648
21699.9999999647,64.928083160316,1.00000000048575,0.468974417691538
21799.9999999633,64.9420936315757,1.00000000045485,0.466691793144954
21899.9999999618,64.9648432629678,1.00000000042878,0.471099892286731
21999.9999999603,64.9956383862738,1.00000000043238,0.486183136549098
22099.9999999589,65.0292078427602,1.00000000045957,0.501347372493669
22199.9999999574,65.0592615422409,1.00000000047566,0.512063120319569
22299.999999956,65.0804507024436,1.00000000052239,0.521633066439805
22399.9999999545,65.0913032338734,1.00000000052187,0.533335783451825
22499.9999999531,65.0943598051842,1.00000000048183,0.540464890922259
22599.9999999516,65.0932570225672,1.00000000048902,0.541452966990431
22699.9999999502,65.0908019065823,1.00000000045609,0.541300409741158
22799.9999999487,65.08719221945,1.00000000045058,0.541452752426643
22899.9999999473,65.0814900329547,1.00000000046974,0.546826530726927
22999.9999999458,65.0720628639478,1.00000000048179,0.552401820633526
23099.9999999443,65.0561774337073,1.00000000048462,0.552662020498652
23199.9999999429,65.0302691753804,1.00000000048,0.549995166220277
23299.9999999414,64.9926189114459,1.00000000049239,0.547348739870753
23399.99999994,64.9416342302091,1.00000000051719,0.54524943023157
23499.9999999385,64.8761997606683,1.00000000052296,0.543462626936565
23599.9999999371,64.7964998618547,1.00000000052043,0.534929206720082
23699.9999999356,64.704305839766,1.00000000050372,0.52819158377345
23799.9999999342,64.6021262864067,1.00000000050518,0.533144048302808
23899.9999999327,64.4928483471374,1.00000000049778,0.542654769015546
23999.9999999312,64.3779779996271,1.00000000048446,0.548743826594618
24099.9999999298,64.2587408519195,1.00000000047684,0.553536867209762
24199.9999999283,64.1382940361315,1.00000000046553,0.552889218382801
24299.9999999269,64.0200754643437,1.00000000043228,0.547602648071676
24399.9999999254,63.9067773817164,1.00000000039674,0.54484088818847
24499.999999924,63.7984738335907,1.00000000039191,0.547012331480587
24599.9999999225,63.6931278926186,1.00000000042581,0.547726389296056
24699.9999999211,63.5886732416251,1.00000000045415,0.544491126793132
24799.9999999196,63.4827177334032,1.00000000044766,0.544272507524251
24899.9999999181,63.3734797943469,1.00000000048366,0.545356307308124
24999.9999999167,63.2594653457322,1.00000000050874,0.543409441025653
25099.9999999152,63.1390334995034,1.00000000055955,0.53930875599868
25199.9999999138,63.0113017950893,1.00000000055941,0.534112223845279
25299.9999999123,62.8755591571602,1.00000000056991,0.534537537456852
25399.9999999109,62.731184705844,1.00000000059674,0.540342520363845
25499.9999999094,62.5793040691638,1.00000000057528,0.545662375509947
25599.999999908,62.4236856773153,1.00000000053252,0.549086618683571
25699.9999999065,62.2702186595134,1.00000000048281,0.546986366416711
25799.9999999051,62.1254973809687,1.00000000045073,0.53869654165196
25899.9999999036,61.9960086384449,1.00000000038741,0.525217425913109
25999.9999999021,61.8874732531295,1.00000000037343,0.510425953373816
26099.9999999007,61.8039750179684,1.00000000034175,0.501281837254226
26199.9999998992,61.7482712231207,1.0000000003583,0.490969372877458
26299.9999998978,61.7203130449002,1.00000000035019,0.482050703611991
26399.9999998963,61.718476137027,1.00000000039974,0.476802071089114
26499.9999998949,61.7403995890097,1.00000000039491,0.472354620386593
26599.9999998934,61.7829827297468,1.00000000042201,0.47015792729258
26699.999999892,61.8403235226246,1.00000000044412,0.471081644274813
26799.9999998905,61.9052896879875,1.000000000462,0.47560937334035
26899.999999889,61.9747859124712,1.00000000050812,0.481824850619293
26999.9999998876,62.048608765104,1.00000000046416,0.482619741834443
27099.9999998861,62.1285296474738,1.0000000004556,0.478089608171175
27199.9999998847,62.215180367069,1.00000000046441,0.476386732364955
27299.9999998832,62.3058917092517,1.0000000004694,0.481971798313813
27399.9999998818,62.398316672256,1.00000000047708,0.491173596443102
27499.9999998803,62.4927087822942,1.00000000045152,0.499808973047274
27599.9999998789,62.5891335865061,1.00000000044971,0.50618433708528
27699.9999998774,62.6867745216504,1.00000000048162,0.516361405737861
27799.9999998759,62.7829615589145,1.00000000048849,0.525312037920481
27899.9999998745,62.8756199342202,1.00000000050842,0.533563672026551
27999.999999873,62.9628733003652,1.0000000004744,0.541893702733297
28099.9999998716,63.0436036358296,1.00000000047794,0.550643330887687
28199.9999998701,63.1179110518047,1.00000000050103,0.5582873644769
28299.9999998687,63.1858119989859,1.00000000051236,0.564792198683491
28399.9999998672,63.2466571876292,1.00000000046597,0.566743612413095
28499.9999998658,63.2990140524563,1.00000000047608,0.564424889416274
28599.9999998643,63.3421931754791,1.00000000048823,0.564785663092151
28699.9999998629,63.3753562376316,1.00000000052961,0.568158384898409
28799.9999998614,63.3980680807039,1.00000000051739,0.571346051825668
28899.9999998599,63.4114028109989,1.00000000048405,0.573218434327391
28999.9999998585,63.4177034640279,1.00000000046637,0.578166117468648
