Time,AGPnorm,Energy,Entropy
0,0,1,-7.44110213600447e-17
99.9999999999986,0.00175883117849878,0.999999999999719,0.00542978436648428
199.999999999993,0.0118031196780892,0.999999999996489,0.0156221706043111
300,0.0238233964206004,0.999999999996105,0.0283661741091203
400.000000000022,0.0350231014316156,0.999999999999166,0.0446772241710904
500.000000000045,0.0486208267436397,0.999999999999748,0.0649384286963616
600.000000000068,0.0666972529175134,0.999999999997608,0.0884804691495808
700.000000000091,0.0840622524508211,0.99999999999627,0.115357232780353
800.000000000113,0.100927527724061,0.99999999999917,0.147386181253613
900.000000000136,0.118051927768902,1.00000000001333,0.188703081429252
1000.00000000016,0.132879108946178,1.00000000010283,0.241102968348835
1100.0000000001,0.159024780094592,1.00000000034254,0.299623837374163
1200,0.227545110616646,1.00000000073842,0.354648281989611
1299.99999999991,0.363357501959864,1.00000000119985,0.403291712273136
1399.99999999982,0.660448481530474,1.00000000147506,0.445237996124488
1499.99999999973,1.27391049669062,1.00000000182409,0.478963667840287
1599.99999999964,2.27089283133914,1.00000000197728,0.506623760000007
1699.99999999955,3.64312521275877,1.00000000226686,0.529494151802336
1799.99999999946,5.43063430421503,1.00000000217771,0.548257424401084
1899.99999999937,7.65834010437169,1.00000000238392,0.561601173909578
1999.99999999928,10.248630648114,1.00000000234667,0.572113517440811
2099.99999999919,13.0925178998705,1.0000000024722,0.580016092802424
2199.99999999909,16.1293996664279,1.00000000232093,0.585921593521525
2299.999999999,19.3069665728021,1.00000000227206,0.588779697969475
2399.99999999891,22.5254146371225,1.00000000215975,0.590378618165829
2499.99999999882,25.6875631023347,1.00000000200424,0.591852898869583
2599.99999999873,28.7393534269573,1.0000000020786,0.591771036839461
2699.99999999864,31.6440890419032,1.00000000204057,0.590033673442675
2799.99999999855,34.3576260243865,1.00000000194394,0.58836879652927
2899.99999999846,36.8312438956469,1.0000000018377,0.587130605639205
2999.99999999837,39.0417774081864,1.00000000172482,0.585008247909594
3099.99999999828,40.9876892048388,1.00000000167556,0.581134347106817
3199.99999999819,42.6676950371958,1.00000000163524,0.579005615812056
3299.99999999809,44.0735254803695,1.0000000016402,0.577267546547447
3399.999999998,45.2080476514699,1.00000000149559,0.575163091977904
3499.99999999791,46.0848583018878,1.00000000141102,0.576395202325093
3599.99999999782,46.7201188578222,1.00000000138817,0.572376297360026
3699.99999999773,47.1324604605639,1.00000000135793,0.573602032009372
3799.99999999764,47.3455016390086,1.00000000126588,0.564545105845263
3899.99999999755,47.3689368610202,1.00000000140747,0.5804709594261
3999.99999999746,47.2464365316584,1.00000000111027,0.550807929300469
4099.99999999738,46.9863158731887,1.00000000153127,0.582263419734045
4199.99999999775,46.6379374742061,1.00000000113587,0.546344087203355
4299.99999999811,46.1757567901121,1.00000000142253,0.569255616578386
4399.99999999848,45.6810267763756,1.00000000135173,0.556235260356012
4499.99999999884,45.1029667774025,1.00000000112319,0.528319718084391
4599.9999999992,44.5001061023386,1.00000000175321,0.584694732963742
4699.99999999957,43.8898306258969,1.00000000125201,0.52833581440013
4799.99999999993,43.2235637303876,1.00000000128211,0.530814036710587
4900.00000000029,42.5716913469347,1.00000000167672,0.574215612570141
5000.00000000066,41.9221465873149,1.00000000127821,0.511391394495133
5100.00000000102,41.240451804061,1.0000000012288,0.510760121759203
5200.00000000139,40.5751839619445,1.00000000178185,0.570634390184152
5300.00000000175,39.9327614612528,1.00000000140207,0.507043653104487
5400.00000000211,39.2772295863862,1.00000000117413,0.497873607672427
5500.00000000248,38.6227209417048,1.00000000153715,0.53149643266312
5600.00000000284,37.9958643061776,1.00000000173943,0.543707079926426
5700.00000000321,37.3842736506574,1.00000000115354,0.490720812039391
5800.00000000357,36.7749214484744,1.00000000120121,0.504583004784528
5900.00000000393,36.1737523987144,1.00000000149022,0.519091575361566
6000.0000000043,35.5928998884379,1.00000000154513,0.534430738877871
6100.00000000466,35.0298847945303,1.00000000126366,0.50022455359953
6200.00000000502,34.4811592054907,1.00000000122499,0.506221432309253
6300.00000000539,33.945177567737,1.00000000131855,0.5214974431692
6400.00000000575,33.4237539222435,1.00000000138668,0.51588735718087
6500.00000000612,32.9189175733085,1.00000000150194,0.522057341911384
6600.00000000648,32.4286247468185,1.00000000140828,0.514653835323654
6700.00000000684,31.9575188821035,1.00000000121795,0.503285310853403
6800.00000000721,31.5024125144655,1.00000000148819,0.531344873439748
6900.00000000757,31.0614304776729,1.00000000129043,0.523147103291933
7000.00000000793,30.6392125911518,1.00000000127859,0.505446706837646
7100.0000000083,30.2293893736389,1.00000000153998,0.522576096486556
7200.00000000866,29.830290246377,1.00000000135472,0.512652036475785
7300.00000000903,29.4505391006586,1.0000000012509,0.504916891306523
7400.00000000939,29.0875999723864,1.00000000144263,0.528512190638233
7500.00000000975,28.7313717084469,1.00000000154763,0.53462428472379
7600.00000001012,28.3928537921706,1.00000000117354,0.507034608995001
7700.00000001048,28.0729378973895,1.00000000142496,0.508141024082072
7800.00000001084,27.7613235041791,1.00000000156579,0.527872992047245
7900.00000001121,27.4558087781864,1.00000000145305,0.510272110152843
8000.00000001157,27.1653004330478,1.00000000134455,0.512083723196478
8100.00000001194,26.8903476565046,1.00000000131021,0.528217621478899
8200.0000000123,26.6226589939718,1.00000000156735,0.530478771167532
8300.00000001266,26.3591283286957,1.00000000149281,0.526412951471541
8400.00000001303,26.1098045629836,1.00000000126348,0.522183123154374
8500.00000001339,25.8751473031273,1.00000000132566,0.511812402460117
8600.00000001376,25.650198847429,1.00000000150612,0.530117722454217
8700.00000001412,25.4314412703853,1.00000000151058,0.530811637703612
8800.00000001448,25.2193670703349,1.00000000131051,0.520686144144694
8900.00000001485,25.021837204159,1.00000000129737,0.520998493664938
9000.00000001521,24.8323428074045,1.00000000147119,0.541727449878124
9100.00000001557,24.649052550228,1.00000000140225,0.537801973472671
9200.00000001594,24.4757258054889,1.00000000141378,0.526099184306001
9300.0000000163,24.3065795980407,1.00000000149209,0.52657118379913
9400.00000001667,24.1388507736792,1.00000000146628,0.552206178654688
9500.00000001703,23.97770775155,1.00000000135813,0.542673721480744
9600.00000001739,23.8279696417317,1.00000000140196,0.530881210236509
9700.00000001776,23.6861058928363,1.00000000143226,0.542497785426177
9800.00000001812,23.5495257222014,1.0000000014486,0.539302542875927
9900.00000001848,23.4183915368086,1.00000000143113,0.534839101496558
10000.0000000188,23.2979906656299,1.00000000132819,0.538510081909622
10100.0000000192,23.1855793888015,1.00000000150453,0.54314027496964
10200.0000000196,23.0702416551295,1.00000000152407,0.552568036737645
10300.0000000199,22.9586045159603,1.00000000135416,0.537318241158933
10400.0000000203,22.8638835932823,1.00000000125515,0.527411478769001
10500.0000000207,22.7747222176627,1.00000000145253,0.545023445126554
10600.000000021,22.6797444395933,1.00000000157022,0.548549014496768
10700.0000000214,22.5778694273138,1.00000000160811,0.565815666163383
10800.0000000218,22.4755376760725,1.00000000148541,0.565746572283505
10900.0000000221,22.3791537036877,1.00000000140131,0.554395244066081
11000.0000000225,22.289025412101,1.00000000146568,0.561304835285141
11100.0000000229,22.2053950001932,1.00000000150929,0.556256234536835
11200.0000000232,22.1286633243969,1.00000000147255,0.549209527515985
11300.0000000236,22.0594870242709,1.0000000014412,0.539375569007511
11400.0000000239,21.9966797436096,1.00000000141886,0.547930318865449
11500.0000000243,21.9386289734375,1.00000000152306,0.562191967014982
11600.0000000247,21.8831797859647,1.0000000014391,0.557996660454681
11700.000000025,21.827858620596,1.00000000142274,0.5509148355299
11800.0000000254,21.7745824616771,1.00000000142263,0.557392162697444
11900.0000000258,21.728274461086,1.00000000138159,0.547874749924641
12000.0000000261,21.6905805120148,1.00000000135122,0.545343212872527
12100.0000000265,21.6574685049338,1.00000000149432,0.563636674498293
12200.0000000269,21.6196805417548,1.00000000141539,0.566862630884875
12300.0000000272,21.5779910041807,1.0000000014378,0.56508531257749
12400.0000000276,21.5303330177822,1.00000000152059,0.571474159672157
12500.0000000279,21.4772050085831,1.000000001609,0.578530295364353
12600.0000000283,21.4195370241918,1.00000000161454,0.588321793473167
12700.0000000287,21.3602078033876,1.00000000145094,0.582445557055404
12800.000000029,21.305225227873,1.00000000149245,0.578239301581084
12900.0000000294,21.2580069935057,1.0000000014854,0.575527976875391
13000.0000000298,21.2180001168359,1.00000000139171,0.561528577062217
13100.0000000301,21.1841223251864,1.0000000015217,0.554628772981658
13200.0000000305,21.1586155746634,1.00000000149593,0.550914013269487
13300.0000000309,21.1374408798439,1.00000000146284,0.559793785604797
13400.0000000312,21.1202229794051,1.00000000150813,0.572095594894038
13500.0000000316,21.1031118352746,1.00000000150505,0.572465896481329
13600.0000000319,21.0850248236577,1.00000000149745,0.571882500436162
13700.0000000323,21.0689778134321,1.00000000153616,0.565567686473237
13800.0000000327,21.0589528325034,1.00000000134961,0.55373728303395
13900.000000033,21.0530473516692,1.00000000154742,0.559212283546037
14000.0000000334,21.0477835088129,1.00000000151485,0.568631409282375
14100.0000000338,21.046874612632,1.00000000142536,0.572530945241302
14200.0000000341,21.0500461419039,1.00000000148292,0.577092137349301
14300.0000000345,21.0523798738781,1.00000000156979,0.587560863394873
14400.0000000349,21.0470537856584,1.00000000169843,0.599080136221305
14500.0000000352,21.0345752453237,1.00000000169062,0.597982758556993
14600.0000000356,21.0177215329113,1.00000000151873,0.596345347371178
14700.0000000359,21.0013448489359,1.00000000139466,0.590891125983094
14800.0000000363,20.9839308295741,1.00000000154824,0.594521569975799
14900.0000000367,20.9613453767694,1.00000000157285,0.588570172719057
15000.000000037,20.9316375265961,1.00000000169108,0.590042161825839
15100.0000000374,20.8946349453784,1.00000000154204,0.588999494967045
15200.0000000378,20.8536798917876,1.00000000158103,0.598143325136503
15300.0000000381,20.8135039884836,1.00000000154983,0.590011859798522
15400.0000000385,20.7780386796563,1.00000000148682,0.581333646507404
15500.0000000389,20.7499992556722,1.00000000157247,0.579785202406552
15600.0000000392,20.7304497121249,1.00000000161978,0.577536353680964
15700.0000000396,20.7174773055575,1.00000000154755,0.56954303211655
15800.0000000399,20.7127318684457,1.00000000152733,0.573092987252079
15900.0000000403,20.7133626206988,1.00000000149189,0.571361186104376
16000.0000000407,20.7173280650266,1.00000000158816,0.58379252125344
16100.000000041,20.7232613311696,1.0000000015748,0.586381957890036
16200.0000000414,20.7295477618353,1.000000001667,0.588867458962981
16300.0000000418,20.7339536527366,1.00000000154012,0.581637217022208
16400.0000000418,20.7420879517819,1.00000000145065,0.574635998740658
16500.0000000404,20.7556326101028,1.00000000155484,0.569781886241934
16600.0000000389,20.7712849028194,1.0000000015613,0.578199368632216
16700.0000000375,20.7892296863468,1.00000000157568,0.585704576411393
16800.000000036,20.8098115134619,1.00000000148317,0.581457734804286
16900.0000000346,20.832429587141,1.00000000156357,0.589591225392795
17000.0000000331,20.8531664229499,1.00000000161227,0.589549566322242
17100.0000000317,20.8716930200382,1.00000000164832,0.587878391461769
17200.0000000302,20.8895759293504,1.00000000163725,0.581135570120175
17300.0000000287,20.9102543573773,1.00000000157264,0.592678388638186
17400.0000000273,20.9301692800736,1.00000000164438,0.608635271930248
17500.0000000258,20.9468629086599,1.00000000169994,0.611445124433878
17600.0000000244,20.9575383872031,1.00000000160096,0.623160255098152
17700.0000000229,20.9666365441948,1.00000000158849,0.629503530022671
17800.0000000215,20.9723566574977,1.00000000165575,0.628811549241368
17900.00000002,20.9749821998631,1.00000000160737,0.626799070312541
18000.0000000186,20.9746866823529,1.00000000170507,0.634199511917182
18100.0000000171,20.9710942029065,1.00000000165952,0.636311119908266
18200.0000000156,20.9637005537901,1.00000000162632,0.641756637697106
18300.0000000142,20.9526966687241,1.00000000161034,0.64109052327361
18400.0000000127,20.9387351444322,1.00000000161639,0.639891269500952
18500.0000000113,20.9197840800783,1.00000000170217,0.6438637325185
18600.0000000098,20.8942841564483,1.00000000181125,0.647588073964855
18700.0000000084,20.8639626510509,1.00000000169064,0.642145235095051
18800.0000000069,20.828819811263,1.00000000166731,0.642107581434854
18900.0000000055,20.7917497087452,1.0000000015677,0.638154345469781
19000.000000004,20.7559673905508,1.00000000157848,0.635673694529073
19100.0000000026,20.7228054332664,1.0000000014733,0.631233724558373
19200.0000000011,20.6940518217116,1.00000000158212,0.631805693928641
19299.9999999996,20.6715716104765,1.00000000170346,0.634763881473445
19399.9999999982,20.654344271951,1.00000000159884,0.626523089201769
19499.9999999967,20.6435675636556,1.00000000157807,0.623134521067918
19599.9999999953,20.6369633444971,1.00000000159824,0.624657163240884
19699.9999999938,20.637536098059,1.00000000156681,0.616017836242
19799.9999999924,20.6444696799328,1.00000000158754,0.603147043656803
19899.9999999909,20.6558374091434,1.00000000172835,0.602533023867669
19999.9999999895,20.6705135507029,1.00000000152084,0.603885697907827
20099.999999988,20.6877645631096,1.00000000167597,0.610712579044719
20199.9999999865,20.7030648393419,1.00000000172119,0.622458202590269
20299.9999999851,20.7204049693738,1.00000000162809,0.615526640784562
20399.9999999836,20.7399972205204,1.00000000173834,0.612928785658547
20499.9999999822,20.7595695255764,1.00000000174378,0.612916621128787
20599.9999999807,20.7811039847451,1.00000000164832,0.60499441739686
20699.9999999793,20.8055111438997,1.00000000167672,0.595853371768222
20799.9999999778,20.835427494771,1.00000000161285,0.602447776832555
20899.9999999764,20.8682226415607,1.00000000168147,0.606180632617998
20999.9999999749,20.9014397431755,1.00000000178357,0.613941139269515
21099.9999999734,20.9330817918169,1.0000000017585,0.613812383802576
21199.999999972,20.9647750152173,1.00000000171975,0.6147576042532
21299.9999999705,20.9988654069774,1.00000000164381,0.618460972296903
21399.9999999691,21.0343002869698,1.00000000175936,0.620895403620879
21499.9999999676,21.0692060916547,1.00000000169771,0.62012040641244
21599.9999999662,21.0997665885649,1.00000000182796,0.628143457794678
21699.9999999647,21.1244021353777,1.00000000178518,0.635646128120057
21799.9999999633,21.1445520206376,1.0000000016341,0.642634884646585
21899.9999999618,21.162324177396,1.00000000180297,0.649576165923489
21999.9999999603,21.1793266796164,1.00000000175802,0.648682330319451
22099.9999999589,21.1983363374684,1.00000000165745,0.638486911626697
22199.9999999574,21.2177012211559,1.00000000175608,0.644792000206572
22299.999999956,21.2385747820103,1.0000000016986,0.642334891639151
22399.9999999545,21.2598824299252,1.0000000018151,0.654205111599097
22499.9999999531,21.2791837540423,1.00000000177499,0.651215778709598
22599.9999999516,21.2961919280918,1.00000000177471,0.656524930781449
22699.9999999502,21.3069366949555,1.00000000197365,0.652781666511207
22799.9999999487,21.3110779165906,1.00000000173651,0.655443872133024
22899.9999999473,21.3126473463564,1.00000000181795,0.658588523659887
22999.9999999458,21.3104807887955,1.00000000186275,0.652847045757195
23099.9999999443,21.3102212545304,1.00000000165281,0.639584278094143
23199.9999999429,21.3125367916685,1.00000000185363,0.642753108143824
23299.9999999414,21.3133791534178,1.00000000181982,0.651938340551846
23399.99999994,21.3125380079219,1.00000000174091,0.643813296757934
23499.9999999385,21.3118507568812,1.00000000185299,0.641556100337427
23599.9999999371,21.3099797087346,1.00000000180504,0.648612605445236
23699.9999999356,21.3068920135185,1.00000000185404,0.659554462054208
23799.9999999342,21.3004031252204,1.0000000019435,0.670340537659897
23899.9999999327,21.2907622736394,1.00000000174423,0.662233882591892
23999.9999999312,21.2804686500303,1.00000000184963,0.667266752114838
24099.9999999298,21.2671660841111,1.00000000180738,0.670027734575178
24199.9999999283,21.253745362969,1.00000000170883,0.658941750226874
24299.9999999269,21.2387825627824,1.00000000182874,0.660380595431183
24399.9999999254,21.2196046429933,1.00000000181938,0.655451481061111
24499.999999924,21.1987220099456,1.0000000017194,0.648610550440679
24599.9999999225,21.1780732226808,1.00000000175434,0.655996060002807
24699.9999999211,21.1561151600783,1.00000000192127,0.666780578726875
24799.9999999196,21.1308796757699,1.00000000188926,0.661486751968442
24899.9999999181,21.1031512886354,1.00000000191892,0.658762043465048
24999.9999999167,21.0725962827637,1.00000000184032,0.66289677181524
25099.9999999152,21.0393841915706,1.00000000187635,0.660903734504944
25199.9999999138,21.0049998819227,1.00000000190889,0.668661059077839
25299.9999999123,20.9708539213653,1.00000000174999,0.663635224670204
25399.9999999109,20.9391389641268,1.00000000173629,0.656567444058497
25499.9999999094,20.9108782331471,1.00000000178616,0.655769071355489
25599.999999908,20.8848314176527,1.00000000173437,0.646631782820914
25699.9999999065,20.8621020488846,1.00000000182311,0.642972635602627
25799.9999999051,20.8440944050492,1.00000000185822,0.643639842660557
25899.9999999036,20.8304137508284,1.00000000175021,0.646733052244089
25999.9999999021,20.8233039687632,1.00000000174321,0.649419556808724
26099.9999999007,20.8199867494989,1.00000000178574,0.655307282093617
26199.9999998992,20.8215611748755,1.00000000179443,0.649775278713085
26299.9999998978,20.8296174049142,1.00000000180087,0.642767408954051
26399.9999998963,20.8415568959396,1.00000000192609,0.640376765574678
26499.9999998949,20.8576595543836,1.00000000171603,0.623757584833611
26599.9999998934,20.8816359426575,1.00000000179812,0.620918851256839
26699.999999892,20.905026864505,1.00000000185953,0.617840654302348
26799.9999998905,20.9302340939312,1.0000000017878,0.615700857175435
26899.999999889,20.9587813286311,1.00000000191199,0.622129376646644
26999.9999998876,20.9840705661914,1.00000000191926,0.618033481143154
27099.9999998861,21.012935795951,1.00000000176557,0.603094068901064
27199.9999998847,21.0448618247994,1.00000000190225,0.614598258130436
27299.9999998832,21.0745274456179,1.00000000195703,0.60992085509799
27399.9999998818,21.1080905809995,1.00000000180699,0.60547823970497
27499.9999998803,21.1471731853635,1.0000000017597,0.611789961199588
27599.9999998789,21.1878408159291,1.00000000192279,0.607725439170108
27699.9999998774,21.2305091497768,1.00000000180331,0.60473351137516
27799.9999998759,21.2768404912149,1.00000000189156,0.607745784136189
27899.9999998745,21.325001518394,1.00000000193986,0.609939638773578
27999.999999873,21.3735727940752,1.00000000195682,0.610720403288651
28099.9999998716,21.4224712752799,1.00000000189499,0.610986541480507
28199.9999998701,21.4751188855304,1.00000000188959,0.622585778242691
28299.9999998687,21.5284714129375,1.00000000190899,0.624838954747077
28399.9999998672,21.5813955711181,1.00000000192174,0.625563010422699
28499.9999998658,21.6321021575835,1.00000000200238,0.628427781978555
28599.9999998643,21.683475195366,1.00000000185323,0.624025259770905
28699.9999998629,21.7340402360018,1.00000000201058,0.632535556237285
28799.9999998614,21.7803759500689,1.00000000212899,0.643084397910594
28899.9999998599,21.8245397084335,1.00000000198766,0.639051331753735
28999.9999998585,21.866862182634,1.00000000214178,0.650160668481122
