Time,AGPnorm,Energy,Entropy
0,0,1,-7.32440588479406e-17
99.9999999999986,0.000282919779672802,1.00000000000077,0.00113961448924523
199.999999999993,0.00188573486499719,1.00000000000001,0.00346632410960047
300,0.00397524340690428,0.999999999999063,0.00647468991236436
400.000000000022,0.006189783955483,0.999999999999524,0.010213749089167
500.000000000045,0.00879655541365331,1.0000000000005,0.0148295108165063
600.000000000068,0.0122670887784391,1.00000000000043,0.0201832260238578
700.000000000091,0.0163028257186933,0.999999999999405,0.025972334356516
800.000000000113,0.0207254912633433,0.999999999999257,0.0321631572001358
900.000000000136,0.0253732744501344,1.00000000000012,0.0389681097206305
1000.00000000016,0.0305547723305607,1.00000000000051,0.0464006108878237
1100.0000000001,0.0363722080187101,0.999999999999871,0.054336017730574
1200,0.0422334867309201,0.999999999999257,0.0626489173323737
1299.99999999991,0.0485147930347609,0.999999999999773,0.0715177638853437
1399.99999999982,0.0549927688604151,1.00000000000034,0.0810548411686085
1499.99999999973,0.0617901934026488,1.00000000000021,0.0912535153601695
1599.99999999964,0.0687907472304643,0.99999999999952,0.102047520048648
1699.99999999955,0.0759273731292975,0.999999999999547,0.113509864745245
1799.99999999946,0.0830606675825209,1.00000000000033,0.125920562932372
1899.99999999937,0.0901920218579824,1.00000000000058,0.139381640562732
1999.99999999928,0.0977435048668956,1.00000000000054,0.154002538166131
2099.99999999919,0.10543805785634,1.00000000000135,0.169873529518513
2199.99999999909,0.113199373846152,1.00000000000401,0.18731337133279
2299.999999999,0.120316936987965,1.00000000000913,0.206553396170889
2399.99999999891,0.128957127686892,1.00000000001744,0.227393490183233
2499.99999999882,0.143512051575024,1.00000000002924,0.249429457162375
2599.99999999873,0.16529388927676,1.00000000004564,0.272162779355038
2699.99999999864,0.196016074853311,1.00000000006845,0.295138371746247
2799.99999999855,0.250811362357099,1.00000000010025,0.317593001901064
2899.99999999846,0.359579569570111,1.00000000012428,0.339116675622349
2999.99999999837,0.544341877192955,1.00000000015134,0.359242344864782
3099.99999999828,0.821953844483181,1.00000000018071,0.377962078194153
3199.99999999819,1.23049422737855,1.00000000021824,0.395308872537969
3299.99999999809,1.83085872576952,1.00000000025016,0.411047944823319
3399.999999998,2.67142769589829,1.00000000027947,0.425332139542989
3499.99999999791,3.77592764776589,1.0000000002984,0.438373819398967
3599.99999999782,5.18003702523242,1.00000000031566,0.450333367354468
3699.99999999773,6.94031270863341,1.00000000033675,0.46094600439391
3799.99999999764,9.1035078309068,1.00000000034002,0.470511754534333
3899.99999999755,11.6826971756175,1.00000000038021,0.479024745388861
3999.99999999746,14.683023434944,1.0000000003888,0.48694523043592
4099.99999999738,18.1312548846856,1.00000000039267,0.493750034760769
4199.99999999775,22.0489330912668,1.00000000043785,0.49953578407064
4299.99999999811,26.4289883996565,1.00000000041723,0.505180737742351
4399.99999999848,31.248150507106,1.00000000042006,0.509977303824522
4499.99999999884,36.4983890293013,1.00000000044864,0.513727734194126
4599.9999999992,42.1732923577521,1.00000000042874,0.517396485890752
4699.99999999957,48.245162513373,1.00000000039889,0.520576868325961
4799.99999999993,54.6801982935488,1.00000000043472,0.522754145012587
4900.00000000029,61.4456407528059,1.0000000004399,0.524996302407523
5000.00000000066,68.5155736175056,1.00000000040185,0.526802599504045
5100.00000000102,75.8529046816855,1.00000000040962,0.528079979541317
5200.00000000139,83.419616176522,1.0000000004408,0.528970537773232
5300.00000000175,91.1761356143131,1.00000000042649,0.529980901241026
5400.00000000211,99.0879472268935,1.00000000040233,0.53048069100124
5500.00000000248,107.118075683439,1.00000000039333,0.530466935823666
5600.00000000284,115.228175818626,1.00000000042214,0.530995310750369
5700.00000000321,123.38324182929,1.00000000040508,0.530927554257869
5800.00000000357,131.549725566938,1.00000000039679,0.530074829491361
5900.00000000393,139.69521558691,1.00000000038165,0.529673562922636
6000.0000000043,147.783984793516,1.00000000039277,0.529657813328978
6100.00000000466,155.789078019,1.00000000038839,0.528153816263125
6200.00000000502,163.685470515539,1.00000000037524,0.526790812443651
6300.00000000539,171.444838665684,1.00000000036223,0.526273273812573
6400.00000000575,179.040671947748,1.00000000035891,0.526032914556802
6500.00000000612,186.452688398746,1.00000000036686,0.524361944730105
6600.00000000648,193.663739079649,1.00000000037899,0.522312264170484
6700.00000000684,200.657900086406,1.00000000034962,0.521346829629644
6800.00000000721,207.417608761724,1.00000000032062,0.520812027071727
6900.00000000757,213.926867714645,1.00000000033552,0.519653931908962
7000.00000000793,220.174604649089,1.00000000032093,0.517808372950908
7100.0000000083,226.155215618027,1.00000000032097,0.516365683400977
7200.00000000866,231.86140981851,1.00000000033048,0.515259575096224
7300.00000000903,237.282017653812,1.0000000003233,0.514340766303571
7400.00000000939,242.412688387231,1.00000000030573,0.512847008321826
7500.00000000975,247.253173072859,1.00000000030874,0.510513115680865
7600.00000001012,251.800610471608,1.00000000029953,0.509379143376721
7700.00000001048,256.05736291562,1.00000000028975,0.510024365428988
7800.00000001084,260.023755520412,1.00000000028813,0.510398163280113
7900.00000001121,263.699772966519,1.0000000002637,0.508503744051702
8000.00000001157,267.087970734378,1.00000000025784,0.50388835116805
8100.00000001194,270.182845508696,1.00000000026816,0.499359353466922
8200.0000000123,272.987031902263,1.00000000026897,0.499940588058437
8300.00000001266,275.514366902893,1.00000000028053,0.505791504822424
8400.00000001303,277.784541877912,1.00000000025673,0.510786920075222
8500.00000001339,279.811306471309,1.00000000026403,0.509227321392614
8600.00000001376,281.588815042663,1.00000000024402,0.499753927454856
8700.00000001412,283.09871752737,1.00000000021378,0.487490041347921
8800.00000001448,284.332942581592,1.0000000002169,0.483221214607539
8900.00000001485,285.309678848408,1.00000000022489,0.492909544349369
9000.00000001521,286.071620681442,1.00000000026125,0.50913297944665
9100.00000001557,286.665216769217,1.00000000027372,0.520718575133823
9200.00000001594,287.111579106497,1.00000000026015,0.518738697723172
9300.0000000163,287.396354458966,1.00000000024012,0.500889542091561
9400.00000001667,287.480253789886,1.00000000020384,0.475085679405014
9500.00000001703,287.323608885464,1.00000000016449,0.458101847644373
9600.00000001739,286.931937442792,1.00000000017768,0.46721153693975
9700.00000001776,286.361909021731,1.00000000021367,0.495297025619864
9800.00000001812,285.689307500683,1.00000000025911,0.521837196572377
9900.00000001848,284.976039034487,1.00000000029212,0.535551155602012
10000.0000000188,284.239486662326,1.00000000028092,0.531273652702014
10100.0000000192,283.446608484169,1.00000000024481,0.505435573051434
10200.0000000196,282.535405645595,1.00000000019685,0.463865325121569
10300.0000000199,281.445835576092,1.00000000013343,0.42712153944816
10400.0000000203,280.162841912889,1.00000000011457,0.422706340995998
10500.0000000207,278.729913317752,1.00000000016826,0.456406346092002
10600.000000021,277.22353016482,1.00000000024635,0.499176805420967
10700.0000000214,275.717862664332,1.00000000029833,0.529602313548806
10800.0000000218,274.260190965184,1.00000000032902,0.544107719889958
10900.0000000221,272.861070876352,1.00000000034668,0.541878821241899
11000.0000000225,271.491925588179,1.0000000003049,0.517779963339683
11100.0000000229,270.095780204402,1.00000000022425,0.47105591824843
11200.0000000232,268.606277523881,1.00000000015432,0.41307443089756
11300.0000000236,266.983997235751,1.00000000009149,0.371982184455235
11400.0000000239,265.234737509917,1.00000000011152,0.378636581001094
11500.0000000243,263.403770667226,1.00000000015717,0.427680258704067
11600.0000000247,261.550711018462,1.00000000024239,0.481414609775656
11700.000000025,259.727236948595,1.00000000032459,0.519056189206183
11800.0000000254,257.967948485515,1.00000000035828,0.53862832231303
11900.0000000258,256.287851202632,1.00000000035312,0.545553852268882
12000.0000000261,254.682726347254,1.00000000034053,0.539437976171896
12100.0000000265,253.127184858446,1.00000000031193,0.514503921269086
12200.0000000269,251.579241956155,1.00000000024256,0.466917039991948
12300.0000000272,249.991669975366,1.00000000016862,0.402757819832802
12400.0000000276,248.33122344167,1.00000000010192,0.344348762346207
12500.0000000279,246.592926796714,1.00000000008424,0.321494578840744
12600.0000000283,244.800102880086,1.00000000010607,0.346947736796742
12700.0000000287,242.986634583489,1.00000000018079,0.402989587575196
12800.000000029,241.18127086164,1.00000000025993,0.460109441866617
12900.0000000294,239.405484367966,1.00000000031269,0.500013207584054
13000.0000000298,237.676024118237,1.00000000034921,0.521061471206232
13100.0000000301,236.0042114366,1.00000000037576,0.530781727675937
13200.0000000305,234.393966990103,1.00000000036664,0.53468437519898
13300.0000000309,232.840795929504,1.00000000033903,0.531327791383748
13400.0000000312,231.330868982106,1.00000000030487,0.514983426794639
13500.0000000316,229.842993880727,1.00000000026062,0.481620835598221
13600.0000000319,228.353457249778,1.0000000002067,0.432693273114989
13700.0000000323,226.84326483919,1.00000000016863,0.376266111799525
13800.0000000327,225.304747548862,1.00000000011981,0.329242819303753
13900.000000033,223.743908895449,1.00000000009402,0.309604689212278
14000.0000000334,222.17660524491,1.00000000011028,0.321441270229923
14100.0000000338,220.61850546564,1.00000000015048,0.35925911898785
14200.0000000341,219.077922385838,1.00000000021479,0.41266326303677
14300.0000000345,217.55682384792,1.00000000026407,0.46121337583894
14400.0000000349,216.055513278653,1.00000000029218,0.491361146496891
14500.0000000352,214.575179691966,1.00000000030009,0.503116807381856
14600.0000000356,213.118422758416,1.00000000033197,0.505006911379013
14700.0000000359,211.689008316186,1.0000000003513,0.508808739807054
14800.0000000363,210.290213876018,1.00000000036106,0.518076566711538
14900.0000000367,208.922691598857,1.0000000003298,0.526237652321499
15000.000000037,207.582813324271,1.00000000029828,0.523660739234005
15100.0000000374,206.263348072123,1.0000000002747,0.504801854558864
15200.0000000378,204.955480171285,1.00000000021325,0.470275836013604
15300.0000000381,203.652460643765,1.00000000018336,0.426871527544638
15400.0000000385,202.352998824867,1.0000000001489,0.384533038043904
15500.0000000389,201.061838596067,1.00000000013469,0.350347338954787
15600.0000000392,199.787505903779,1.00000000013992,0.329700879130826
15700.0000000396,198.539002742426,1.00000000014,0.329143536804618
15800.0000000399,197.323137095147,1.00000000014607,0.348032680883645
15900.0000000403,196.141767843684,1.00000000017316,0.374523854869708
16000.0000000407,194.990390608218,1.00000000019766,0.405201801334467
16100.000000041,193.859579392408,1.00000000024912,0.440693454493062
16200.0000000414,192.739844592131,1.00000000027311,0.475146077986039
16300.0000000418,191.625888460995,1.00000000028043,0.497670049067609
16400.0000000418,190.516985910326,1.0000000002758,0.501661640008159
16500.0000000404,189.414285334615,1.00000000024596,0.490373564068397
16600.0000000389,188.31851583795,1.00000000025095,0.476329766641808
16700.0000000375,187.2285017119,1.00000000027007,0.474075780570679
16800.000000036,186.142459038984,1.00000000030045,0.486151373796362
16900.0000000346,185.060098492624,1.00000000034481,0.508008342140358
17000.0000000331,183.983471011328,1.00000000035501,0.527293266681217
17100.0000000317,182.915717469672,1.00000000034247,0.53361732054101
17200.0000000302,181.859196109924,1.00000000030539,0.524997739244349
17300.0000000287,180.814901738792,1.00000000024933,0.501961821417798
17400.0000000273,179.784329387986,1.00000000020165,0.466775607578561
17500.0000000258,178.771543614878,1.0000000001566,0.424206809954274
17600.0000000244,177.784247437875,1.00000000011807,0.383808963869428
17700.0000000229,176.83255344894,1.00000000010284,0.353406803724316
17800.0000000215,175.924174973694,1.00000000012522,0.33715005878403
17900.00000002,175.061614938869,1.00000000015684,0.334977060325817
18000.0000000186,174.242688234177,1.00000000017682,0.344601468437609
18100.0000000171,173.463326439611,1.00000000020601,0.366778703889249
18200.0000000156,172.718020253429,1.00000000020617,0.393783569310916
18300.0000000142,171.999512398208,1.00000000022703,0.419367085069549
18400.0000000127,171.29706122582,1.00000000024484,0.440648991797521
18500.0000000113,170.598920594658,1.00000000027462,0.459642403656453
18600.0000000098,169.895457853023,1.00000000029022,0.47686487349305
18700.0000000084,169.18175063148,1.00000000028983,0.492321597785713
18800.0000000069,168.458905793598,1.00000000027593,0.502557613574061
18900.0000000055,167.7326061388,1.00000000024038,0.501546840735091
19000.000000004,167.010837964485,1.00000000019831,0.489104103499809
19100.0000000026,166.29924088011,1.00000000018416,0.471815812360747
19200.0000000011,165.599371521319,1.00000000018882,0.456934937492365
19299.9999999996,164.906027592247,1.00000000022311,0.450137986215232
19399.9999999982,164.210114138672,1.00000000026157,0.455720229524796
19499.9999999967,163.502038384305,1.00000000031224,0.470042115199271
19599.9999999953,162.77608567886,1.00000000034472,0.488178779194758
19699.9999999938,162.032238038833,1.00000000034586,0.507909613257593
19799.9999999924,161.274918065141,1.00000000035654,0.524020994609286
19899.9999999909,160.510228697574,1.00000000033075,0.53161207284635
19999.9999999895,159.744177533784,1.00000000030279,0.529533337249709
20099.999999988,158.982305341407,1.00000000027548,0.51783939459826
20199.9999999865,158.229773444175,1.00000000024234,0.496313345246782
20299.9999999851,157.492949449619,1.00000000021258,0.467503842779286
20399.9999999836,156.779237412262,1.0000000001752,0.436082514974343
20499.9999999822,156.097687276375,1.00000000014366,0.407176750297854
20599.9999999807,155.458876979766,1.00000000012447,0.381849666724397
20699.9999999793,154.872201935988,1.00000000011377,0.359801290039065
20799.9999999778,154.343540614335,1.00000000012021,0.344502604993066
20899.9999999764,153.873378021583,1.00000000014557,0.340223971781241
20999.9999999749,153.45567908241,1.00000000016308,0.348747084119382
21099.9999999734,153.078878203566,1.00000000020353,0.369156701504578
21199.999999972,152.73056840275,1.00000000022194,0.393462932658499
21299.9999999705,152.400633531734,1.00000000024357,0.41568412851825
21399.9999999691,152.081734297575,1.00000000024543,0.434274734073681
21499.9999999676,151.769891406977,1.00000000025856,0.449293043098518
21599.9999999662,151.46205408465,1.00000000024232,0.460680710278687
21699.9999999647,151.153599306727,1.00000000024598,0.468923842152852
21799.9999999633,150.840234722971,1.00000000024743,0.475141187895192
21899.9999999618,150.517648601864,1.00000000025035,0.481283063209393
21999.9999999603,150.180654077747,1.00000000025503,0.488447303143286
22099.9999999589,149.82551283515,1.00000000027662,0.496517802934278
22199.9999999574,149.451611825406,1.00000000028872,0.505694379939039
22299.999999956,149.059853440605,1.00000000027621,0.513900488267005
22399.9999999545,148.654801458547,1.00000000025439,0.518412470128012
22499.9999999531,148.243557415051,1.00000000023308,0.515351835879715
22599.9999999516,147.832870328134,1.00000000021457,0.506277826550475
22699.9999999502,147.428376057226,1.00000000019954,0.496051722990362
22799.9999999487,147.032708647216,1.00000000019192,0.488797744607177
22899.9999999473,146.643379056172,1.00000000020498,0.485430955528818
22999.9999999458,146.255306380232,1.00000000021612,0.482532870626567
23099.9999999443,145.862693851537,1.00000000023114,0.478690602208024
23199.9999999429,145.461096461485,1.00000000025062,0.475822855458107
23299.9999999414,145.04739491833,1.00000000025433,0.476463498763135
23399.99999994,144.619396687841,1.00000000028737,0.479896157030363
23499.9999999385,144.174491088747,1.00000000030758,0.488638988231372
23599.9999999371,143.7107313687,1.00000000031879,0.502035361872612
23699.9999999356,143.228106390051,1.00000000032723,0.517030838961727
23799.9999999342,142.728893787113,1.00000000032004,0.530246308298875
23899.9999999327,142.217693890448,1.00000000034059,0.537762227593282
23999.9999999312,141.699990075995,1.00000000030273,0.537988879965032
24099.9999999298,141.181600887718,1.00000000027553,0.529862640504524
24199.9999999283,140.668456486277,1.00000000025017,0.514358121630355
24299.9999999269,140.167670310617,1.00000000021629,0.49312828491692
24399.9999999254,139.687658175939,1.0000000001776,0.468070259297027
24499.999999924,139.237865196664,1.00000000014504,0.441146486717276
24599.9999999225,138.82795192901,1.0000000001274,0.416825371739503
24699.9999999211,138.466307079853,1.00000000012978,0.398622231748554
24799.9999999196,138.158074847099,1.00000000012482,0.384220402522112
24899.9999999181,137.90514730603,1.00000000013853,0.373429358012995
24999.9999999167,137.706793125269,1.00000000015749,0.366921013534472
25099.9999999152,137.561361321623,1.00000000016395,0.36428590211839
25199.9999999138,137.465930607884,1.00000000017432,0.366080868016554
25299.9999999123,137.415209469215,1.00000000017651,0.372053579559689
25399.9999999109,137.400223869611,1.00000000020198,0.383675723974506
25499.9999999094,137.408910723338,1.00000000022756,0.399693844834543
25599.999999908,137.428122806628,1.00000000024619,0.41789308524939
25699.9999999065,137.445563896093,1.00000000026806,0.435181510142243
25799.9999999051,137.452464575639,1.00000000027638,0.449758790749544
25899.9999999036,137.444542896991,1.00000000027721,0.462509043228478
25999.9999999021,137.421672132717,1.00000000027928,0.473930782830701
26099.9999999007,137.386727522333,1.00000000026183,0.483817306097447
26199.9999998992,137.34424755789,1.0000000002432,0.490899059348608
26299.9999998978,137.299249159754,1.00000000023131,0.494809195012376
26399.9999998963,137.25606468294,1.00000000021727,0.495758823088725
26499.9999998949,137.217501219372,1.00000000020624,0.495306628378386
26599.9999998934,137.183997748148,1.00000000020111,0.495421712937154
26699.999999892,137.152693675006,1.00000000021494,0.495563760554721
26799.9999998905,137.117706262007,1.00000000023301,0.497394516608167
26899.999999889,137.071342004636,1.00000000025403,0.501251150259797
26999.9999998876,137.006273339101,1.00000000027689,0.507981952961439
27099.9999998861,136.917415454687,1.00000000027679,0.513999180469344
27199.9999998847,136.80245099742,1.00000000027167,0.516254817667004
27299.9999998832,136.661230538316,1.00000000028884,0.514491068669202
27399.9999998818,136.494930146215,1.00000000027501,0.510752551599235
27499.9999998803,136.305578291329,1.0000000002799,0.508498486039431
27599.9999998789,136.096076635206,1.0000000002774,0.512851279975349
27699.9999998774,135.870291943312,1.00000000026296,0.520741274800766
27799.9999998759,135.632772359284,1.000000000251,0.524489888679007
27899.9999998745,135.388931509964,1.00000000023597,0.521352310121789
27999.999999873,135.144459341842,1.00000000021892,0.513222045193502
28099.9999998716,134.90430386001,1.00000000020732,0.504665260835377
28199.9999998701,134.671667748585,1.00000000019603,0.499624909246036
28299.9999998687,134.447815606621,1.00000000019604,0.498535643068229
28399.9999998672,134.232418853392,1.00000000019314,0.499674758291806
28499.9999998658,134.023460325032,1.00000000019346,0.50198145215229
28599.9999998643,133.817780879453,1.00000000021014,0.503974572893896
28699.9999998629,133.611615315228,1.00000000021522,0.505251962234216
28799.9999998614,133.40116286354,1.00000000021684,0.50716072938571
28899.9999998599,133.183120941869,1.00000000023523,0.510685543180556
28999.9999998585,132.954530304805,1.00000000024951,0.512197411354214
