Time,AGPnorm,Energy,Entropy
0,0,1,9.61027951144451e-19
99.9999999999986,0.00571043905106172,1.00000000000034,0.0169531485872882
199.999999999993,0.0161022623383997,1.00000000000036,0.0493066246697386
300,0.0326432062994337,1.00000000000044,0.0968740925374785
400.000000000022,0.0498054296160692,1.00000000000522,0.160581575042758
500.000000000045,0.0664696052618433,1.00000000009374,0.252065781451272
600.000000000068,0.122212812697971,1.00000000059736,0.365262531387166
700.000000000091,0.354823022289541,1.00000000118625,0.4597702775434
800.000000000113,1.15859797136293,1.0000000017191,0.519765633966066
900.000000000136,2.74509397125785,1.00000000219188,0.553186464600227
1000.00000000016,5.12587260953871,1.00000000240772,0.568919245861992
1100.0000000001,8.12231529930427,1.00000000231032,0.573948639696648
1200,11.3929104762517,1.00000000214771,0.572107588734851
1299.99999999991,14.6720337316819,1.00000000209261,0.56790328311774
1399.99999999982,17.6901683015131,1.00000000199387,0.560948035945101
1499.99999999973,20.2860838715863,1.00000000181504,0.549206021968618
1599.99999999964,22.3746946207611,1.00000000161759,0.545566329733222
1699.99999999955,23.9118406082693,1.00000000152111,0.536399979191385
1799.99999999946,24.9634689221053,1.00000000148889,0.530614166084853
1899.99999999937,25.5000279337491,1.00000000134202,0.535004929318148
1999.99999999928,25.7214515209243,1.00000000124573,0.518177669635112
2099.99999999919,25.5309432151358,1.00000000122006,0.51320187682788
2199.99999999909,25.2412184751337,1.00000000156589,0.555853252597854
2299.999999999,24.7288201297406,1.00000000070493,0.417758407107875
2399.99999999891,24.0909248934924,1.00000000171757,0.567770617454463
2499.99999999882,23.5365029207461,1.00000000144919,0.521395031182539
2599.99999999873,22.8565921446296,1.00000000063425,0.36492751337503
2699.99999999864,22.1230988850041,1.00000000177896,0.532491815588161
2799.99999999855,21.4895138098964,1.00000000172258,0.569693881244071
2899.99999999846,20.8926899776724,1.000000001006,0.416751457176024
2999.99999999837,20.2579615920074,1.00000000080518,0.366462658683859
3099.99999999828,19.6242898620295,1.00000000157863,0.514396836923845
3199.99999999819,19.0302109851916,1.00000000183278,0.544728101084326
3299.99999999809,18.498212563981,1.0000000015293,0.552117181328173
3399.999999998,17.9914544987422,1.00000000069395,0.386716781959875
3499.99999999791,17.5323628732614,1.00000000090502,0.366850883547944
3599.99999999782,17.0987641659971,1.00000000155852,0.494478033574854
3699.99999999773,16.6638328068591,1.00000000131427,0.533161116709723
3799.99999999764,16.2450845870257,1.00000000142867,0.511060802156487
3899.99999999755,15.8306287269569,1.00000000183378,0.576783589215389
3999.99999999746,15.4439605022173,1.00000000119597,0.513760539911441
4099.99999999738,15.1172543220839,1.00000000064538,0.37097687420411
4199.99999999775,14.8949525591034,1.00000000096467,0.367475658862806
4299.99999999811,14.7083039381148,1.00000000136934,0.477652853839597
4399.99999999848,14.4929980363926,1.00000000161018,0.53360686765566
4499.99999999884,14.2499599111718,1.00000000145148,0.546005748774017
4599.9999999992,14.0165489619406,1.00000000106868,0.520943219370046
4699.99999999957,13.7827289687971,1.00000000139253,0.52373969068966
4799.99999999993,13.5266800469973,1.00000000178603,0.543375788644543
4900.00000000029,13.259645851257,1.00000000188637,0.584240729584596
5000.00000000066,13.0075038389324,1.00000000126053,0.523906932041638
5100.00000000102,12.8207882023622,1.00000000066295,0.401198187373519
5200.00000000139,12.7582449852014,1.00000000079455,0.363600215282656
5300.00000000175,12.790332028231,1.00000000114587,0.409761774615887
5400.00000000211,12.8192056090079,1.00000000161278,0.493078198784354
5500.00000000248,12.7985792224049,1.00000000150696,0.541577396640345
5600.00000000284,12.7602739417099,1.00000000130641,0.534778572261271
5700.00000000321,12.698733208591,1.00000000148351,0.55117390211399
5800.00000000357,12.6018891080105,1.00000000154182,0.554192584538719
5900.00000000393,12.4892995273395,1.0000000013696,0.5342077537921
6000.0000000043,12.3706020728942,1.00000000125471,0.554636813707535
6100.00000000466,12.2548350213448,1.00000000111907,0.543777821548251
6200.00000000502,12.1392667339191,1.00000000129031,0.551761067644447
6300.00000000539,12.0045646512893,1.00000000154473,0.561425039431771
6400.00000000575,11.8501333647069,1.00000000173631,0.559363600354152
6500.00000000612,11.6814014167179,1.00000000181017,0.57845565983237
6600.00000000648,11.5106884473049,1.00000000152651,0.573307055108994
6700.00000000684,11.3577172829582,1.00000000097736,0.501100600471787
6800.00000000721,11.27000428223,1.00000000069401,0.41925328869529
6900.00000000757,11.3033782195121,1.00000000073173,0.377340784803257
7000.00000000793,11.4569916399509,1.0000000010544,0.396859499559364
7100.0000000083,11.6687277464705,1.00000000136991,0.438926714446209
7200.00000000866,11.8615228628332,1.00000000162572,0.492552228430325
7300.00000000903,12.0207875990829,1.00000000143003,0.529763499800218
7400.00000000939,12.1383475747378,1.00000000147115,0.553001572482173
7500.00000000975,12.2242268630661,1.00000000145513,0.561339663650515
7600.00000001012,12.2792098421909,1.00000000139688,0.582909396752376
7700.00000001048,12.2941339579383,1.00000000152659,0.59145437303334
7800.00000001084,12.2773131681916,1.00000000139474,0.582218399984394
7900.00000001121,12.2458769780822,1.00000000140136,0.563478006657464
8000.00000001157,12.2062396886457,1.00000000138475,0.562068292585884
8100.00000001194,12.1591506001556,1.0000000014644,0.551623184635817
8200.0000000123,12.1041123333879,1.00000000143959,0.545649758013819
8300.00000001266,12.0488970827202,1.00000000134563,0.560990214121056
8400.00000001303,11.9975335152084,1.00000000132567,0.556073729664704
8500.00000001339,11.9470500376164,1.00000000139821,0.559652240489996
8600.00000001376,11.8955854139103,1.00000000134387,0.57062852488881
8700.00000001412,11.8404395231688,1.00000000140422,0.568595617640801
8800.00000001448,11.7782044001672,1.00000000147101,0.564937495001188
8900.00000001485,11.7071820613316,1.00000000147041,0.566165834365846
9000.00000001521,11.6250549511976,1.00000000141134,0.593659947224711
9100.00000001557,11.5361857336349,1.0000000013745,0.607088080930943
9200.00000001594,11.4488959557896,1.00000000117827,0.591236644391003
9300.0000000163,11.3603574393926,1.00000000137405,0.598585215185091
9400.00000001667,11.2663286423638,1.00000000147556,0.597347535669037
9500.00000001703,11.1657586008947,1.00000000161537,0.597620787713564
9600.00000001739,11.0631349740015,1.00000000188731,0.602545268230804
9700.00000001776,10.9647168017666,1.00000000187966,0.595132535362832
9800.00000001812,10.8691640719361,1.00000000188632,0.594249778846471
9900.00000001848,10.7705327630854,1.0000000016594,0.581911953860822
10000.0000000188,10.665803976033,1.00000000122652,0.543286250435501
10100.0000000192,10.5714602135735,1.00000000097129,0.483874920251658
10200.0000000196,10.5247172317378,1.00000000086531,0.437469926192663
10300.0000000199,10.569193879473,1.00000000066963,0.395815463425687
10400.0000000203,10.7274666896369,1.00000000092377,0.396800562506912
10500.0000000207,10.9922394688177,1.00000000103214,0.410236116784953
10600.000000021,11.3135808950683,1.00000000153264,0.4370146697454
10700.0000000214,11.6506206139929,1.00000000136084,0.469164738652228
10800.0000000218,11.9667240937943,1.00000000164662,0.500425667322198
10900.0000000221,12.2515580472309,1.00000000150902,0.518057506112052
11000.0000000225,12.5065277602012,1.00000000154657,0.544757853200171
11100.0000000229,12.7282519069178,1.00000000154907,0.563952237063419
11200.0000000232,12.9211701187373,1.00000000148315,0.577308169864977
11300.0000000236,13.0830860822257,1.00000000156424,0.58524536159856
11400.0000000239,13.2140430606486,1.00000000150079,0.597639755794374
11500.0000000243,13.3150221610271,1.00000000162516,0.614162602601606
11600.0000000247,13.385154939711,1.00000000168925,0.614710772862239
11700.000000025,13.4261799543066,1.00000000145594,0.61667068401359
11800.0000000254,13.4511247203087,1.00000000151552,0.616956692479172
11900.0000000258,13.4615453807818,1.00000000149109,0.615578984867576
12000.0000000261,13.4607823532647,1.00000000140689,0.605163085551505
12100.0000000265,13.4536486516416,1.00000000150211,0.602688492149156
12200.0000000269,13.4309710689528,1.00000000150797,0.601300564488333
12300.0000000272,13.4004886531998,1.00000000139371,0.588765573907135
12400.0000000276,13.3667402059883,1.00000000149372,0.598549026005339
12500.0000000279,13.3212924764625,1.00000000145061,0.600212229439935
12600.0000000283,13.2703607335509,1.00000000149002,0.607640772480347
12700.0000000287,13.2145434403498,1.00000000152769,0.61055851357954
12800.000000029,13.1532333482188,1.0000000016121,0.622096789807964
12900.0000000294,13.0867539202464,1.00000000143054,0.619120968924384
13000.0000000298,13.0213792783317,1.00000000137568,0.605366875827734
13100.0000000301,12.9608338244775,1.00000000141069,0.591291055920818
13200.0000000305,12.9081312080662,1.00000000137075,0.576556600196114
13300.0000000309,12.8603258330652,1.00000000152329,0.584350133478657
13400.0000000312,12.814246233354,1.00000000140201,0.592166097028196
13500.0000000316,12.7697197438978,1.00000000149949,0.589170480114863
13600.0000000319,12.7247280829247,1.00000000148596,0.588618551367082
13700.0000000323,12.6798840387312,1.00000000144549,0.593757536328505
13800.0000000327,12.6402478990328,1.00000000133459,0.590302547191881
13900.000000033,12.600615762066,1.00000000170005,0.588548723305867
14000.0000000334,12.5588562861348,1.0000000015359,0.590491855849414
14100.0000000338,12.522204700484,1.00000000137832,0.586981457025749
14200.0000000341,12.4924948081618,1.00000000137669,0.570878707473368
14300.0000000345,12.4649220376354,1.00000000151026,0.565079350884221
14400.0000000349,12.4327458052635,1.00000000154241,0.575701567208836
14500.0000000352,12.402333318023,1.0000000013945,0.58238717912141
14600.0000000356,12.3738607793048,1.00000000163078,0.59980848475421
14700.0000000359,12.3419848471511,1.00000000149399,0.618696189267707
14800.0000000363,12.3114202214287,1.00000000147156,0.611990104204025
14900.0000000367,12.2830585433143,1.00000000160839,0.595785963113136
15000.000000037,12.2501051501275,1.00000000161719,0.591746662921497
15100.0000000374,12.2171817312957,1.00000000146675,0.602044808861359
15200.0000000378,12.186585866596,1.00000000164928,0.609384255490283
15300.0000000381,12.1526990640931,1.00000000157571,0.616802203223592
15400.0000000385,12.1154111867555,1.00000000136551,0.622440337650987
15500.0000000389,12.0791561743292,1.00000000143965,0.621954929205587
15600.0000000392,12.0397546737147,1.00000000148663,0.629944823578104
15700.0000000396,11.9947314132479,1.00000000166632,0.624064816547856
15800.0000000399,11.9485643272491,1.00000000152595,0.613585365081764
15900.0000000403,11.9003035951598,1.00000000151552,0.618483641503112
16000.0000000407,11.8537290500956,1.0000000013641,0.626664184195114
16100.000000041,11.811751987584,1.00000000141365,0.62524636769675
16200.0000000414,11.7706800341139,1.00000000155625,0.624554914176053
16300.0000000418,11.723560088775,1.00000000171926,0.623406108247053
16400.0000000418,11.6722435105459,1.00000000148136,0.621872258790075
16500.0000000404,11.6246946129272,1.00000000126096,0.620685359267145
16600.0000000389,11.5761731398354,1.00000000166196,0.628420817194403
16700.0000000375,11.5255770973314,1.00000000146515,0.619316117039077
16800.000000036,11.4778787072337,1.00000000136204,0.614231197655304
16900.0000000346,11.4311747433472,1.00000000164114,0.61901583300606
17000.0000000331,11.3823917475538,1.00000000148472,0.617468588365078
17100.0000000317,11.3322481205959,1.00000000142894,0.626016437397327
17200.0000000302,11.2806471065758,1.00000000152288,0.632172475426447
17300.0000000287,11.2270208350336,1.00000000158029,0.627421743072088
17400.0000000273,11.171804373505,1.00000000149288,0.628562184208571
17500.0000000258,11.1140442022992,1.00000000164326,0.641159995876935
17600.0000000244,11.0554230654026,1.00000000153465,0.641840911399378
17700.0000000229,10.9975966315566,1.00000000140874,0.634209037610833
17800.0000000215,10.9390598175073,1.00000000159433,0.654200384839827
17900.00000002,10.8790996537266,1.00000000160643,0.637992527150603
18000.0000000186,10.8195369802888,1.00000000163329,0.643068998143641
18100.0000000171,10.76039306847,1.00000000143906,0.621230344866944
18200.0000000156,10.7017011098623,1.00000000153477,0.64263811448833
18300.0000000142,10.6439183525069,1.00000000135456,0.646330152658461
18400.0000000127,10.5869583383596,1.00000000129915,0.635869265259898
18500.0000000113,10.5305252179588,1.00000000154657,0.637687521393605
18600.0000000098,10.4755724756099,1.0000000014317,0.639601569186416
18700.0000000084,10.4232933632607,1.00000000148843,0.645126748675278
18800.0000000069,10.3755072546057,1.00000000169696,0.636337305460352
18900.0000000055,10.3342154620596,1.00000000172103,0.649004165029413
19000.000000004,10.3037541307748,1.00000000161228,0.648549572078262
19100.0000000026,10.2836502968568,1.00000000175914,0.653603381223412
19200.0000000011,10.2842378185931,1.00000000186858,0.655796604629659
19299.9999999996,10.296356369618,1.00000000202201,0.658195512072577
19399.9999999982,10.3372509843803,1.00000000199927,0.658145825405472
19499.9999999967,10.3836588046942,1.00000000211563,0.646917381901943
19599.9999999953,10.4545230032045,1.00000000206416,0.634580994882943
19699.9999999938,10.5173935052055,1.00000000199038,0.618711358538588
19799.9999999924,10.5812205077454,1.00000000176113,0.60527061309835
19899.9999999909,10.6172469509321,1.00000000152427,0.5940689840742
19999.9999999895,10.6268470214133,1.00000000139421,0.571398075198499
20099.999999988,10.6079049067236,1.00000000122933,0.537014828210448
20199.9999999865,10.5683973222484,1.00000000113021,0.506640846806044
20299.9999999851,10.5283849831249,1.00000000091391,0.477379000011667
20399.9999999836,10.507118497801,1.0000000009875,0.451402036988926
20499.9999999822,10.5318210401413,1.00000000084409,0.430629617197077
20599.9999999807,10.6238555411962,1.00000000086669,0.415006050911053
20699.9999999793,10.8090024366363,1.00000000092544,0.412383228406016
20799.9999999778,11.0811839440688,1.00000000106123,0.411811925380612
20899.9999999764,11.4647264146238,1.00000000121232,0.424419757350514
20999.9999999749,11.9033920594493,1.00000000127769,0.434096801274015
21099.9999999734,12.4278557788241,1.00000000161082,0.442445619354628
21199.999999972,12.9635632858193,1.00000000140133,0.455367923554145
21299.9999999705,13.541333578895,1.00000000162214,0.461997766468466
21399.9999999691,14.103541201703,1.00000000165727,0.479991762970765
21499.9999999676,14.6627877788314,1.00000000196744,0.484950645708118
21599.9999999662,15.2047952610483,1.00000000163595,0.506635321381077
21699.9999999647,15.7182387253153,1.00000000171285,0.513324206305715
21799.9999999633,16.2188914321846,1.00000000165028,0.524041964498046
21899.9999999618,16.6892409050184,1.00000000164207,0.533772646104099
21999.9999999603,17.1522699186101,1.00000000176002,0.546030853506981
22099.9999999589,17.580654132055,1.00000000165991,0.557115138953028
22199.9999999574,17.9957462671039,1.00000000149894,0.563730818027198
22299.999999956,18.3968694992488,1.00000000172886,0.57780121208385
22399.9999999545,18.7640790655219,1.00000000177626,0.579526183528492
22499.9999999531,19.1197384324706,1.00000000167586,0.602575342067857
22599.9999999516,19.442929553117,1.00000000169831,0.611595906922937
22699.9999999502,19.7522452354912,1.00000000178196,0.610967731819692
22799.9999999487,20.0266827426457,1.0000000018149,0.622954500924716
22899.9999999473,20.2804691210087,1.0000000016787,0.639070455800801
22999.9999999458,20.5097721828056,1.00000000174629,0.643786022828209
23099.9999999443,20.7145802803085,1.00000000168543,0.631475546223018
23199.9999999429,20.901644476906,1.00000000180773,0.643102074185098
23299.9999999414,21.0577568488565,1.00000000170432,0.652147822057106
23399.99999994,21.199564672902,1.00000000195997,0.661211286382282
23499.9999999385,21.3186517883486,1.00000000167751,0.65052756610239
23599.9999999371,21.4314137774194,1.0000000016503,0.645114616687733
23699.9999999356,21.5293355882148,1.00000000186904,0.654847188082526
23799.9999999342,21.6151986359078,1.0000000017295,0.648448104969445
23899.9999999327,21.6894156187488,1.00000000173195,0.653259687164536
23999.9999999312,21.7507102416188,1.00000000172706,0.652431382889837
24099.9999999298,21.810218559332,1.00000000160144,0.642566340135763
24199.9999999283,21.8643701851778,1.00000000160318,0.635670346321315
24299.9999999269,21.912617628035,1.00000000172391,0.642807300265673
24399.9999999254,21.9400879711513,1.00000000192757,0.662193336373234
24499.999999924,21.9543953184334,1.00000000176933,0.648186642552926
24599.9999999225,21.969498484616,1.0000000015581,0.64139154137099
24699.9999999211,21.984016654347,1.00000000154811,0.631895762574235
24799.9999999196,21.9986069242332,1.00000000165142,0.631418346961556
24899.9999999181,22.0039533824364,1.00000000195891,0.624000386657579
24999.9999999167,22.0086677671616,1.00000000179624,0.632660822568374
25099.9999999152,22.0045612010503,1.00000000171275,0.649906993476146
25199.9999999138,21.9960073952847,1.00000000177772,0.648798281116843
25299.9999999123,21.9824451535196,1.00000000161894,0.649113664753401
25399.9999999109,21.9724002254185,1.00000000159134,0.610751596658718
25499.9999999094,21.9685383961211,1.0000000017437,0.613685745324478
25599.999999908,21.9621128362629,1.00000000177232,0.619690937256433
25699.9999999065,21.9463405405153,1.00000000199418,0.624248738548727
25799.9999999051,21.920168824083,1.00000000170493,0.629042060293231
25899.9999999036,21.896894233823,1.00000000153268,0.621083161621213
25999.9999999021,21.8791796314883,1.00000000166451,0.636350046974845
26099.9999999007,21.8591958825084,1.00000000183854,0.648077824381644
26199.9999998992,21.8314794316153,1.00000000185841,0.650831814522831
26299.9999998978,21.799632824462,1.00000000182577,0.647381007563047
26399.9999998963,21.7747211216558,1.00000000169055,0.635785666054354
26499.9999998949,21.7526726034232,1.000000001811,0.643137955680986
26599.9999998934,21.7336732802858,1.0000000018027,0.641816352047135
26699.999999892,21.7118996567515,1.00000000172182,0.634810326418714
26799.9999998905,21.6966623945862,1.00000000146898,0.605827241366118
26899.999999889,21.6926531120523,1.00000000159175,0.607670745925879
26999.9999998876,21.686484278441,1.00000000182244,0.626386045733077
27099.9999998861,21.6675919618136,1.00000000209749,0.623652413249604
27199.9999998847,21.6402792497617,1.00000000181182,0.624218007571998
27299.9999998832,21.6169224524847,1.00000000144337,0.606864200794885
27399.9999998818,21.5996023766425,1.00000000187293,0.634634300620592
27499.9999998803,21.5807469253501,1.0000000017978,0.648864395837388
27599.9999998789,21.5578914396317,1.00000000175489,0.640870922909919
27699.9999998774,21.5306135283882,1.00000000155559,0.630566697004147
27799.9999998759,21.506515710036,1.00000000180211,0.623869839710419
27899.9999998745,21.4846989460484,1.00000000183657,0.620779121194678
27999.999999873,21.4655293015759,1.00000000172367,0.622115982810788
28099.9999998716,21.44316109485,1.00000000181307,0.632163362375336
28199.9999998701,21.4184749327109,1.00000000160182,0.628087625625257
28299.9999998687,21.3964708152738,1.00000000173754,0.627263490887965
28399.9999998672,21.3722304047649,1.00000000179837,0.637783298356125
28499.9999998658,21.3493694264426,1.00000000147768,0.628046250870611
28599.9999998643,21.3278318573273,1.00000000185326,0.643657280761467
28699.9999998629,21.3048124923701,1.00000000204124,0.630121921169623
28799.9999998614,21.2772900307012,1.00000000193844,0.648744177730174
28899.9999998599,21.244882021791,1.00000000175364,0.641434790078969
28999.9999998585,21.2111190423946,1.00000000168169,0.6426620350737
29099.999999857,21.1805211593471,1.00000000201859,0.637677999632969
