Time,AGPnorm,Energy,Entropy
0,0,1,-7.61729059371429e-17
99.9999999999986,0.000420570185838512,1.00000000000287,0.00154993600165233
199.999999999993,0.0026648559566436,1.00000000000231,0.00471008701919564
300,0.00561271372399821,0.999999999999361,0.00875478183360893
400.000000000022,0.00880572367858189,0.999999999999008,0.013661592272211
500.000000000045,0.0123740764251375,1.00000000000165,0.0197417845904288
600.000000000068,0.0172936133671288,1.00000000000298,0.0268674825849079
700.000000000091,0.0226294574786856,1.00000000000065,0.0345908087572925
800.000000000113,0.0288711115997121,0.999999999998904,0.0427659283132502
900.000000000136,0.0352038606807941,1.00000000000032,0.0517462357536948
1000.00000000016,0.0421180365737487,1.00000000000266,0.0616920576418587
1100.0000000001,0.0496359292316134,1.00000000000187,0.072493048730665
1200,0.0575318979338155,0.999999999999505,0.0837906763563046
1299.99999999991,0.0657536735611701,0.99999999999956,0.0959391947233597
1399.99999999982,0.073862816290854,1.00000000000165,0.109228516708059
1499.99999999973,0.0825927520601733,1.00000000000258,0.123903709453508
1599.99999999964,0.0910803371734277,1.00000000000089,0.139769108662761
1699.99999999955,0.100202323304685,1.00000000000051,0.157098292681736
1799.99999999946,0.108614293830639,1.0000000000035,0.176566137121441
1899.99999999937,0.116719700762173,1.00000000001044,0.198615955023781
1999.99999999928,0.126385740949366,1.00000000001992,0.223143930020011
2099.99999999919,0.141688356375064,1.00000000004011,0.249364854625572
2199.99999999909,0.161528037185662,1.00000000006993,0.276725334696541
2299.999999999,0.188750111668862,1.00000000010738,0.304254966442325
2399.99999999891,0.249744766935491,1.0000000001543,0.331046485401453
2499.99999999882,0.383744635179373,1.00000000021106,0.355871490140975
2599.99999999873,0.612633837280082,1.00000000025536,0.378576018247708
2699.99999999864,0.958508645058208,1.00000000031524,0.399297195824495
2799.99999999855,1.48169963406709,1.00000000036741,0.418286199967885
2899.99999999846,2.26669161335468,1.00000000039473,0.435283528656814
2999.99999999837,3.35853233889206,1.00000000041986,0.45021221327794
3099.99999999828,4.7703828848837,1.00000000050071,0.463478090009524
3199.99999999819,6.5393094434101,1.00000000050892,0.475811617313514
3299.99999999809,8.73542482457664,1.00000000051637,0.486485616337921
3399.999999998,11.3956531282146,1.00000000053871,0.495563967377258
3499.99999999791,14.5027211312837,1.00000000050962,0.503780826858945
3599.99999999782,18.0387829815893,1.00000000058116,0.511091148145637
3699.99999999773,22.0163281751498,1.0000000006155,0.517260002883251
3799.99999999764,26.4505071659175,1.00000000058897,0.522263256714791
3899.99999999755,31.3069664842382,1.00000000064022,0.526778783357329
3999.99999999746,36.527302432233,1.00000000057028,0.531282879968148
4099.99999999738,42.0780566863536,1.00000000057107,0.534331083908526
4199.99999999775,47.9471662087366,1.00000000059717,0.536403887054816
4299.99999999811,54.0991343244897,1.00000000065387,0.538840752807148
4399.99999999848,60.4689653944969,1.00000000059919,0.540524831655469
4499.99999999884,67.00203095193,1.00000000059473,0.541468333937216
4599.9999999992,73.6645555863938,1.0000000005803,0.542431538104864
4699.99999999957,80.4278133775473,1.00000000058062,0.542987349544933
4799.99999999993,87.2465216076923,1.0000000005407,0.542577886119451
4900.00000000029,94.0644919524345,1.00000000057011,0.54294848480728
5000.00000000066,100.840446700579,1.00000000057511,0.542419766257811
5100.00000000102,107.552228447746,1.0000000005529,0.541142974417836
5200.00000000139,114.173447247356,1.00000000054134,0.541478649746997
5300.00000000175,120.665439193007,1.00000000052436,0.540629728636645
5400.00000000211,126.992879928774,1.00000000052892,0.539032593165959
5500.00000000248,133.134989946461,1.00000000053691,0.538607488224375
5600.00000000284,139.079411592854,1.00000000051721,0.537613359744783
5700.00000000321,144.806416309915,1.00000000048687,0.535625669299816
5800.00000000357,150.293653877191,1.00000000049078,0.534042580364723
5900.00000000393,155.523291171886,1.00000000049518,0.533231364385638
6000.0000000043,160.487265493729,1.00000000045537,0.531774724839636
6100.00000000466,165.180381579747,1.00000000041819,0.529528952447242
6200.00000000502,169.594924933498,1.00000000043114,0.528106321151471
6300.00000000539,173.721794164488,1.00000000043021,0.527915356658879
6400.00000000575,177.556427239828,1.00000000041352,0.526129522995826
6500.00000000612,181.098944425359,1.00000000041755,0.522727792493981
6600.00000000648,184.352133319118,1.00000000039408,0.521632644916228
6700.00000000684,187.31938497793,1.00000000038769,0.523609367617871
6800.00000000721,190.0049193021,1.00000000038933,0.523874161312153
6900.00000000757,192.410143302039,1.00000000036816,0.517861611520919
7000.00000000793,194.53348299648,1.00000000037061,0.511689262001091
7100.0000000083,196.382325295005,1.00000000036409,0.514472618658822
7200.00000000866,197.978458640455,1.00000000036563,0.524170086329214
7300.00000000903,199.345117116018,1.00000000036609,0.52659251560455
7400.00000000939,200.483407364601,1.00000000035128,0.514305074814614
7500.00000000975,201.371382621139,1.00000000032145,0.498559535271039
7600.00000001012,202.002636109628,1.00000000030025,0.500557744254914
7700.00000001048,202.41631387159,1.00000000034516,0.521205142068976
7800.00000001084,202.674850821979,1.00000000038297,0.536811152034191
7900.00000001121,202.80615780202,1.00000000036794,0.529972178268369
8000.00000001157,202.776931067924,1.0000000003109,0.500941530402721
8100.00000001194,202.530571729069,1.00000000024903,0.474637004601876
8200.0000000123,202.062299699476,1.0000000002509,0.485042871337777
8300.00000001266,201.444354612867,1.0000000003431,0.52143150313721
8400.00000001303,200.768101029298,1.00000000040452,0.547476386728781
8500.00000001339,200.074106861707,1.00000000042995,0.545458195554288
8600.00000001376,199.328858171476,1.00000000032309,0.512537347430879
8700.00000001412,198.452315225651,1.00000000022527,0.461210054668749
8800.00000001448,197.392827002776,1.0000000001823,0.439714889096988
8900.00000001485,196.185699358507,1.00000000025339,0.475505688821772
9000.00000001521,194.922015027008,1.00000000039067,0.524927822796096
9100.00000001557,193.682002246556,1.00000000045942,0.553348126468139
9200.00000001594,192.497246358836,1.00000000048059,0.55517115755472
9300.0000000163,191.338027990571,1.00000000041334,0.523377599089473
9400.00000001667,190.132880246146,1.00000000025184,0.461067306945941
9500.00000001703,188.812307903737,1.00000000015666,0.4026970386374
9600.00000001739,187.366847254617,1.0000000001581,0.405465312884852
9700.00000001776,185.85041402686,1.00000000026848,0.466149566779037
9800.00000001812,184.334437103531,1.00000000041909,0.522701820128545
9900.00000001848,182.873658344866,1.00000000047718,0.550015654503505
10000.0000000188,181.489060707308,1.0000000005092,0.555598191095146
10100.0000000192,180.167036488113,1.00000000044619,0.538459828766508
10200.0000000196,178.862503990911,1.0000000003458,0.485875128992033
10300.0000000199,177.517185691909,1.00000000022358,0.410898511536074
10400.0000000203,176.096167814956,1.00000000014568,0.356696223919653
10500.0000000207,174.608084318949,1.00000000015452,0.367848175574189
10600.000000021,173.090750750223,1.00000000027324,0.432656229673776
10700.0000000214,171.583818612643,1.00000000041465,0.497473172265579
10800.0000000218,170.117913866789,1.00000000047752,0.532857305276314
10900.0000000221,168.710650802785,1.00000000050991,0.545420495691064
11000.0000000225,167.365466109642,1.00000000049744,0.545543510020686
11100.0000000229,166.07006306831,1.00000000044714,0.52955285298941
11200.0000000232,164.797904057182,1.00000000036851,0.488006606530971
11300.0000000236,163.517995565037,1.00000000026764,0.423979099704831
11400.0000000239,162.209590721457,1.00000000018368,0.362137390294175
11500.0000000243,160.873246168546,1.00000000014652,0.337455323545622
11600.0000000247,159.524754600432,1.0000000001901,0.362295356605105
11700.000000025,158.182120292044,1.00000000029292,0.421203973421223
11800.0000000254,156.856880126985,1.00000000036576,0.479094820318303
11900.0000000258,155.554924468623,1.00000000042833,0.512573316475619
12000.0000000261,154.281805090455,1.0000000004629,0.523687474646924
12100.0000000265,153.043086049591,1.00000000048933,0.530393773427006
12200.0000000269,151.840425429835,1.0000000004737,0.53538802625529
12300.0000000272,150.668385364505,1.00000000042271,0.527158070762398
12400.0000000276,149.515834116559,1.00000000035309,0.497147409879387
12500.0000000279,148.370936556866,1.00000000027281,0.450724590453874
12600.0000000283,147.227463583508,1.00000000023187,0.402403731848134
12700.0000000287,146.088303640044,1.00000000020642,0.367295386530556
12800.000000029,144.962680138137,1.00000000020842,0.355300950675947
12900.0000000294,143.859138132297,1.00000000022209,0.373675042853822
13000.0000000298,142.779936573435,1.00000000026084,0.406849185632736
13100.0000000301,141.72159552193,1.00000000033749,0.44940906623774
13200.0000000305,140.678506294425,1.00000000038376,0.488652908599515
13300.0000000309,139.646875610259,1.00000000038614,0.507764093699234
13400.0000000312,138.62545233149,1.00000000040499,0.504530404247869
13500.0000000316,137.614101171896,1.00000000041508,0.501157128058138
13600.0000000319,136.613210566792,1.00000000045719,0.511529772822987
13700.0000000323,135.624020288405,1.00000000045956,0.529944668815606
13800.0000000327,134.648289371079,1.0000000004705,0.537293494818752
13900.000000033,133.686833391959,1.00000000038471,0.520932068798981
14000.0000000334,132.739500851519,1.00000000030838,0.482229233278667
14100.0000000338,131.808449837902,1.00000000023593,0.435058009761655
14200.0000000341,130.90024185222,1.00000000018609,0.396024023978336
14300.0000000345,130.022384309859,1.00000000020787,0.373201514473467
14400.0000000349,129.178587992649,1.00000000022156,0.370729809369238
14500.0000000352,128.368734038713,1.00000000026839,0.385137688021348
14600.0000000356,127.589970905944,1.00000000029357,0.414761974700195
14700.0000000359,126.835498524225,1.00000000032937,0.44053942900309
14800.0000000363,126.095244550718,1.00000000035016,0.462547843839314
14900.0000000367,125.360813302872,1.00000000040427,0.484174093514603
15000.000000037,124.629098206519,1.00000000037231,0.500751865462316
15100.0000000374,123.903074555859,1.00000000033699,0.501437983600353
15200.0000000378,123.18710924484,1.00000000029883,0.488200703551119
15300.0000000381,122.481004466436,1.00000000031973,0.476178845649141
15400.0000000385,121.777455482072,1.00000000038448,0.481097552274028
15500.0000000389,121.067397259727,1.00000000045966,0.499154807721122
15600.0000000392,120.34703814305,1.00000000048692,0.520422827104012
15700.0000000396,119.619467965922,1.00000000049568,0.536587433460286
15800.0000000399,118.891123091394,1.00000000045863,0.536295354250772
15900.0000000403,118.168795447181,1.00000000037854,0.518106934747852
16000.0000000407,117.45921281422,1.00000000031805,0.485427765261414
16100.000000041,116.771401375831,1.00000000025205,0.446079651840693
16200.0000000414,116.117089917245,1.00000000020769,0.409142124066644
16300.0000000418,115.506283040683,1.00000000017793,0.382585853469112
16400.0000000418,114.942795277382,1.0000000002115,0.370978910936395
16500.0000000404,114.421695197496,1.00000000025853,0.377493762340626
16600.0000000389,113.9332257531,1.00000000031146,0.39661667468315
16700.0000000375,113.467647203017,1.0000000003389,0.419651344711578
16800.000000036,113.017329406603,1.00000000034499,0.442333406800273
16900.0000000346,112.575021777287,1.00000000036101,0.462711908673933
17000.0000000331,112.134956584891,1.00000000037747,0.476170413134975
17100.0000000317,111.691277891062,1.00000000037616,0.487099263408032
17200.0000000302,111.241493864089,1.00000000038456,0.497177759778143
17300.0000000287,110.785839222721,1.00000000037685,0.505048997870859
17400.0000000273,110.328897753937,1.00000000035001,0.508498800602918
17500.0000000258,109.877217328305,1.00000000029023,0.505619035074409
17600.0000000244,109.435550274841,1.00000000028945,0.497854914680745
17700.0000000229,109.003242149684,1.00000000028922,0.489250771600072
17800.0000000215,108.572983917591,1.00000000033577,0.485668445617084
17900.00000002,108.136290298045,1.00000000039192,0.484621828384799
18000.0000000186,107.685867751272,1.00000000041222,0.490920950240817
18100.0000000171,107.218219156311,1.00000000044776,0.501620995865988
18200.0000000156,106.733370577091,1.00000000044696,0.515765062046582
18300.0000000142,106.234492482007,1.00000000046085,0.530693335618513
18400.0000000127,105.727626746198,1.00000000043222,0.538953936397385
18500.0000000113,105.220310892032,1.00000000041562,0.532696042031267
18600.0000000098,104.721489643071,1.00000000033678,0.511937620869594
18700.0000000084,104.240717342917,1.00000000027831,0.481519166846355
18800.0000000069,103.788411533877,1.00000000023614,0.449069787301861
18900.0000000055,103.373982580757,1.00000000021372,0.424231137966617
19000.000000004,103.003689900703,1.00000000022255,0.409029926838216
19100.0000000026,102.680279882557,1.00000000021421,0.398145369186592
19200.0000000011,102.403514500296,1.00000000023196,0.393958369428815
19299.9999999996,102.168580600411,1.00000000026878,0.395036560356958
19399.9999999982,101.964603489342,1.00000000028857,0.40596710040347
19499.9999999967,101.777390149323,1.00000000035126,0.42751812407428
19599.9999999953,101.59475846745,1.00000000038234,0.4499530198755
19699.9999999938,101.410493379276,1.00000000038113,0.467249744316508
19799.9999999924,101.22605827096,1.00000000035235,0.476582554149312
19899.9999999909,101.047054622855,1.00000000030675,0.479839593601403
19999.9999999895,100.877506113477,1.00000000029587,0.47967454817846
20099.999999988,100.717487548168,1.00000000030825,0.480504122033661
20199.9999999865,100.561537892514,1.00000000034865,0.487834421592747
20299.9999999851,100.399212122146,1.00000000037691,0.500479336628349
20399.9999999836,100.219687274286,1.00000000039783,0.513271492983569
20499.9999999822,100.016490079166,1.0000000004173,0.522983758385681
20599.9999999807,99.7885299181189,1.00000000040973,0.529419549434243
20699.9999999793,99.5405521168818,1.00000000038476,0.532855161937966
20799.9999999778,99.280715425158,1.00000000036278,0.533137163176578
20899.9999999764,99.0177094536513,1.0000000003242,0.527611891609688
20999.9999999749,98.7575143237246,1.00000000029816,0.51780619076743
21099.9999999734,98.5026219819934,1.00000000029055,0.507898297730987
21199.999999972,98.2536792034495,1.00000000027858,0.501083379787505
21299.9999999705,98.0089096073355,1.0000000002858,0.495893146962562
21399.9999999691,97.7650632214772,1.00000000032606,0.49027575447186
21499.9999999676,97.5166911347913,1.00000000037012,0.489755593628108
21599.9999999662,97.2579140087485,1.00000000040933,0.495722152860755
21699.9999999647,96.983160104299,1.00000000043539,0.505743368816823
21799.9999999633,96.6885525202893,1.0000000004378,0.517945974595029
21899.9999999618,96.3742665069217,1.00000000046553,0.531159731860637
21999.9999999603,96.044221908377,1.00000000044574,0.541054993007549
22099.9999999589,95.704851127942,1.00000000043826,0.54326313909726
22199.9999999574,95.3632986859332,1.00000000037948,0.537900193526293
22299.999999956,95.0275133200125,1.00000000034644,0.524202740049441
22399.9999999545,94.7060482733871,1.00000000029209,0.501554600590614
22499.9999999531,94.4077181059429,1.00000000026085,0.476758104631343
22599.9999999516,94.1412431970788,1.00000000022645,0.45515980852135
22699.9999999502,93.9142748544923,1.00000000020565,0.435710733658213
22799.9999999487,93.7320448720697,1.00000000020147,0.421559073632275
22899.9999999473,93.5957466592211,1.00000000022288,0.413069618116117
22999.9999999458,93.5034101102799,1.00000000025034,0.406503602951572
23099.9999999443,93.4485497583207,1.00000000026586,0.404935084076161
23199.9999999429,93.4229265972434,1.00000000027707,0.409784476455943
23299.9999999414,93.4188447721562,1.0000000003417,0.416226865448872
23399.99999994,93.4291835803147,1.00000000031689,0.424337346644831
23499.9999999385,93.4486728345632,1.00000000035736,0.431851038040172
23599.9999999371,93.4727164065619,1.00000000033573,0.44227037034505
23699.9999999356,93.4972158791809,1.00000000036942,0.456811421315857
23799.9999999342,93.5187497641087,1.00000000034918,0.469869583216999
23899.9999999327,93.535843651921,1.00000000034836,0.479401848528537
23999.9999999312,93.5476577869739,1.00000000034996,0.487680886275842
24099.9999999298,93.5539483094085,1.00000000035095,0.499749997199637
24199.9999999283,93.5551637398097,1.00000000036198,0.511444813352963
24299.9999999269,93.5529973551885,1.00000000033872,0.519706870706354
24399.9999999254,93.5503521668262,1.00000000031869,0.522082175759507
24499.999999924,93.5492422937808,1.00000000032705,0.52280375545618
24599.9999999225,93.5491505433002,1.00000000031787,0.522887883685114
24699.9999999211,93.5462375378035,1.0000000003195,0.52422835920777
24799.9999999196,93.5353412589244,1.00000000034291,0.528409497649891
24899.9999999181,93.5113809066044,1.00000000036512,0.53012526912908
24999.9999999167,93.4707988483266,1.00000000035948,0.529652910043617
25099.9999999152,93.4124223896579,1.00000000037484,0.527724370148376
25199.9999999138,93.3365343026948,1.00000000037081,0.523789998443284
25299.9999999123,93.2427830202831,1.00000000037301,0.519947523867904
25399.9999999109,93.1308401942086,1.00000000037443,0.517153625224638
25499.9999999094,93.0010388959485,1.00000000039747,0.519968138226746
25599.999999908,92.8556003580409,1.00000000040689,0.528399793554159
25699.9999999065,92.6988032807377,1.00000000038738,0.533911456213798
25799.9999999051,92.5361205990569,1.0000000003581,0.533624599829166
25899.9999999036,92.3726307661193,1.00000000033309,0.530578146330149
25999.9999999021,92.2115169580592,1.00000000032556,0.527206562309322
26099.9999999007,92.0541081263337,1.00000000030754,0.526097021867202
26199.9999998992,91.9010064442426,1.00000000029816,0.526370902456011
26299.9999998978,91.752464122607,1.00000000028684,0.528187098983504
26399.9999998963,91.6076980041898,1.00000000030293,0.530148914859424
26499.9999998949,91.464295544871,1.00000000029414,0.531076283932796
26599.9999998934,91.3195188889704,1.00000000030617,0.530668416273724
26699.999999892,91.1714004690446,1.00000000033311,0.529724295554091
26799.9999998905,91.018430440509,1.00000000035284,0.528912132502896
26899.999999889,90.8589013458401,1.00000000036339,0.526733597595755
26999.9999998876,90.6902892195945,1.00000000036492,0.524141245444603
27099.9999998861,90.5102389195439,1.00000000040809,0.523069177029417
27199.9999998847,90.3173425968735,1.00000000043738,0.523747559605395
27299.9999998832,90.1105165347687,1.00000000044287,0.526700997978431
27399.9999998818,89.8896582475418,1.0000000004626,0.531699444944881
27499.9999998803,89.6566728447611,1.0000000004508,0.537695434630554
27599.9999998789,89.4154026475593,1.00000000042732,0.542199690018314
27699.9999998774,89.1706532294088,1.00000000038496,0.542377933936584
27799.9999998759,88.9276076338397,1.00000000035115,0.538189045253255
27899.9999998745,88.6918807336373,1.00000000031516,0.527656080413808
27999.999999873,88.4693818037005,1.0000000002982,0.512160391901269
28099.9999998716,88.2662337596957,1.00000000025513,0.496014175239112
28199.9999998701,88.088420492469,1.00000000024761,0.479556685780959
28299.9999998687,87.9416528697409,1.00000000022175,0.465376999179497
28399.9999998672,87.8304011823977,1.00000000021742,0.453299949249598
28499.9999998658,87.7576982429679,1.00000000023742,0.44110473536697
28599.9999998643,87.7246162890562,1.00000000022045,0.429631182686266
28699.9999998629,87.7299092754701,1.00000000025226,0.425427335793627
28799.9999998614,87.770080341635,1.00000000025187,0.425082592668584
28899.9999998599,87.8398210229834,1.00000000030271,0.429004322219477
28999.9999998585,87.9332479501149,1.0000000003026,0.433444556323653
