Time,AGPnorm,Energy,Entropy
0,0,1,-1.3914883875946e-17
99.9999999999986,1.11250189594967e-05,0.999999999997684,0.000531325159590856
199.999999999993,0.00100303134705811,0.99999999999964,0.000849589341281336
300,0.00250218594070831,0.999999999998983,0.00148027601137581
400.000000000022,0.00344476976968796,0.999999999998043,0.00258696219531661
500.000000000045,0.00413907075929189,1.00000000000011,0.00345684527239778
600.000000000068,0.006006379060442,0.99999999999789,0.00484140300414727
700.000000000091,0.00743578244754251,0.999999999999223,0.00624869697301598
800.000000000113,0.00949903100787546,0.999999999999423,0.00766312127432923
900.000000000136,0.0119240176643757,0.999999999997793,0.00950579941341832
1000.00000000016,0.0139000628981549,1.00000000000003,0.011171323222478
1100.0000000001,0.0168243200966706,0.999999999998244,0.01310688111389
1200,0.0197135543484661,0.999999999998779,0.0152073210366355
1299.99999999991,0.0226538487908859,0.999999999999756,0.0172063061900524
1399.99999999982,0.0261185490231021,0.99999999999771,0.0195695907256668
1499.99999999973,0.0294009545367474,0.999999999999813,0.0218488055771635
1599.99999999964,0.033382987183929,0.999999999998677,0.0242418959518034
1699.99999999955,0.0374260009625813,0.99999999999836,0.026887268018972
1799.99999999946,0.0412457305670307,0.999999999999941,0.0294001174484069
1899.99999999937,0.0456561417068878,0.999999999997815,0.0321941497259199
1999.99999999928,0.0500731797641602,0.999999999999487,0.0350163345343013
2099.99999999919,0.0548822526234771,0.999999999999106,0.0378485532526634
2199.99999999909,0.0598481006752666,0.999999999998023,0.040968148294778
2299.999999999,0.0645696293509971,0.99999999999997,0.0439779380814935
2399.99999999891,0.0698338188473721,0.999999999998089,0.047184347652196
2499.99999999882,0.0751537906819334,0.9999999999991,0.0505304009598641
2599.99999999873,0.0805209645626886,0.99999999999946,0.0538215769520479
2699.99999999864,0.0861846769380176,0.999999999997835,0.0574020399332408
2799.99999999855,0.0917526899914123,0.999999999999862,0.060933834502059
2899.99999999846,0.097725997844964,0.999999999998456,0.0645930003899187
2999.99999999837,0.103701366109998,0.999999999998694,0.0684796676685926
3099.99999999828,0.109480830507187,0.999999999999701,0.0722871361499629
3199.99999999819,0.115637208598122,0.999999999997854,0.0763700454936625
3299.99999999809,0.121879368573161,0.999999999999643,0.0804994519450027
3399.999999998,0.128308920774502,0.999999999998824,0.0847066360806654
3499.99999999791,0.134711469912333,0.999999999998309,0.089200753214293
3599.99999999782,0.140872653174969,0.99999999999981,0.0936438049205636
3699.99999999773,0.147383337481503,0.99999999999807,0.0983473410525915
3799.99999999764,0.154045254218675,0.999999999999349,0.103219078144176
3899.99999999755,0.160630751650166,0.999999999999165,0.108143646358212
3999.99999999746,0.167259141217003,0.999999999998018,0.113419503282017
4099.99999999738,0.173744083174428,0.999999999999812,0.118728815380519
4199.99999999775,0.180513452592143,0.999999999998408,0.124313160679035
4299.99999999811,0.187301643565061,0.999999999999043,0.13021613601906
4399.99999999848,0.193858795820436,0.999999999999525,0.136204487301195
4499.99999999884,0.200540486919159,0.999999999998088,0.142662097582145
4599.9999999992,0.207173955400889,1.00000000000002,0.14933356248759
4699.99999999957,0.21413554669403,0.999999999999249,0.156368828507049
4799.99999999993,0.220716204725636,0.999999999999689,0.163936268170651
4900.00000000029,0.227263990029594,1.00000000000137,0.171711127640583
5000.00000000066,0.234145772098387,1.00000000000095,0.180090074004586
5100.00000000102,0.240520452102683,1.00000000000408,0.188887378866921
5200.00000000139,0.248339341631504,1.00000000000609,0.198017152248012
5300.00000000175,0.254867311993813,1.00000000000861,0.207716155468895
5400.00000000211,0.262316070607327,1.00000000001428,0.217460448861936
5500.00000000248,0.272594109148655,1.00000000001913,0.227553904954473
5600.00000000284,0.280796392356618,1.00000000002656,0.237841948157303
5700.00000000321,0.296123304982497,1.00000000003418,0.247992180347781
5800.00000000357,0.312576649969049,1.00000000004151,0.258371743416807
5900.00000000393,0.333618902176168,1.00000000005351,0.268435821018282
6000.0000000043,0.370041634079923,1.0000000000597,0.278496663659696
6100.00000000466,0.408678273506531,1.00000000007208,0.2884820564856
6200.00000000502,0.470159171264398,1.00000000008284,0.298050870306499
6300.00000000539,0.551589059405444,1.0000000000931,0.307630845918165
6400.00000000575,0.651137416921676,1.00000000010564,0.316944162570129
6500.00000000612,0.796744419592711,1.00000000011736,0.325974173046203
6600.00000000648,0.968641990392488,1.00000000012818,0.335018864572892
6700.00000000684,1.19259471595874,1.00000000013624,0.343577587018063
6800.00000000721,1.47977357499253,1.00000000015552,0.351994331501379
6900.00000000757,1.81553236545741,1.00000000016727,0.360373228737629
7000.00000000793,2.2438657987176,1.00000000017782,0.368241634576694
7100.0000000083,2.74710263521401,1.00000000018451,0.376206511006428
7200.00000000866,3.34182415822692,1.00000000020156,0.383662799166932
7300.00000000903,4.05947085014931,1.00000000020919,0.39097758363928
7400.00000000939,4.87216540217491,1.00000000021473,0.398312632190231
7500.00000000975,5.82775425390084,1.00000000023928,0.404984050706833
7600.00000001012,6.92157676448389,1.00000000024141,0.411778701330324
7700.00000001048,8.14889531296609,1.00000000024971,0.418312903779373
7800.00000001084,9.55854222941488,1.00000000025473,0.424499776362317
7900.00000001121,11.1172261973829,1.00000000026565,0.430718731662173
8000.00000001157,12.8600104862171,1.00000000025772,0.436484280588782
8100.00000001194,14.8020019852925,1.00000000028667,0.442044589554357
8200.0000000123,16.9153699458926,1.00000000028377,0.447695189653106
8300.00000001266,19.2547808438927,1.00000000029688,0.452719559015997
8400.00000001303,21.7931372487598,1.00000000030339,0.457962478129457
8500.00000001339,24.5403105177535,1.00000000030495,0.46283452659419
8600.00000001376,27.5299867267235,1.0000000003243,0.46737231729564
8700.00000001412,30.720287280788,1.00000000031665,0.472172362959456
8800.00000001448,34.1560428225425,1.00000000032103,0.476313557054046
8900.00000001485,37.8265958791453,1.00000000033229,0.480541951836222
9000.00000001521,41.7132354197741,1.00000000032978,0.48463925906663
9100.00000001557,45.8607687117393,1.00000000033874,0.488370400755136
9200.00000001594,50.225735754701,1.00000000033617,0.492260596733431
9300.0000000163,54.8315772422597,1.00000000033332,0.495685629938317
9400.00000001667,59.6868237152052,1.00000000035001,0.498979561048909
9500.00000001703,64.7515973799144,1.00000000033817,0.502427302421167
9600.00000001739,70.0691689796007,1.00000000034734,0.505276432286795
9700.00000001776,75.6071191129945,1.00000000036162,0.508405302347395
9800.00000001812,81.362190138596,1.00000000034048,0.511238485083147
9900.00000001848,87.3589354468582,1.00000000035823,0.513808114056751
10000.0000000188,93.5482133801152,1.00000000034419,0.516642881695718
10100.0000000192,99.9615027343591,1.00000000036234,0.518804346500213
10200.0000000196,106.582715016938,1.00000000034955,0.52132370218981
10300.0000000199,113.385540485605,1.00000000035519,0.523486049312194
10400.0000000203,120.402309643568,1.00000000034999,0.525527836202602
10500.0000000207,127.586825926231,1.0000000003417,0.527805954918599
10600.000000021,134.952087976068,1.00000000035722,0.529368133793081
10700.0000000214,142.499175986488,1.00000000035869,0.531248500456926
10800.0000000218,150.18750544062,1.00000000036935,0.533059835443529
10900.0000000221,158.046759862755,1.00000000035757,0.534509436397171
11000.0000000225,166.043906772284,1.00000000036779,0.536218989682193
11100.0000000229,174.172194835742,1.00000000034102,0.53761317735551
11200.0000000232,182.444828560089,1.00000000035903,0.538775424996822
11300.0000000236,190.817101923723,1.00000000035396,0.540426395006865
11400.0000000239,199.31108741045,1.00000000036414,0.541128743912118
11500.0000000243,207.90693258694,1.00000000035137,0.542548300139522
11600.0000000247,216.583436224927,1.00000000035681,0.543770860821702
11700.000000025,225.360379975813,1.0000000003635,0.544042129048432
11800.0000000254,234.196039599864,1.00000000035404,0.545684918991814
11900.0000000258,243.101034129283,1.00000000034455,0.546359939643741
12000.0000000261,252.070516453776,1.00000000034052,0.546728380155905
12100.0000000265,261.071836795621,1.00000000034988,0.548075190144198
12200.0000000269,270.128834235178,1.00000000033564,0.548349450275477
12300.0000000272,279.205307230637,1.00000000032774,0.548979867281728
12400.0000000276,288.301685160734,1.00000000033049,0.54982383925018
12500.0000000279,297.424936817272,1.00000000034546,0.549506208159036
12600.0000000283,306.536230056293,1.00000000033972,0.550541684419015
12700.0000000287,315.656937495114,1.00000000033541,0.551106267371683
12800.000000029,324.765598524969,1.00000000033498,0.550891298113314
12900.0000000294,333.84752366675,1.00000000033536,0.551588313234772
13000.0000000298,342.919119101271,1.00000000031815,0.551784465637832
13100.0000000301,351.944771598592,1.00000000032379,0.551904995229781
13200.0000000305,360.936002822797,1.00000000031328,0.552493784791709
13300.0000000309,369.885490438592,1.00000000032881,0.551932493047851
13400.0000000312,378.771009887513,1.00000000032107,0.552390068864897
13500.0000000316,387.609443115775,1.00000000032457,0.552638797213334
13600.0000000319,396.375594865749,1.00000000030718,0.552590534489559
13700.0000000323,405.069354488732,1.00000000032327,0.552496692434949
13800.0000000327,413.695188352796,1.0000000003089,0.552467563440002
13900.000000033,422.228050306958,1.00000000030463,0.552606285074813
14000.0000000334,430.682706358156,1.00000000030573,0.552674763377166
14100.0000000338,439.041352525975,1.00000000030965,0.55254668175332
14200.0000000341,447.299558925884,1.00000000029728,0.552340970055463
14300.0000000345,455.465105566194,1.00000000030201,0.552152914520704
14400.0000000349,463.516079865877,1.00000000029918,0.552304118162229
14500.0000000352,471.463859609993,1.00000000029155,0.55207908777386
14600.0000000356,479.297323192265,1.00000000028675,0.551746223306238
14700.0000000359,487.007667317673,1.00000000028623,0.551912204241648
14800.0000000363,494.607277769221,1.0000000002823,0.551540508497317
14900.0000000367,502.075473676696,1.0000000002785,0.55123888012344
15000.000000037,509.419273391894,1.00000000027796,0.55111233543995
15100.0000000374,516.636294792481,1.00000000028347,0.551041091619689
15200.0000000378,523.715090675492,1.00000000027081,0.550937396815956
15300.0000000381,530.666626592929,1.00000000027085,0.550241728762914
15400.0000000385,537.476735082402,1.000000000264,0.550365926009202
15500.0000000389,544.148422468354,1.00000000027077,0.549940174600297
15600.0000000392,550.684040721755,1.00000000026102,0.549539707654338
15700.0000000396,557.070395149816,1.00000000026599,0.549551240339685
15800.0000000399,563.319400389869,1.00000000027113,0.549486251120093
15900.0000000403,569.422170711633,1.00000000026049,0.549069374647846
16000.0000000407,575.375817307722,1.00000000026713,0.548285696596026
16100.000000041,581.188692736248,1.00000000025946,0.548562133226037
16200.0000000414,586.847815308825,1.00000000026076,0.548247647939562
16300.0000000418,592.36635694736,1.00000000026338,0.548191452941772
16400.0000000418,597.73374808197,1.00000000024928,0.547388034915542
16500.0000000404,602.951246451407,1.00000000025644,0.547918783852727
16600.0000000389,608.025108847486,1.00000000025046,0.547109481671416
16700.0000000375,612.947916925928,1.00000000025527,0.546828021481979
16800.000000036,617.722436841943,1.00000000024765,0.546018554201932
16900.0000000346,622.350355606509,1.0000000002505,0.546182387565868
17000.0000000331,626.825279255771,1.00000000024289,0.546013591859465
17100.0000000317,631.158592992309,1.0000000002455,0.545879855575284
17200.0000000302,635.339702601685,1.00000000023858,0.545279183754817
17300.0000000287,639.373943743464,1.00000000024078,0.544884515972499
17400.0000000273,643.263333790134,1.00000000023544,0.543969890847519
17500.0000000258,647.002328944944,1.00000000023235,0.543812760253012
17600.0000000244,650.600332844167,1.00000000022843,0.543684367465804
17700.0000000229,654.051305673749,1.00000000022982,0.54429623316715
17800.0000000215,657.359162997692,1.0000000002302,0.544335402540929
17900.00000002,660.52725866889,1.00000000022132,0.54358394598626
18000.0000000186,663.550266937618,1.00000000022399,0.542359150863756
18100.0000000171,666.435183906936,1.0000000002207,0.540914533807207
18200.0000000156,669.178820088865,1.00000000022288,0.540676632562395
18300.0000000142,671.782090660311,1.00000000021693,0.541274750154647
18400.0000000127,674.25208445514,1.00000000021498,0.543002089943376
18500.0000000113,676.586123318988,1.0000000002127,0.543784081546207
18600.0000000098,678.791501892038,1.00000000021304,0.543411079171852
18700.0000000084,680.867100570247,1.00000000021071,0.540888659813968
18800.0000000069,682.808944967329,1.0000000002095,0.538284718403165
18900.0000000055,684.62232322122,1.00000000019653,0.536386823006145
19000.000000004,686.301040073493,1.00000000020031,0.536958361904292
19100.0000000026,687.853743234912,1.00000000020131,0.540255601632895
19200.0000000011,689.285231354862,1.00000000021017,0.543596516635718
19299.9999999996,690.599956562307,1.00000000021114,0.54555770976868
19399.9999999982,691.807252764057,1.00000000020605,0.543945765203478
19499.9999999967,692.901044782693,1.00000000020283,0.539348337318789
19599.9999999953,693.878905003357,1.00000000018996,0.533857449493911
19699.9999999938,694.734898898119,1.00000000018014,0.530161580918604
19799.9999999924,695.465441273864,1.00000000018407,0.531801873086904
19899.9999999909,696.081919809342,1.00000000018676,0.537419062743511
19999.9999999895,696.592754458399,1.00000000020295,0.544647489144226
20099.999999988,697.013017652896,1.00000000020887,0.548982788710514
20199.9999999865,697.351985759381,1.00000000021067,0.548526955636791
20299.9999999851,697.60636565232,1.00000000020499,0.542412455557225
20399.9999999836,697.770254489758,1.00000000018698,0.532444958477011
20499.9999999822,697.828244891118,1.00000000016904,0.524002006259065
20599.9999999807,697.772144978906,1.000000000164,0.521274883220662
20699.9999999793,697.60715314478,1.00000000016636,0.5269189734458
20799.9999999778,697.344926950993,1.00000000018276,0.537857211283517
20899.9999999764,697.00934840577,1.00000000020015,0.548584897744967
20999.9999999749,696.617850241262,1.00000000022136,0.554311936600613
21099.9999999734,696.178278356325,1.00000000021446,0.552231575826683
21199.999999972,695.688671967702,1.00000000020983,0.542670367466414
21299.9999999705,695.131079735914,1.00000000018904,0.52797985322854
21399.9999999691,694.48785726931,1.00000000015373,0.514111265814172
21499.9999999676,693.744629431044,1.00000000014351,0.507541622875144
21599.9999999662,692.901826901056,1.0000000001443,0.513604555154298
21699.9999999647,691.978189158696,1.00000000016867,0.528955182138201
21799.9999999633,690.997452940465,1.00000000020401,0.545843804648767
21899.9999999618,689.985577721348,1.00000000023093,0.556575385529428
21999.9999999603,688.958057061765,1.0000000002386,0.559247735159247
22099.9999999589,687.914968458298,1.00000000023115,0.552173209795572
22199.9999999574,686.845238351044,1.00000000021213,0.536032445487363
22299.999999956,685.723782908522,1.00000000016711,0.51487167427796
22399.9999999545,684.528148306642,1.00000000014426,0.496463374764748
22499.9999999531,683.245595519652,1.0000000001231,0.489666259129349
22599.9999999516,681.878110045954,1.00000000013604,0.499897212707585
22699.9999999502,680.448998141067,1.00000000016772,0.522202334398202
22799.9999999487,678.984180461907,1.00000000020857,0.544243593716408
22899.9999999473,677.51098435827,1.0000000002446,0.559006168581682
22999.9999999458,676.0468420046,1.00000000026364,0.563642554436017
23099.9999999443,674.593700474863,1.00000000026003,0.558248419300823
23199.9999999429,673.141942682462,1.00000000022628,0.54301119531604
23299.9999999414,671.668598199118,1.00000000018985,0.518818651893368
23399.99999994,670.147284373251,1.00000000014483,0.491911907202202
23499.9999999385,668.558790289865,1.0000000001146,0.473264461923901
23599.9999999371,666.893894714341,1.00000000011043,0.472132789577621
23699.9999999356,665.165851529588,1.00000000013272,0.491570743296305
23799.9999999342,663.39653716138,1.0000000001881,0.520960457166652
23899.9999999327,661.614291004088,1.000000000227,0.546576202058796
23999.9999999312,659.843925528763,1.00000000026431,0.561713709391167
24099.9999999298,658.098425427005,1.00000000027572,0.567311253503397
24199.9999999283,656.381327188808,1.00000000027544,0.562706601097154
24299.9999999269,654.682787044367,1.00000000025318,0.548705774703986
24399.9999999254,652.983125977949,1.00000000020554,0.524611707896333
24499.999999924,651.259830959676,1.00000000016067,0.493107754437408
24599.9999999225,649.488042098462,1.00000000012038,0.464921286057141
24699.9999999211,647.657305201899,1.00000000009892,0.452283152199004
24799.9999999196,645.768755047839,1.00000000010472,0.460840673932106
24899.9999999181,643.836445437936,1.00000000014746,0.489522080255438
24999.9999999167,641.886065235192,1.00000000019205,0.522917517784628
25099.9999999152,639.939147898864,1.00000000025179,0.548477930325675
25199.9999999138,638.014887327499,1.00000000027613,0.56316593597862
25299.9999999123,636.124059579723,1.00000000029297,0.567702958673093
25399.9999999109,634.268053251741,1.00000000028158,0.564214612955212
25499.9999999094,632.440094035226,1.00000000026538,0.552120322680816
25599.999999908,630.62509943768,1.00000000022935,0.531148754908331
25699.9999999065,628.803619678009,1.00000000018041,0.49993072355403
25799.9999999051,626.956525683257,1.00000000013803,0.466445056853748
25899.9999999036,625.067750599334,1.00000000010073,0.442870746934438
25999.9999999021,623.135374794651,1.00000000009266,0.437690687619732
26099.9999999007,621.163312913634,1.00000000011093,0.45372587007928
26199.9999998992,619.166435059734,1.00000000015074,0.486640616441946
26299.9999998978,617.16452833518,1.00000000020676,0.520777945163164
26399.9999998963,615.172975684511,1.00000000024955,0.546200473083732
26499.9999998949,613.206281857406,1.00000000029378,0.560545581926191
26599.9999998934,611.272154426123,1.00000000029252,0.564197028627421
26699.999999892,609.37206932012,1.00000000028923,0.561972607852722
26799.9999998905,607.502807131517,1.00000000026825,0.552462516116894
26899.999999889,605.654378171172,1.00000000025173,0.537861938257754
26999.9999998876,603.814978735702,1.00000000020856,0.512374985672122
27099.9999998861,601.969022604349,1.00000000016443,0.481666008600537
27199.9999998847,600.103652274328,1.00000000013717,0.451744877280393
27299.9999998832,598.212639375221,1.00000000010337,0.431243785823355
27399.9999998818,596.29218936458,1.00000000010402,0.428906421282635
27499.9999998803,594.348905950302,1.00000000011402,0.443565408855692
27599.9999998789,592.39213086346,1.0000000001547,0.471805526164652
27699.9999998774,590.432915452279,1.00000000018775,0.504826099512523
27799.9999998759,588.484221843921,1.00000000023421,0.532400205788054
27899.9999998745,586.554232184264,1.00000000025637,0.548465648363239
27999.999999873,584.649540567624,1.00000000029704,0.556967230740736
28099.9999998716,582.773535928281,1.00000000028423,0.554736719140421
28199.9999998701,580.924850154859,1.00000000028881,0.550706647144465
28299.9999998687,579.100719518647,1.0000000002603,0.540716517327961
28399.9999998672,577.293651171822,1.00000000023985,0.52682038188166
28499.9999998658,575.49601042997,1.00000000022032,0.507851193258198
28599.9999998643,573.699317002109,1.00000000018071,0.482217987231363
28699.9999998629,571.894960285293,1.00000000015883,0.458565349347735
28799.9999998614,570.079596731723,1.00000000012422,0.437409779936237
