Time,AGPnorm,Energy,Entropy
0,0,1,-1.31140272499923e-17
99.9999999999986,8.24434643157573e-06,0.999999999998243,0.000416547529075463
199.999999999993,0.000742414047327838,1.00000000000107,0.000656467246537437
300,0.0018386534709474,0.999999999998516,0.00115081400129497
400.000000000022,0.00255383364869119,0.999999999999614,0.00201003408671389
500.000000000045,0.00309010063435255,1.00000000000045,0.00265592881491048
600.000000000068,0.00441181803717798,0.999999999998063,0.00376591851387725
700.000000000091,0.0054142558937259,1.00000000000088,0.00484373925113197
800.000000000113,0.00708262843486965,0.99999999999899,0.00593934913839248
900.000000000136,0.0089779764128565,0.999999999999094,0.00739283468146448
1000.00000000016,0.0103611783471491,1.00000000000076,0.00864958945023358
1100.0000000001,0.0123799184486388,0.999999999998082,0.0102062297966256
1200,0.0144752709736602,1.00000000000055,0.0118334528296039
1299.99999999991,0.0168957958687006,0.999999999999508,0.0133699279968557
1399.99999999982,0.0195927649648002,0.999999999998643,0.0152553113033175
1499.99999999973,0.0219060766533346,1.00000000000089,0.016988358774707
1599.99999999964,0.0248205134128265,0.999999999998296,0.0188938581892811
1699.99999999955,0.0278555430725216,1.00000000000013,0.0209592529526341
1799.99999999946,0.0308647320316189,0.999999999999983,0.0228809757585536
1899.99999999937,0.0341550754703438,0.999999999998314,0.0251167027705735
1999.99999999928,0.037363748958433,1.00000000000087,0.0272677689768026
2099.99999999919,0.0411994248972228,0.999999999998668,0.0294841967342492
2199.99999999909,0.0451103531715797,0.999999999999654,0.0319295393129721
2299.999999999,0.0486336897108376,1.00000000000035,0.0342141607567262
2399.99999999891,0.0524155693915697,0.999999999998169,0.0367596481645856
2499.99999999882,0.05638796599948,1.00000000000071,0.0393063387169229
2599.99999999873,0.0609473114785212,0.999999999999127,0.0418363103010812
2699.99999999864,0.0655623582661377,0.999999999999158,0.0446340425265718
2799.99999999855,0.0696469536356362,1.00000000000055,0.0472794093910318
2899.99999999846,0.0739923396817737,0.999999999998233,0.0501257779647651
2999.99999999837,0.0786095722364506,1.00000000000048,0.0530649039582092
3099.99999999828,0.0835782960374345,0.999999999999597,0.0559382345785366
3199.99999999819,0.088583205596639,0.999999999998718,0.0590824911326848
3299.99999999809,0.0932532715108046,1.00000000000059,0.0621153046748604
3399.999999998,0.0982556113011711,0.999999999998472,0.0652863824357189
3499.99999999791,0.103470397225248,1.00000000000015,0.0686372305435027
3599.99999999782,0.108606735252799,1.00000000000001,0.0718948575013758
3699.99999999773,0.113747055389023,0.999999999998425,0.0754092751589114
3799.99999999764,0.118899017854182,1.00000000000054,0.0788843021896212
3899.99999999755,0.124497507819109,0.999999999998825,0.0824426803416064
3999.99999999746,0.130199861661601,0.999999999999706,0.0862603050774546
4099.99999999738,0.13543914495843,1.00000000000028,0.0899654771036369
4199.99999999775,0.140672531347226,0.999999999998349,0.0939095438752408
4299.99999999811,0.146154791586282,1.00000000000048,0.0979192900184904
4399.99999999848,0.152107734161247,0.999999999999227,0.101976799203345
4499.99999999884,0.158012823252061,0.999999999999233,0.10634954107283
4599.9999999992,0.163377979230992,1.00000000000036,0.110634053989133
4699.99999999957,0.168815512584828,0.999999999998461,0.115145618321036
4799.99999999993,0.174548613875861,1.00000000000044,0.119845113854075
4900.00000000029,0.180549691883304,0.999999999999693,0.124587958860165
5000.00000000066,0.186374274279201,0.999999999998855,0.129695019338249
5100.00000000102,0.191820935010136,1.00000000000033,0.134808031052759
5200.00000000139,0.197562548751028,0.999999999998828,0.140166166712393
5300.00000000175,0.203486770147324,1.00000000000035,0.145875175014825
5400.00000000211,0.209337499076451,1.00000000000039,0.151641151584832
5500.00000000248,0.215041162246395,0.99999999999914,0.157858837622194
5600.00000000284,0.220393239715814,1.00000000000107,0.164233677777577
5700.00000000321,0.22659611822102,1.00000000000034,0.170919984229385
5800.00000000357,0.232570833539518,1.00000000000181,0.178108003259428
5900.00000000393,0.238230261830532,1.00000000000331,0.185367563013842
6000.0000000043,0.244614595985096,1.00000000000306,0.193070476972291
6100.00000000466,0.249880302007873,1.00000000000638,0.201008959297749
6200.00000000502,0.257642116902635,1.00000000000776,0.209162471762995
6300.00000000539,0.265174424506112,1.00000000001091,0.217742442400164
6400.00000000575,0.272255957391067,1.00000000001484,0.226230265274414
6500.00000000612,0.284449612654153,1.0000000000172,0.234881011181336
6600.00000000648,0.294765186341474,1.00000000002362,0.243658694597891
6700.00000000684,0.312293332862224,1.00000000002807,0.252287030154891
6800.00000000721,0.33488633650108,1.00000000003328,0.261159122009215
6900.00000000757,0.359018953485473,1.00000000004243,0.269707962253806
7000.00000000793,0.401091502481506,1.00000000004606,0.278199718350579
7100.0000000083,0.447327760184149,1.00000000005571,0.28672919926872
7200.00000000866,0.512052553187262,1.00000000006024,0.294876542634393
7300.00000000903,0.600925488662513,1.00000000006342,0.303104070717881
7400.00000000939,0.701807915903746,1.0000000000728,0.311039359708409
7500.00000000975,0.845625861250838,1.00000000008067,0.318768322252717
7600.00000001012,1.01583351508032,1.00000000008819,0.326590663831924
7700.00000001048,1.22545690382785,1.00000000009804,0.333940179782373
7800.00000001084,1.49587482816481,1.00000000010043,0.341283617432239
7900.00000001121,1.80302752310925,1.00000000011188,0.348461475079448
8000.00000001157,2.18894477572478,1.00000000012149,0.355301883384594
8100.00000001194,2.64268861273358,1.00000000012416,0.362344803737737
8200.0000000123,3.16623708675196,1.0000000001426,0.368868533869371
8300.00000001266,3.7995778776093,1.00000000014486,0.37531249293888
8400.00000001303,4.50889844042202,1.0000000001543,0.381741489824464
8500.00000001339,5.33742249759298,1.00000000015992,0.387752261380057
8600.00000001376,6.28859128917861,1.00000000015361,0.393910131067119
8700.00000001412,7.34594002594798,1.00000000016274,0.399721287283661
8800.00000001448,8.56384273953283,1.0000000001766,0.405225597732658
8900.00000001485,9.90680904555798,1.00000000017706,0.410951283026459
9000.00000001521,11.4062096227239,1.0000000001954,0.416125923723346
9100.00000001557,13.0848800800269,1.00000000019245,0.421377552320581
9200.00000001594,14.9071559868282,1.00000000020015,0.426452794993351
9300.0000000163,16.932701232436,1.0000000002062,0.431181847599598
9400.00000001667,19.1339969169024,1.0000000001993,0.436175033740863
9500.00000001703,21.5206062172516,1.00000000021323,0.440633649912208
9600.00000001739,24.1329142238303,1.00000000022174,0.444980259359893
9700.00000001776,26.9230230856663,1.00000000021691,0.449540541053173
9800.00000001812,29.9441107419601,1.00000000022785,0.453431674799814
9900.00000001848,33.1843468339512,1.00000000023342,0.457621457424701
10000.0000000188,36.6285160864263,1.00000000023393,0.46151655309007
10100.0000000192,40.3275211485548,1.00000000023667,0.465180056114952
10200.0000000196,44.2310584370534,1.00000000023951,0.469082190385979
10300.0000000199,48.3763225263515,1.00000000024121,0.472452403455198
10400.0000000203,52.7696310385339,1.00000000024309,0.475853343445232
10500.0000000207,57.3747326346832,1.00000000024808,0.479262231906813
10600.000000021,62.2440606508228,1.00000000024259,0.48225564746254
10700.0000000214,67.3344604986039,1.00000000024756,0.485546138535509
10800.0000000218,72.6611199558598,1.00000000024733,0.488476701356386
10900.0000000221,78.2469242988363,1.00000000025148,0.49114603457484
11000.0000000225,84.0420254032222,1.00000000025619,0.494130169003408
11100.0000000229,90.0921955435107,1.00000000025042,0.496512793847288
11200.0000000232,96.368878201908,1.00000000025871,0.499140604693531
11300.0000000236,102.863480497919,1.00000000025943,0.501681221398822
11400.0000000239,109.609751186995,1.00000000026207,0.503752065886534
11500.0000000243,116.554554951977,1.00000000026286,0.506351434688202
11600.0000000247,123.730315890151,1.00000000026869,0.508290391153867
11700.000000025,131.125101607143,1.00000000026512,0.510265180450485
11800.0000000254,138.711384056463,1.00000000026953,0.512500632590227
11900.0000000258,146.526268246832,1.00000000026829,0.514070603254461
12000.0000000261,154.521147058867,1.00000000026184,0.516126972895039
12100.0000000265,162.71278131172,1.00000000027513,0.517946832351211
12200.0000000269,171.10469909002,1.00000000027408,0.519184900654447
12300.0000000272,179.655768648416,1.00000000026819,0.521104200493373
12400.0000000276,188.40078018252,1.00000000027587,0.522473181338314
12500.0000000279,197.301992736718,1.00000000026564,0.523814555384854
12600.0000000283,206.359006882891,1.00000000026633,0.525508104975187
12700.0000000287,215.587065558364,1.00000000026609,0.526545018494034
12800.000000029,224.940953834502,1.00000000026781,0.527773394514245
12900.0000000294,234.446205067061,1.0000000002682,0.529086370429823
13000.0000000298,244.080247584999,1.00000000026658,0.529941570690325
13100.0000000301,253.826847264578,1.00000000026133,0.531158599139393
13200.0000000305,263.707875885044,1.00000000027235,0.532034039061393
13300.0000000309,273.681645896538,1.00000000026309,0.532944909672122
13400.0000000312,283.760854964318,1.00000000025918,0.533973120172551
13500.0000000316,293.936823580843,1.00000000026278,0.534630654288711
13600.0000000319,304.184738829235,1.00000000025995,0.535437539924937
13700.0000000323,314.526121379655,1.00000000026199,0.536145924007401
13800.0000000327,324.926380173976,1.00000000026764,0.536615775846919
13900.000000033,335.387923619026,1.00000000025957,0.537539857660288
14000.0000000334,345.912842564147,1.00000000026253,0.538060518017067
14100.0000000338,356.470916666437,1.00000000026138,0.538487430817098
14200.0000000341,367.07891675698,1.00000000025505,0.538991736692069
14300.0000000345,377.714139240573,1.00000000024579,0.53938700486999
14400.0000000349,388.369440666803,1.00000000024409,0.539900911863334
14500.0000000352,399.052216533487,1.00000000025307,0.54045727399573
14600.0000000356,409.734633415439,1.00000000024903,0.540585244920268
14700.0000000359,420.426586718152,1.00000000024208,0.540678054662394
14800.0000000363,431.11305241567,1.00000000024833,0.541086432803046
14900.0000000367,441.784563943928,1.00000000024154,0.541476408216878
15000.000000037,452.448845070964,1.00000000024253,0.541626414078069
15100.0000000374,463.081797058687,1.00000000024071,0.541871326519475
15200.0000000378,473.688873080584,1.00000000024171,0.541912005518251
15300.0000000381,484.261224079912,1.00000000024199,0.541718759772644
15400.0000000385,494.785155808769,1.00000000023438,0.542116659443207
15500.0000000389,505.271895570982,1.000000000238,0.542450660887753
15600.0000000392,515.699990384593,1.00000000023741,0.542425299003581
15700.0000000396,526.069227934002,1.00000000023082,0.542362175456598
15800.0000000399,536.379251476226,1.00000000023522,0.542115705819698
15900.0000000403,546.613979479437,1.00000000023071,0.542223539262064
16000.0000000407,556.781436798332,1.00000000022951,0.542279908334069
16100.000000041,566.868087552485,1.00000000022945,0.542469336731596
16200.0000000414,576.870306372246,1.00000000022453,0.542379183504225
16300.0000000418,586.789262179669,1.00000000023071,0.542044944879855
16400.0000000418,596.611984475855,1.0000000002272,0.542030013594649
16500.0000000404,606.34312936464,1.00000000022344,0.541847160323688
16600.0000000389,615.974257458045,1.00000000022314,0.541906174255263
16700.0000000375,625.499436507813,1.00000000022127,0.541707454976988
16800.000000036,634.92452238006,1.00000000022226,0.542032391647937
16900.0000000346,644.23461213967,1.00000000021937,0.541442881635879
17000.0000000331,653.434558400991,1.00000000021895,0.541594240213471
17100.0000000317,662.518614270922,1.00000000021365,0.540879202801989
17200.0000000302,671.481291712595,1.00000000022107,0.541092458093634
17300.0000000287,680.326575935564,1.00000000020888,0.540508502026514
17400.0000000273,689.044832147647,1.00000000022112,0.540643575375892
17500.0000000258,697.635823667347,1.00000000020454,0.540421574283203
17600.0000000244,706.098738916892,1.00000000020877,0.540306623357453
17700.0000000229,714.426323122539,1.00000000020844,0.539698046764981
17800.0000000215,722.624203740594,1.00000000020506,0.539587282728367
17900.00000002,730.683965462145,1.00000000020064,0.539164816067117
18000.0000000186,738.60552218743,1.00000000019482,0.539103152619163
18100.0000000171,746.388540604614,1.0000000001995,0.538661017774559
18200.0000000156,754.027857041699,1.00000000019593,0.538688000497021
18300.0000000142,761.526910935409,1.00000000020139,0.538357146917755
18400.0000000127,768.88110685883,1.00000000019259,0.538118447602546
18500.0000000113,776.088978301275,1.00000000019999,0.53755137739629
18600.0000000098,783.151834506195,1.00000000019386,0.537278198906644
18700.0000000084,790.065488869955,1.0000000001926,0.536878063905963
18800.0000000069,796.831588894528,1.00000000019134,0.536672219973592
18900.0000000055,803.44923118145,1.00000000019117,0.536515684914301
19000.000000004,809.915462160624,1.00000000018909,0.53625512798172
19100.0000000026,816.233833783908,1.00000000019104,0.536166649123464
19200.0000000011,822.399813362586,1.00000000018468,0.535531809037046
19299.9999999996,828.41520522044,1.00000000018685,0.535298264895774
19399.9999999982,834.279717805914,1.00000000018248,0.534709931051829
19499.9999999967,839.991414014136,1.00000000018256,0.534458548380588
19599.9999999953,845.553993314949,1.00000000018373,0.534258897094379
19699.9999999938,850.964332425022,1.0000000001798,0.534153582122887
19799.9999999924,856.224130490904,1.00000000017674,0.534178879354283
19899.9999999909,861.333303205627,1.00000000017725,0.533661983772171
19999.9999999895,866.290718443856,1.00000000017653,0.533224871938322
20099.999999988,871.099487417251,1.00000000017324,0.532594843342909
20199.9999999865,875.757900368335,1.00000000016903,0.532166938514516
20299.9999999851,880.266972736588,1.00000000017302,0.531822619447324
20399.9999999836,884.627600993833,1.00000000017223,0.531916686701994
20499.9999999822,888.840630744577,1.00000000017118,0.532299948961373
20599.9999999807,892.908639859877,1.00000000016436,0.532280903572587
20699.9999999793,896.831671189631,1.00000000016868,0.532099873673494
20799.9999999778,900.609270167324,1.00000000016262,0.531230448862996
20899.9999999764,904.24306387168,1.00000000016352,0.530153031105522
20999.9999999749,907.732787807652,1.00000000015919,0.529057179177744
21099.9999999734,911.079191704304,1.00000000016286,0.528333672012641
21199.999999972,914.283617360612,1.00000000016152,0.528834975588932
21299.9999999705,917.347417327516,1.00000000015688,0.529707812616054
21399.9999999691,920.274199556541,1.00000000015788,0.531121096645291
21499.9999999676,923.066689699151,1.00000000015381,0.532024930055884
21599.9999999662,925.726464825656,1.00000000015721,0.531744354634126
21699.9999999647,928.255403636278,1.00000000015439,0.530400692019386
21799.9999999633,930.652785198963,1.00000000015262,0.527814344980178
21899.9999999618,932.916854992861,1.0000000001479,0.52540517367798
21999.9999999603,935.047709540922,1.00000000014312,0.523608400566121
22099.9999999589,937.043568196851,1.00000000014733,0.523768241398202
22199.9999999574,938.908774568112,1.00000000015307,0.526111438614721
22299.999999956,940.647708821013,1.00000000015379,0.529441745513689
22399.9999999545,942.267998546865,1.00000000014716,0.532875572789566
22499.9999999531,943.775810298321,1.00000000015751,0.534540922611486
22599.9999999516,945.174467255412,1.00000000015877,0.534055771060844
22699.9999999502,946.464815269007,1.00000000015417,0.530834323138426
22799.9999999487,947.643524346575,1.00000000015362,0.525535992680635
22899.9999999473,948.704846437873,1.00000000013762,0.520253816431745
22999.9999999458,949.643689560457,1.00000000013269,0.516534512449757
23099.9999999443,950.456175714474,1.00000000012679,0.516539161102474
23199.9999999429,951.147178214248,1.00000000013293,0.520591536300597
23299.9999999414,951.725084334614,1.00000000014104,0.526924307740756
23399.99999994,952.203156706021,1.00000000014622,0.533796762679572
23499.9999999385,952.594451996019,1.0000000001535,0.538566279147376
23599.9999999371,952.907242463146,1.0000000001528,0.539932195911398
23699.9999999356,953.144933337667,1.00000000016,0.536825088188663
23799.9999999342,953.302922139011,1.00000000015388,0.529591730304311
23899.9999999327,953.371070976051,1.00000000013882,0.520183210037904
23999.9999999312,953.337226522632,1.00000000012375,0.510552659443036
24099.9999999298,953.190332111192,1.00000000011633,0.504955587543421
24199.9999999283,952.928214202594,1.00000000011237,0.505848103686252
24299.9999999269,952.557025799799,1.00000000011725,0.512727885552097
24399.9999999254,952.09167825728,1.00000000013342,0.523791444159109
24499.999999924,951.552028114834,1.00000000015143,0.534539844801706
24599.9999999225,950.956435777342,1.00000000016223,0.542632231492726
24699.9999999211,950.318784750055,1.00000000017434,0.54588695812411
24799.9999999196,949.64408977602,1.000000000166,0.543447838362621
24899.9999999181,948.92709349753,1.000000000161,0.535173286841143
24999.9999999167,948.15519484413,1.00000000014544,0.522253672559024
25099.9999999152,947.310464191898,1.00000000012603,0.506651869794961
25199.9999999138,946.374768318658,1.00000000010894,0.493702838265663
25299.9999999123,945.338252352029,1.00000000009841,0.487703236364245
25399.9999999109,944.199298005461,1.00000000010248,0.4911287015743
25499.9999999094,942.970669753824,1.00000000011559,0.504229282720374
25599.999999908,941.67273380785,1.0000000001316,0.520696232371968
25699.9999999065,940.329610903369,1.00000000015041,0.535652356255833
25799.9999999051,938.962511730848,1.00000000016991,0.546362241081921
25899.9999999036,937.586938799847,1.00000000018296,0.551255108593678
25999.9999999021,936.207928214353,1.00000000018443,0.549181823365538
26099.9999999007,934.821425984022,1.0000000001753,0.541246761905722
26199.9999998992,933.414325481252,1.00000000015708,0.52639863887402
26299.9999998978,931.96581804636,1.00000000013472,0.506608355773252
26399.9999998963,930.453895649004,1.00000000010888,0.486237703883102
26499.9999998949,928.860863982957,1.00000000009339,0.47115422055083
26599.9999998934,927.179427095777,1.00000000008319,0.467089044474466
26699.999999892,925.413356888194,1.00000000008841,0.476791150932582
26799.9999998905,923.58061447849,1.00000000011111,0.496299226341382
26899.999999889,921.702877609357,1.00000000014003,0.518124246816983
26999.9999998876,919.805502493717,1.00000000016197,0.536832782854793
27099.9999998861,917.909335360336,1.00000000018452,0.548893370603669
27199.9999998847,916.028713986864,1.00000000020025,0.555492016710123
27299.9999998832,914.170325917851,1.00000000019777,0.554759846539746
27399.9999998818,912.33030107423,1.00000000019273,0.548353457987216
27499.9999998803,910.498298369928,1.00000000017599,0.534504655463893
27599.9999998789,908.654329210743,1.0000000001477,0.51362214109924
27699.9999998774,906.77672229927,1.00000000012221,0.489118963771861
27799.9999998759,904.844910270163,1.00000000009395,0.464452528324031
27899.9999998745,902.843711944713,1.00000000007736,0.449097933114772
27999.999999873,900.76929731208,1.00000000007094,0.447401930915297
28099.9999998716,898.630226994704,1.0000000000849,0.461620929759706
28199.9999998701,896.44186804419,1.00000000010853,0.486188420532556
28299.9999998687,894.227673941767,1.00000000013567,0.51254911449038
28399.9999998672,892.008695287684,1.00000000017007,0.533330080704673
28499.9999998658,889.804369667022,1.00000000019754,0.548422472877194
28599.9999998643,887.627641440723,1.00000000020156,0.555297972168448
28699.9999998629,885.48536569993,1.00000000021587,0.557865417935375
28799.9999998614,883.377666890377,1.00000000020886,0.554062248311975
