Time,AGPnorm,Energy,Entropy
0,0,1,-1.57501803104236e-18
99.9999999999986,0.012241136356014,1.00000000000182,0.0306506628049274
199.999999999993,0.0312220754557704,1.00000000000143,0.0912102688458475
300,0.0588556282680778,1.00000000001947,0.189196634140062
400.000000000022,0.0971026676442146,1.00000000088189,0.345873896569994
500.000000000045,0.306340047745934,1.00000000277849,0.483468297409002
600.000000000068,1.16491410513036,1.00000000417921,0.55758407163774
700.000000000091,2.83899645773917,1.00000000419149,0.588481923963759
800.000000000113,4.9762974698408,1.00000000395475,0.59943296030773
900.000000000136,7.27570726260988,1.00000000395945,0.594276664823422
1000.00000000016,9.2782760133037,1.00000000361001,0.585838435045327
1100.0000000001,10.877699909942,1.00000000326888,0.572973797559945
1200,11.9330881995144,1.00000000274176,0.563456120326514
1299.99999999991,12.5012677763838,1.00000000256194,0.551965798418261
1399.99999999982,12.6729900257524,1.00000000260428,0.553089876524974
1499.99999999973,12.5433450578496,1.00000000323462,0.581181768378864
1599.99999999964,12.220625313693,1.00000000238652,0.516046893692389
1699.99999999955,11.8529454189437,1.00000000225052,0.493090729054719
1799.99999999946,11.3882180827144,1.00000000323277,0.561579185730299
1899.99999999937,10.9574324054041,1.00000000193096,0.446776391314324
1999.99999999928,10.4833575417781,1.00000000314294,0.524922490918975
2099.99999999919,10.0602884973031,1.00000000256616,0.501761304742651
2199.99999999909,9.64904456341705,1.00000000234057,0.458187164502433
2299.999999999,9.24311367980259,1.00000000334478,0.546523894677708
2399.99999999891,8.87668187186188,1.00000000265067,0.510014315389616
2499.99999999882,8.56202328879652,1.00000000230902,0.445152320064467
2599.99999999873,8.25057221046964,1.00000000271707,0.524068346429651
2699.99999999864,7.9567973552607,1.00000000338823,0.548749810759608
2799.99999999855,7.68201177037379,1.00000000252991,0.515077645472938
2899.99999999846,7.48458411127191,1.00000000191321,0.442329277415202
2999.99999999837,7.2926844504499,1.00000000309468,0.528780739972189
3099.99999999828,7.10444303371422,1.0000000025609,0.534381371917668
3199.99999999819,6.91753022334506,1.00000000285481,0.562167759840617
3299.99999999809,6.72754458628388,1.00000000350505,0.561541863840917
3399.999999998,6.57636805059338,1.00000000205247,0.486131548263857
3499.99999999791,6.50864842630258,1.0000000024249,0.482758945279377
3599.99999999782,6.439670844408,1.000000003069,0.5413499058955
3699.99999999773,6.36366795922894,1.00000000258264,0.561352333331699
3799.99999999764,6.2841577791905,1.00000000295522,0.569731298290375
3899.99999999755,6.18387265739782,1.00000000289718,0.599724549679796
3999.99999999746,6.08236742808043,1.00000000306806,0.589200110300045
4099.99999999738,5.97112515546871,1.00000000350189,0.591463222227204
4199.99999999775,5.86714791553449,1.00000000259565,0.553624335053218
4299.99999999811,5.84217693502512,1.00000000196531,0.481089073740682
4399.99999999848,5.88438680506414,1.00000000274197,0.519190005739167
4499.99999999884,5.90818654694707,1.00000000296848,0.552133728784894
4599.9999999992,5.924893282612,1.00000000293682,0.585384666447033
4699.99999999957,5.92110503369944,1.00000000334504,0.600294671482153
4799.99999999993,5.90374197016246,1.00000000301088,0.604299512310233
4900.00000000029,5.89200249042731,1.00000000292708,0.609176137316851
5000.00000000066,5.86474259570695,1.00000000302248,0.607959120068027
5100.00000000102,5.82036265369529,1.00000000325425,0.61530583458594
5200.00000000139,5.76352606404773,1.00000000279323,0.623863919069866
5300.00000000175,5.70385146674502,1.00000000295781,0.625869264285816
5400.00000000211,5.63779897603083,1.00000000337274,0.628334798020786
5500.00000000248,5.56681128875779,1.00000000349128,0.615023101712083
5600.00000000284,5.50316142304437,1.00000000272017,0.572438465232373
5700.00000000321,5.50037773522298,1.0000000021214,0.517684930724616
5800.00000000357,5.5822086928459,1.00000000250521,0.517146289440781
5900.00000000393,5.6893732573908,1.00000000317452,0.544667044994008
6000.0000000043,5.77930082866883,1.00000000316783,0.571629697861149
6100.00000000466,5.85973106937306,1.00000000306716,0.587519723996886
6200.00000000502,5.92218384320745,1.00000000324485,0.608069146399496
6300.00000000539,5.96885869644684,1.0000000033302,0.629311949872896
6400.00000000575,5.99565745980589,1.00000000310046,0.62741916155186
6500.00000000612,6.0128336546333,1.0000000030397,0.637701212242623
6600.00000000648,6.01712770380441,1.00000000335804,0.644371473737057
6700.00000000684,6.01461084952387,1.00000000322513,0.642576979643388
6800.00000000721,6.02087717529248,1.00000000303462,0.636629736611515
6900.00000000757,6.02785488848142,1.00000000314271,0.630907900783782
7000.00000000793,6.02136307877242,1.00000000347222,0.620357404491067
7100.0000000083,6.01121706322734,1.00000000300079,0.638919039926513
7200.00000000866,6.00209501824922,1.0000000031905,0.646499750706899
7300.00000000903,5.98672688954896,1.00000000332372,0.661449851271939
7400.00000000939,5.96858787485383,1.0000000033602,0.647550802597909
7500.00000000975,5.95182645372712,1.00000000328447,0.632309321688439
7600.00000001012,5.92801346793256,1.00000000354754,0.654064906615833
7700.00000001048,5.89034755769876,1.00000000352213,0.662123353475459
7800.00000001084,5.84378563279148,1.00000000355186,0.669519312923017
7900.00000001121,5.79510108325618,1.00000000305294,0.66753592241889
8000.00000001157,5.74571784792741,1.0000000036436,0.673063554336757
8100.00000001194,5.6958278471851,1.00000000373119,0.679380702746853
8200.0000000123,5.64709090981092,1.00000000385543,0.681617256771364
8300.00000001266,5.59668052874259,1.00000000389205,0.643599432481779
8400.00000001303,5.5488440747686,1.00000000324034,0.600477428188285
8500.00000001339,5.53508158081875,1.00000000276201,0.564494576592345
8600.00000001376,5.58810190838623,1.00000000253237,0.541434294069136
8700.00000001412,5.71281552661241,1.00000000276169,0.541137200488139
8800.00000001448,5.8715122655205,1.00000000344345,0.555307045757422
8900.00000001485,6.0289454281424,1.00000000372607,0.567497699998875
9000.00000001521,6.17677057745,1.00000000353586,0.573696402185956
9100.00000001557,6.31192484727284,1.00000000360465,0.584334509612255
9200.00000001594,6.44163196789079,1.000000003578,0.596950941806107
9300.0000000163,6.55254191222987,1.00000000388284,0.617460890338822
9400.00000001667,6.65498358648779,1.00000000357355,0.626580668887036
9500.00000001703,6.73903372082184,1.00000000367808,0.648095942694044
9600.00000001739,6.81002675467205,1.00000000351441,0.643988662384644
9700.00000001776,6.87148989060976,1.00000000362204,0.641244403463305
9800.00000001812,6.92290543242323,1.00000000351928,0.64962006845124
9900.00000001848,6.96076422821542,1.00000000371722,0.676495894769946
10000.0000000188,7.0036240050358,1.00000000345863,0.660690494668915
10100.0000000192,7.0441365524248,1.00000000387624,0.657228180082466
10200.0000000196,7.07573993369322,1.00000000407204,0.676047710153468
10300.0000000199,7.09505319051674,1.00000000346262,0.677004342345587
10400.0000000203,7.11581661294869,1.00000000324027,0.670753023621709
10500.0000000207,7.12470633487495,1.00000000425253,0.68145019938389
10600.000000021,7.1298298540473,1.00000000372826,0.675916374226677
10700.0000000214,7.12711672567596,1.00000000390096,0.669065858346497
10800.0000000218,7.12219218393669,1.00000000374821,0.67884920236049
10900.0000000221,7.11551662641858,1.00000000372794,0.680719370072448
11000.0000000225,7.10564120545153,1.00000000359608,0.682456321599049
11100.0000000229,7.10072199730906,1.00000000374077,0.660064854915881
11200.0000000232,7.10581448103104,1.00000000370155,0.64904052183506
11300.0000000236,7.12571764722931,1.00000000404134,0.641368448248724
11400.0000000239,7.1556497879694,1.00000000387556,0.642959723898259
11500.0000000243,7.19103121918472,1.00000000400158,0.648206561530435
11600.0000000247,7.21398934036995,1.00000000377257,0.651855160991249
11700.000000025,7.23375637392293,1.0000000038768,0.654217544117093
11800.0000000254,7.2493259615056,1.00000000373712,0.665024244461516
11900.0000000258,7.27008280705357,1.000000003772,0.664280252453243
12000.0000000261,7.2848006246442,1.00000000401501,0.661697034649287
12100.0000000265,7.30228109551127,1.00000000412962,0.670624151718061
12200.0000000269,7.31974788096327,1.00000000382538,0.677000023458214
12300.0000000272,7.3325887061191,1.00000000413364,0.678976681081519
12400.0000000276,7.33831352928199,1.0000000039543,0.676532451147321
12500.0000000279,7.35065463498792,1.00000000335921,0.659942249612103
12600.0000000283,7.3672504730992,1.00000000377123,0.671152311451402
12700.0000000287,7.39067351126999,1.00000000411453,0.665853922366264
12800.000000029,7.41093626075334,1.00000000416062,0.665865172253844
12900.0000000294,7.42465599348277,1.0000000039659,0.677933383988817
13000.0000000298,7.43918465048838,1.00000000413448,0.698158029340495
13100.0000000301,7.45667851430492,1.00000000353777,0.693083808391385
13200.0000000305,7.47435110864867,1.00000000386413,0.681621949903453
13300.0000000309,7.49409764129029,1.00000000424004,0.67281948904647
13400.0000000312,7.5118134034702,1.00000000459903,0.69788464112056
13500.0000000316,7.5258743818587,1.0000000039968,0.688486728437754
13600.0000000319,7.53923512495963,1.00000000415384,0.696153022049906
13700.0000000323,7.54945362063142,1.00000000414043,0.677696266658175
13800.0000000327,7.56315886711571,1.000000004181,0.703566506936875
13900.000000033,7.57994110432562,1.00000000374943,0.682252417620516
14000.0000000334,7.58731263791626,1.00000000429988,0.687666274287267
14100.0000000338,7.58990793013825,1.000000003834,0.681128016923481
14200.0000000341,7.59271979479217,1.0000000041863,0.695967724763187
14300.0000000345,7.59388484204319,1.00000000428107,0.685675832741522
14400.0000000349,7.59757382094837,1.00000000431647,0.674415081173739
14500.0000000352,7.60097113053439,1.00000000429153,0.687850236099717
14600.0000000356,7.59972912728443,1.00000000391581,0.682436997755593
14700.0000000359,7.5952947516467,1.0000000043578,0.684274242561495
14800.0000000363,7.5897021658172,1.00000000430789,0.700281013077477
14900.0000000367,7.58506365792063,1.00000000411454,0.676136570194923
15000.000000037,7.57740619686965,1.00000000443682,0.684421645599346
15100.0000000374,7.56368264050093,1.00000000386787,0.681044725457675
15200.0000000378,7.54809454004992,1.0000000041604,0.700673185974283
15300.0000000381,7.52746621528715,1.00000000442364,0.690775257044775
15400.0000000385,7.50140716837207,1.00000000459193,0.682710945353554
15500.0000000389,7.46973234359162,1.00000000460289,0.689963658509879
15600.0000000392,7.43729719383854,1.00000000429003,0.69302397422596
15700.0000000396,7.40103189599509,1.00000000442334,0.697252227786919
15800.0000000399,7.36526601079483,1.0000000043016,0.684633623762364
15900.0000000403,7.32974291390307,1.00000000423661,0.691074755256026
16000.0000000407,7.2958647685147,1.00000000451574,0.689831898100318
16100.000000041,7.26445804870981,1.00000000435279,0.699594921468158
16200.0000000414,7.23430183333667,1.00000000438378,0.701046862131114
16300.0000000418,7.20850705801777,1.00000000501052,0.703056773360573
16400.0000000418,7.18356926409762,1.00000000485025,0.699537303385893
16500.0000000404,7.16293093337025,1.00000000489242,0.689012693170013
16600.0000000389,7.13879026461153,1.00000000520848,0.682534756899161
16700.0000000375,7.11790813084021,1.00000000500536,0.657481376246145
16800.000000036,7.09381005885481,1.00000000449977,0.643777014201168
16900.0000000346,7.0820251866091,1.00000000456866,0.6240738017119
17000.0000000331,7.09494748570318,1.00000000395491,0.611333552696504
17100.0000000317,7.15453823160611,1.00000000360233,0.599124894481849
17200.0000000302,7.27154419856071,1.00000000384994,0.583989858098796
17300.0000000287,7.45731462612183,1.00000000398074,0.58993224535235
17400.0000000273,7.69204947823268,1.00000000435658,0.587003334236299
17500.0000000258,7.98179876728141,1.00000000450147,0.590210554632668
17600.0000000244,8.27600321166306,1.00000000501218,0.59488012329258
17700.0000000229,8.59977296664197,1.00000000486938,0.606029281960321
17800.0000000215,8.90473292888304,1.00000000511443,0.606039288718609
17900.00000002,9.22182762668059,1.00000000507649,0.612673544066449
18000.0000000186,9.52053062620758,1.0000000048886,0.613464837614091
18100.0000000171,9.82684571933082,1.00000000492994,0.612595299233038
18200.0000000156,10.1332727411181,1.00000000448591,0.61568541513458
18300.0000000142,10.434782496842,1.00000000458956,0.620520455503263
18400.0000000127,10.7509231116421,1.00000000489368,0.623372399067512
18500.0000000113,11.0576738612531,1.00000000486902,0.643401110195835
18600.0000000098,11.3750465526905,1.00000000473322,0.639925217417663
18700.0000000084,11.6785734948778,1.00000000511009,0.66272200984087
18800.0000000069,11.9725720161247,1.00000000503627,0.660274460078056
18900.0000000055,12.2614855044524,1.00000000492243,0.673254842754051
19000.000000004,12.5195545751988,1.00000000514513,0.681050589689121
19100.0000000026,12.7873411096204,1.00000000493079,0.690705224132146
19200.0000000011,13.0262383274022,1.00000000543776,0.68453188554978
19299.9999999996,13.2640275823283,1.00000000486753,0.694839722514135
19399.9999999982,13.4886231827167,1.00000000490183,0.691643962514587
19499.9999999967,13.7109290227438,1.00000000492513,0.677036172183721
19599.9999999953,13.9283120784001,1.00000000482795,0.688609562305695
19699.9999999938,14.1328193450344,1.00000000475646,0.693393663391503
19799.9999999924,14.3433143195444,1.00000000482674,0.6996012012409
19899.9999999909,14.5434253043485,1.00000000521559,0.690145456361459
19999.9999999895,14.7464983548387,1.00000000482565,0.688254230882352
20099.999999988,14.9454725508879,1.00000000489176,0.706157516070779
20199.9999999865,15.1483822475154,1.00000000476273,0.69722772251338
20299.9999999851,15.3462487278275,1.00000000523773,0.69481003528689
20399.9999999836,15.532074017427,1.00000000474544,0.693208373296574
20499.9999999822,15.7053694094052,1.00000000525466,0.71891611973263
20599.9999999807,15.8655882568526,1.00000000550923,0.716498001814862
20699.9999999793,16.0314263010218,1.00000000512725,0.712601726448012
20799.9999999778,16.2027048919083,1.00000000523135,0.710361022767711
20899.9999999764,16.3818558603649,1.00000000498435,0.693520935771294
20999.9999999749,16.5473175804104,1.00000000555115,0.716145672354732
21099.9999999734,16.693438912904,1.0000000057506,0.708327266761062
21199.999999972,16.8361502212808,1.00000000517453,0.716772083785592
21299.9999999705,16.9736658372762,1.00000000540661,0.708070964020798
21399.9999999691,17.1240799793592,1.00000000545769,0.701890838001886
21499.9999999676,17.2754567972183,1.00000000606907,0.717148444675972
21599.9999999662,17.4230268592753,1.00000000511101,0.703588227000919
21699.9999999647,17.5686451106094,1.00000000527359,0.709040751102318
21799.9999999633,17.7136884317452,1.00000000525453,0.701308582689617
21899.9999999618,17.8695406212183,1.00000000475644,0.703557601193096
21999.9999999603,18.0342774214443,1.00000000515364,0.707854398782272
22099.9999999589,18.2006421241568,1.00000000530567,0.700830960084332
22199.9999999574,18.360979899482,1.00000000526778,0.71552850722188
22299.999999956,18.5200508862893,1.00000000531524,0.702525625901516
22399.9999999545,18.6820532624856,1.00000000551634,0.711597705490196
22499.9999999531,18.8420724567182,1.00000000508217,0.705330378821928
22599.9999999516,19.0051482886027,1.00000000574094,0.698534920150567
22699.9999999502,19.1661483824111,1.00000000481215,0.716283366566809
22799.9999999487,19.3259202118211,1.00000000559432,0.715388094846706
22899.9999999473,19.4877316966159,1.00000000537324,0.708127078209165
22999.9999999458,19.6552805333503,1.0000000055049,0.696020566177604
23099.9999999443,19.8303254886702,1.00000000569582,0.702612146151588
23199.9999999429,20.0036992417986,1.00000000534169,0.694150743609665
23299.9999999414,20.1816617464828,1.00000000568924,0.712734579912169
23399.99999994,20.3503292333703,1.00000000558231,0.700585801559373
23499.9999999385,20.5314561077816,1.00000000503336,0.67860779210476
23599.9999999371,20.7181903616084,1.0000000057878,0.713544325337477
23699.9999999356,20.8891082315335,1.0000000062295,0.721216712442465
23799.9999999342,21.0526518836057,1.00000000550456,0.705615558364153
23899.9999999327,21.2236265471711,1.00000000583489,0.704224839034968
23999.9999999312,21.4041858465201,1.00000000573192,0.706348391845529
24099.9999999298,21.580052114768,1.00000000610467,0.707771091569219
24199.9999999283,21.7525976405281,1.00000000561087,0.699853919955988
24299.9999999269,21.9382359155078,1.00000000559798,0.715902947178893
24399.9999999254,22.1193957820628,1.00000000535173,0.721833351585503
24499.999999924,22.3032401641958,1.00000000505878,0.693182751994202
24599.9999999225,22.5015003618321,1.00000000572327,0.692749892510513
24699.9999999211,22.7036677359255,1.00000000602668,0.716469044516322
24799.9999999196,22.890548145928,1.00000000593551,0.715340677252195
24899.9999999181,23.0682141919703,1.00000000605974,0.709603577194923
24999.9999999167,23.2504496166642,1.00000000591718,0.711442005903086
25099.9999999152,23.4453431436659,1.00000000616384,0.714045196461339
25199.9999999138,23.6529358312059,1.00000000532145,0.710383328541754
25299.9999999123,23.8744074322148,1.00000000528812,0.709588380381192
25399.9999999109,24.1028666969431,1.00000000494289,0.718424550645443
25499.9999999094,24.346111794947,1.00000000600421,0.715650378378096
25599.999999908,24.5896477203328,1.00000000638134,0.710523443662044
25699.9999999065,24.8248999526289,1.00000000597198,0.716038261227318
25799.9999999051,25.0492531423706,1.00000000597224,0.716758153817932
25899.9999999036,25.2826040452041,1.00000000615806,0.7190417171676
25999.9999999021,25.5186014972256,1.00000000581731,0.720003515033607
26099.9999999007,25.7562310655301,1.00000000572648,0.719425597704036
26199.9999998992,26.0065350240791,1.0000000056414,0.715137956149336
26299.9999998978,26.2753503665287,1.00000000596212,0.704363107200777
26399.9999998963,26.5653373321313,1.00000000579568,0.714607856277785
26499.9999998949,26.8559967733493,1.0000000059473,0.718664874003259
26599.9999998934,27.1326324778134,1.00000000662439,0.715420427980967
26699.999999892,27.4014823524436,1.00000000583128,0.719904428261285
26799.9999998905,27.6750710536834,1.00000000606919,0.714816050102554
26899.999999889,27.9557224424141,1.00000000613691,0.720410797321482
26999.9999998876,28.232333438753,1.00000000625008,0.721307012648595
27099.9999998861,28.5023120536778,1.00000000592412,0.724704098199823
27199.9999998847,28.7728012772237,1.00000000654075,0.721424308260736
27299.9999998832,29.0479922721827,1.00000000610655,0.723174337219414
27399.9999998818,29.322636346361,1.00000000667201,0.710415812116624
27499.9999998803,29.6007065570364,1.00000000603398,0.708021548153802
27599.9999998789,29.8748495604058,1.00000000685151,0.706433249245316
27699.9999998774,30.1428024051721,1.00000000667069,0.714034577422921
27799.9999998759,30.4057921650945,1.00000000643163,0.719396007565037
27899.9999998745,30.6883122561066,1.00000000602175,0.698644490717012
27999.999999873,30.9878912241213,1.00000000678301,0.718232916981419
28099.9999998716,31.2882789968677,1.00000000584968,0.719601420546256
28199.9999998701,31.5813398625226,1.00000000624669,0.727902832162204
28299.9999998687,31.8693271289521,1.00000000627669,0.731202168803768
28399.9999998672,32.1515115888243,1.00000000596555,0.713883615991505
28499.9999998658,32.429345718922,1.00000000689402,0.720969834559297
28599.9999998643,32.7060707469137,1.000000006577,0.714389391196462
28699.9999998629,33.001156060504,1.00000000637006,0.716288193168991
28799.9999998614,33.3146677000465,1.00000000645859,0.715954670477213
28899.9999998599,33.6349644561445,1.00000000678122,0.7261748978805
28999.9999998585,33.962288203546,1.00000000673297,0.71856938189321
29099.999999857,34.2945012607751,1.0000000066164,0.723346299841401
