Time,AGPnorm,Energy,Entropy
0,0,1,-1.21930421301454e-17
99.9999999999986,7.67670062083314e-06,0.999999999998083,0.000386718914437915
199.999999999993,0.000677449085153357,1.00000000000104,0.000609871571073422
300,0.00168826120113077,0.999999999998444,0.00106557319518931
400.000000000022,0.00236574846588832,0.999999999999479,0.0018645924474946
500.000000000045,0.00284466445968236,1.00000000000046,0.00246651725842433
600.000000000068,0.00406851348417775,0.999999999997916,0.00350060338233772
700.000000000091,0.00501191389339211,1.00000000000084,0.00450136095771931
800.000000000113,0.00652708105711083,0.999999999998942,0.00551523199540894
900.000000000136,0.00818338629456839,0.999999999998937,0.00687379894056884
1000.00000000016,0.00942119260193744,1.00000000000077,0.0080477117422468
1100.0000000001,0.0113869387867121,0.99999999999796,0.00949625863054158
1200,0.0134312208325061,1.00000000000048,0.011010119585535
1299.99999999991,0.0156159684100122,0.999999999999474,0.0124365565143758
1399.99999999982,0.0179284409728854,0.999999999998468,0.0142012991535196
1499.99999999973,0.0199892555966753,1.00000000000091,0.0158202355036879
1599.99999999964,0.022784840079188,0.999999999998207,0.0175930079743945
1699.99999999955,0.0257150479991909,1.00000000000002,0.0195194147902099
1799.99999999946,0.028471821908505,0.99999999999995,0.0213046684076467
1899.99999999937,0.0314340859845987,0.999999999998142,0.023392679303406
1999.99999999928,0.0343593294694666,1.00000000000089,0.0253988376645528
2099.99999999919,0.0379111316978424,0.999999999998612,0.0274629424461909
2199.99999999909,0.0414924881097745,0.999999999999498,0.0297463397247733
2299.999999999,0.0447414415028694,1.00000000000031,0.0318694214061198
2399.99999999891,0.0483696124087943,0.99999999999802,0.0342368010857684
2499.99999999882,0.0521625883452888,1.00000000000073,0.0366077562298298
2599.99999999873,0.0562985095572943,0.999999999999083,0.0389596503135484
2699.99999999864,0.0603384436737793,0.999999999998965,0.0415677072058381
2799.99999999855,0.0640612915246319,1.00000000000055,0.0440254770541003
2899.99999999846,0.0683511583613867,0.999999999998122,0.0466645568283039
2999.99999999837,0.0728862473923792,1.00000000000044,0.0493991706844534
3099.99999999828,0.0774120398319661,0.999999999999524,0.0520531131477171
3199.99999999819,0.0818069471579973,0.999999999998512,0.0549719446261312
3299.99999999809,0.0860524064212485,1.00000000000067,0.0577790763823854
3399.999999998,0.0909347739576539,0.999999999998421,0.0607151505967458
3499.99999999791,0.0959618811618842,1.00000000000003,0.0638220609005728
3599.99999999782,0.100715877148553,0.999999999999869,0.0668117148756634
3699.99999999773,0.105429827956483,0.999999999998231,0.0700484701166078
3799.99999999764,0.11025916256282,1.00000000000069,0.0732484769517553
3899.99999999755,0.115570873633149,0.999999999998838,0.076528315953359
3999.99999999746,0.120836324786681,0.999999999999532,0.0800338765402233
4099.99999999738,0.125712686210711,1.00000000000012,0.0834144937229724
4199.99999999775,0.130767012334737,0.99999999999817,0.0870153377014584
4299.99999999811,0.136138836879921,1.00000000000057,0.0906831456315515
4399.99999999848,0.141678802208454,0.999999999999258,0.094378313486831
4499.99999999884,0.147007787627202,0.999999999999006,0.0983437097873327
4599.9999999992,0.151989602432326,1.00000000000031,0.102203543250837
4699.99999999957,0.157405150814917,0.999999999998318,0.106274264195196
4799.99999999993,0.163112569653551,1.00000000000035,0.110523268584825
4900.00000000029,0.168689837650864,0.99999999999958,0.114761253854522
5000.00000000066,0.173982671302605,0.999999999998607,0.119301014515195
5100.00000000102,0.179131671144837,1.00000000000046,0.12381147531276
5200.00000000139,0.184844971076777,0.999999999998679,0.128540483648041
5300.00000000175,0.190606993141045,1.0000000000001,0.133563803208972
5400.00000000211,0.196049743842687,0.999999999999889,0.13857462653742
5500.00000000248,0.201344611818265,0.99999999999857,0.143941321912399
5600.00000000284,0.206669449011694,1.00000000000075,0.149427579258518
5700.00000000321,0.212601345246229,0.999999999999507,0.155150071545611
5800.00000000357,0.218227923016798,1.00000000000021,0.161308005882158
5900.00000000393,0.223437347368683,1.00000000000097,0.167483607395543
6000.0000000043,0.229111274360231,0.999999999999933,0.17409330979737
6100.00000000466,0.234444133276247,1.00000000000272,0.180976347953353
6200.00000000502,0.24085747652331,1.00000000000276,0.18807356507667
6300.00000000539,0.246732135767232,1.00000000000373,0.195635464663574
6400.00000000575,0.251992881232612,1.00000000000657,0.20318637004019
6500.00000000612,0.259939646458292,1.00000000000731,0.211083064065043
6600.00000000648,0.266334076737619,1.00000000001148,0.219231121942882
6700.00000000684,0.275838322311038,1.0000000000137,0.227367562695724
6800.00000000721,0.286953703550707,1.00000000001697,0.235761682172809
6900.00000000757,0.297451334990983,1.00000000002268,0.24401515131608
7000.00000000793,0.317572458156712,1.00000000002521,0.252326271901257
7100.0000000083,0.337414066274922,1.00000000002998,0.260797990162269
7200.00000000866,0.366062746562544,1.00000000003692,0.268927857200126
7300.00000000903,0.407076161636677,1.00000000004006,0.27716041886903
7400.00000000939,0.451476741075495,1.00000000004671,0.285196484599603
7500.00000000975,0.521268147351184,1.00000000005369,0.293032588929744
7600.00000001012,0.602988198811802,1.00000000006228,0.300985970009608
7700.00000001048,0.706284379604463,1.00000000006693,0.308501190931494
7800.00000001084,0.847241680858577,1.00000000007493,0.31600168914826
7900.00000001121,1.00644495499518,1.00000000007774,0.323436208580977
8000.00000001157,1.21736557000191,1.00000000008554,0.330512857718238
8100.00000001194,1.47008821229042,1.00000000009717,0.337662890920054
8200.0000000123,1.76647116525058,1.00000000009791,0.344482049050589
8300.00000001266,2.14010408802125,1.00000000010384,0.35117337832647
8400.00000001303,2.5620066748912,1.00000000011313,0.357883035307262
8500.00000001339,3.06991445620408,1.00000000012138,0.364180945533749
8600.00000001376,3.6659249336662,1.00000000012847,0.37052460341575
8700.00000001412,4.33642883910737,1.00000000012483,0.376689791162297
8800.00000001448,5.13120397918463,1.00000000013713,0.382513691213236
8900.00000001485,6.01812438640483,1.00000000015234,0.388473187512891
9000.00000001521,7.02766553367919,1.00000000014664,0.394040229048388
9100.00000001557,8.17969822662477,1.00000000015498,0.39956934987967
9200.00000001594,9.44286438274912,1.00000000015945,0.405023844058233
9300.0000000163,10.8754608351839,1.00000000016779,0.410081586487661
9400.00000001667,12.45171659074,1.00000000018054,0.415276136319649
9500.00000001703,14.1836653820497,1.00000000017188,0.420188068720177
9600.00000001739,16.1097747976005,1.00000000017854,0.424906614431077
9700.00000001776,18.1853425185286,1.00000000018905,0.429705219744763
9800.00000001812,20.4661121075381,1.00000000018886,0.434047245710077
9900.00000001848,22.9405568258808,1.00000000019268,0.438534598010821
10000.0000000188,25.59611405975,1.00000000020514,0.442757918031851
10100.0000000192,28.4860056949088,1.00000000019898,0.446773035698555
10200.0000000196,31.5611413438707,1.0000000002027,0.451031461518019
10300.0000000199,34.8632644000965,1.00000000021604,0.454669548260054
10400.0000000203,38.3990358973315,1.00000000021013,0.4584585139844
10500.0000000207,42.1329952040085,1.00000000021849,0.462213377101486
10600.000000021,46.1242418703739,1.00000000021929,0.46554054938283
10700.0000000214,50.3298185727537,1.00000000021452,0.469199440044558
10800.0000000218,54.7688784465032,1.00000000022112,0.472343365891484
10900.0000000221,59.4659226725835,1.00000000022254,0.475437175022829
11000.0000000225,64.369989872042,1.00000000023161,0.478746732178378
11100.0000000229,69.5358721898705,1.00000000021875,0.481536797645318
11200.0000000232,74.9343202744608,1.00000000022929,0.484469529359307
11300.0000000236,80.5596100713087,1.00000000022817,0.487349045196451
11400.0000000239,86.4491062882429,1.00000000023268,0.489745374197495
11500.0000000243,92.5468354423635,1.00000000023816,0.492632077293362
11600.0000000247,98.8944130083098,1.00000000023844,0.494942579926835
11700.000000025,105.480194655408,1.00000000023306,0.497266860019355
11800.0000000254,112.275287735213,1.0000000002368,0.499878233461268
11900.0000000258,119.324385862171,1.00000000023959,0.501741076790083
12000.0000000261,126.575285056781,1.00000000024451,0.504040313504734
12100.0000000265,134.050698880917,1.00000000024351,0.506188520083827
12200.0000000269,141.756649895918,1.00000000024069,0.507797896961644
12300.0000000272,149.648012056936,1.00000000024249,0.51000454949823
12400.0000000276,157.768615529944,1.00000000024385,0.511727526506659
12500.0000000279,166.078207491914,1.0000000002524,0.513272285724879
12600.0000000283,174.577784803923,1.00000000024339,0.515178928358446
12700.0000000287,183.287817522851,1.00000000024905,0.516521156597987
12800.000000029,192.155693322433,1.00000000024518,0.518133618209136
12900.0000000294,201.216971501394,1.00000000024564,0.519691814006106
13000.0000000298,210.447549556661,1.00000000024933,0.520823316728101
13100.0000000301,219.830336714502,1.00000000024667,0.52229459951806
13200.0000000305,229.391782797334,1.00000000024451,0.523536659208222
13300.0000000309,239.083879415974,1.00000000025243,0.524633586679782
13400.0000000312,248.926802157285,1.00000000024136,0.525886969580783
13500.0000000316,258.913356012863,1.00000000024541,0.5267642267892
13600.0000000319,269.012693179735,1.00000000024203,0.527909657325522
13700.0000000323,279.252742236535,1.00000000023951,0.528923258633017
13800.0000000327,289.593264144106,1.00000000024015,0.529739374240811
13900.000000033,300.042179694916,1.00000000023994,0.530685132578366
14000.0000000334,310.602828942924,1.00000000023285,0.531381461609581
14100.0000000338,321.238594700998,1.0000000002432,0.532081456875021
14200.0000000341,331.973007863048,1.00000000024067,0.53300242961888
14300.0000000345,342.779245000681,1.00000000024348,0.533569695331244
14400.0000000349,353.649736926239,1.00000000023718,0.534140242141337
14500.0000000352,364.596789197512,1.00000000023543,0.534690028930849
14600.0000000356,375.584182362933,1.00000000022468,0.535298555038617
14700.0000000359,386.628160830498,1.00000000023284,0.535751130038571
14800.0000000363,397.712631084744,1.00000000023561,0.536425106209915
14900.0000000367,408.823162120223,1.00000000023194,0.536631276833225
15000.000000037,419.973440593462,1.00000000022381,0.536834134414214
15100.0000000374,431.131245795927,1.00000000023874,0.537356120614665
15200.0000000378,442.306983171891,1.00000000022337,0.537867030494117
15300.0000000381,453.492702237736,1.00000000022685,0.538002826230231
15400.0000000385,464.668944591365,1.00000000023065,0.538298859897954
15500.0000000389,475.850344534838,1.00000000022661,0.538440759958627
15600.0000000392,487.01014417221,1.00000000021789,0.53845535914225
15700.0000000396,498.150813069553,1.00000000021232,0.53896544055422
15800.0000000399,509.273589364083,1.00000000022517,0.539263304257346
15900.0000000403,520.355480411702,1.00000000021422,0.539376818810588
16000.0000000407,531.409011225249,1.00000000021824,0.539235504835102
16100.000000041,542.41545178335,1.00000000021578,0.539155849447088
16200.0000000414,553.371485296543,1.00000000021818,0.53937127171612
16300.0000000418,564.281891498745,1.00000000022038,0.53938042200473
16400.0000000418,575.125701778752,1.00000000021402,0.539723165019768
16500.0000000404,585.91116875789,1.00000000022005,0.539597749992094
16600.0000000389,596.627233018403,1.0000000002152,0.53944431429796
16700.0000000375,607.266848482339,1.0000000002125,0.539368031873104
16800.000000036,617.836147910073,1.00000000020953,0.539310822380377
16900.0000000346,628.317740518498,1.00000000020805,0.539345078241323
17000.0000000331,638.715201507565,1.00000000020855,0.539368395659436
17100.0000000317,649.025409114567,1.00000000020599,0.53950399215173
17200.0000000302,659.235946960021,1.00000000020734,0.539135879077492
17300.0000000287,669.357273065465,1.00000000020675,0.539089409763968
17400.0000000273,679.371030464443,1.00000000020351,0.538535392727307
17500.0000000258,689.281331747218,1.0000000002032,0.538750481592212
17600.0000000244,699.085556130608,1.00000000020261,0.538239311521379
17700.0000000229,708.773950528669,1.00000000020123,0.538428627810948
17800.0000000215,718.351868401702,1.00000000020136,0.538150410887682
17900.00000002,727.809238261638,1.00000000019796,0.538081872810696
18000.0000000186,737.144370402867,1.00000000019609,0.537677581147991
18100.0000000171,746.359728221748,1.00000000018664,0.537504111118229
18200.0000000156,755.445273912993,1.00000000019314,0.537067387024891
18300.0000000142,764.404765485711,1.00000000018541,0.536993212084145
18400.0000000127,773.232505452014,1.00000000018975,0.536560064583315
18500.0000000113,781.92508397649,1.00000000019199,0.536620091860793
18600.0000000098,790.487545691076,1.00000000018686,0.536504586987704
18700.0000000084,798.908710713397,1.00000000018821,0.53610469563813
18800.0000000069,807.192928800905,1.00000000018897,0.535859268068724
18900.0000000055,815.335662630429,1.00000000019011,0.535306739130853
19000.000000004,823.3349648719,1.00000000018142,0.535147367973486
19100.0000000026,831.194147954907,1.00000000018669,0.534629619097753
19200.0000000011,838.905943101683,1.00000000017955,0.534562413200162
19299.9999999996,846.472776875309,1.00000000017439,0.534415679565994
19399.9999999982,853.893311434449,1.00000000017073,0.534378220984059
19499.9999999967,861.164487138962,1.00000000018289,0.533830859320551
19599.9999999953,868.288502287376,1.00000000017525,0.533590158969697
19699.9999999938,875.261266750731,1.00000000018045,0.533062953161569
19799.9999999924,882.083835296053,1.00000000017228,0.532692062477744
19899.9999999909,888.757538661606,1.00000000017223,0.532497495289739
19999.9999999895,895.278569077663,1.00000000017047,0.532063318328352
20099.999999988,901.649652933678,1.00000000016378,0.532219057950057
20199.9999999865,907.868261703218,1.00000000016313,0.531855302948625
20299.9999999851,913.934293554202,1.00000000017314,0.531565131552547
20399.9999999836,919.850364319804,1.0000000001634,0.531293398536451
20499.9999999822,925.612357465811,1.00000000016989,0.530531259807126
20599.9999999807,931.224339006848,1.0000000001582,0.530448260775193
20699.9999999793,936.684161020825,1.0000000001659,0.529946276362271
20799.9999999778,941.991884904364,1.00000000016345,0.529883831033332
20899.9999999764,947.151169565726,1.00000000015475,0.529960629591869
20999.9999999749,952.158578806667,1.00000000015556,0.529799913277815
21099.9999999734,957.017673030412,1.00000000016149,0.529602166859529
21199.999999972,961.727422171655,1.00000000015567,0.528948824909078
21299.9999999705,966.286809552907,1.00000000016131,0.528219069836983
21399.9999999691,970.700122529975,1.00000000015179,0.527663860017249
21499.9999999676,974.963866128817,1.00000000015368,0.527105146041541
21599.9999999662,979.080809690357,1.00000000015611,0.527126760301635
21699.9999999647,983.053354954829,1.00000000014728,0.527553988798262
21799.9999999633,986.880530957546,1.00000000015228,0.528239766621379
21899.9999999618,990.567290335758,1.00000000015473,0.528481120321248
21999.9999999603,994.112321473828,1.00000000014465,0.528426943278587
22099.9999999589,997.517208983026,1.00000000014815,0.527587681248071
22199.9999999574,1000.78412938345,1.00000000014731,0.525931277898668
22299.999999956,1003.91022647374,1.00000000014933,0.52439459131147
22399.9999999545,1006.8971642491,1.0000000001462,0.523155712241012
22499.9999999531,1009.74478243787,1.0000000001487,0.52288145736024
22599.9999999516,1012.4540375003,1.00000000014398,0.523854762470789
22699.9999999502,1015.02981973137,1.00000000014193,0.525842729779993
22799.9999999487,1017.47462317704,1.00000000014842,0.527983930030804
22899.9999999473,1019.79326695243,1.00000000014612,0.529434679734123
22999.9999999458,1021.98902242751,1.00000000014891,0.529383305136031
23099.9999999443,1024.06263259502,1.00000000014168,0.527964779733465
23199.9999999429,1026.01492963507,1.00000000013748,0.524814851481114
23299.9999999414,1027.84147264669,1.00000000013834,0.520909361466327
23399.99999994,1029.53971599172,1.00000000013065,0.517888095727919
23499.9999999385,1031.10781025532,1.00000000013222,0.516369410897692
23599.9999999371,1032.54523380198,1.00000000012732,0.517708113484581
23699.9999999356,1033.85827449011,1.00000000012835,0.521551548159299
23799.9999999342,1035.05268225148,1.00000000012744,0.526396977325417
23899.9999999327,1036.1386607213,1.00000000013717,0.530863861039618
23999.9999999312,1037.12551888936,1.00000000014539,0.53341213274924
24099.9999999298,1038.0176777419,1.00000000013649,0.533463562950324
24199.9999999283,1038.81727256596,1.00000000013899,0.530036361643288
24299.9999999269,1039.51883430534,1.00000000013291,0.523921909500651
24399.9999999254,1040.11534149081,1.00000000012575,0.516524348557766
24499.999999924,1040.59799287383,1.00000000012178,0.50985193691278
24599.9999999225,1040.95992343405,1.00000000011108,0.506615966822516
24699.9999999211,1041.20047068977,1.00000000010965,0.508144133247649
24799.9999999196,1041.32530961223,1.00000000011804,0.514202169331411
24899.9999999181,1041.34745625083,1.00000000012528,0.522510754642171
24999.9999999167,1041.28286726988,1.00000000013079,0.5310286073583
25099.9999999152,1041.14688677441,1.00000000014058,0.53727802159253
25199.9999999138,1040.95100062424,1.00000000014808,0.539836172914565
25299.9999999123,1040.69914879274,1.0000000001463,0.537914942831284
25399.9999999109,1040.38896460633,1.00000000014054,0.531226429146459
25499.9999999094,1040.01032162641,1.0000000001305,0.520592623760287
25599.999999908,1039.54841448206,1.00000000011621,0.508369236940274
25699.9999999065,1038.98794429776,1.00000000010532,0.497482403578694
25799.9999999051,1038.31893023843,1.00000000009519,0.491641839211964
25899.9999999036,1037.53959530781,1.00000000009485,0.493667532265122
25999.9999999021,1036.65925504764,1.00000000010544,0.502695432125059
26099.9999999007,1035.69419866717,1.00000000011628,0.515753453098457
26199.9999998992,1034.66524669381,1.00000000013122,0.528923728558128
26299.9999998978,1033.59361943536,1.00000000015294,0.539039589405693
26399.9999998963,1032.49465003688,1.00000000015659,0.544759045932543
26499.9999998949,1031.37761167651,1.00000000016017,0.545397866166748
26599.9999998934,1030.24226290559,1.00000000015148,0.540087560721986
26699.999999892,1029.07871915292,1.0000000001453,0.529204900234807
26799.9999998905,1027.87170561251,1.00000000013117,0.513620864163614
26899.999999889,1026.60032236448,1.00000000010667,0.495741782342407
26999.9999998876,1025.24634579764,1.00000000009088,0.480340199757978
27099.9999998861,1023.79801395181,1.00000000008293,0.472071320011929
27199.9999998847,1022.25331130537,1.00000000008426,0.474491758563938
27299.9999998832,1020.62307811477,1.00000000008566,0.487182078337418
27399.9999998818,1018.92555318708,1.00000000011005,0.505624326437208
27499.9999998803,1017.18421878544,1.00000000013137,0.523440045425634
27599.9999998789,1015.42191190632,1.00000000015298,0.538249880312767
27699.9999998774,1013.65752214353,1.00000000016789,0.547075847831672
27799.9999998759,1011.90235650846,1.00000000018212,0.551190193135161
27899.9999998745,1010.1611604775,1.00000000017493,0.548925012429996
27999.999999873,1008.42732668714,1.00000000016445,0.54056973947236
28099.9999998716,1006.68892927293,1.00000000015848,0.526745865676535
28199.9999998701,1004.92589140935,1.00000000012847,0.506214668318686
28299.9999998687,1003.11690185482,1.00000000010816,0.484182526726829
28399.9999998672,1001.24225288249,1.00000000008473,0.46333610524643
28499.9999998658,999.288390544431,1.00000000007109,0.451656771262551
28599.9999998643,997.254520565435,1.00000000006689,0.45209341219498
28699.9999998629,995.147814730512,1.00000000007867,0.466340291604264
