Time,AGPnorm,Energy,Entropy
0,0,1,-7.55551022542644e-17
99.9999999999986,0.00117262547993363,0.999999999997279,0.00402480520097883
199.999999999993,0.00846527236690974,0.999999999996535,0.0116356894383939
300,0.0168758293292529,0.999999999999138,0.0215254341513844
400.000000000022,0.0251900608026462,1.00000000000078,0.0342013666377154
500.000000000045,0.0356700933341299,0.999999999998089,0.0495383438449707
600.000000000068,0.0498419035068878,0.99999999999634,0.0668858906599519
700.000000000091,0.0635556412558538,0.999999999998004,0.0864977184844214
800.000000000113,0.0770356563468555,1.00000000000073,0.108945468982473
900.000000000136,0.0920952149862695,0.999999999999758,0.135558769045762
1000.00000000016,0.107214780473087,0.999999999999379,0.166709802693327
1100.0000000001,0.123471801199519,1.00000000001915,0.20514918773828
1200,0.140841353620158,1.00000000010222,0.251274815711744
1299.99999999991,0.163639688066695,1.00000000027672,0.301463301714689
1399.99999999982,0.206025873338138,1.00000000049715,0.348982510855911
1499.99999999973,0.340344154897398,1.00000000080072,0.390578918832106
1599.99999999964,0.640087706467599,1.00000000100231,0.426852017774696
1699.99999999955,1.15968611825938,1.00000000129116,0.458198519375213
1799.99999999946,1.99812970218951,1.00000000143764,0.484896939953584
1899.99999999937,3.25096063054265,1.00000000152132,0.506283457527076
1999.99999999928,4.92994202605067,1.00000000164534,0.524072152196806
2099.99999999919,7.01206192852283,1.00000000163115,0.539464647282636
2199.99999999909,9.51542423128641,1.00000000170339,0.551675402867945
2299.999999999,12.4382581777479,1.00000000176974,0.56020557792391
2399.99999999891,15.6797072270345,1.00000000175252,0.567218313539298
2499.99999999882,19.138685539021,1.00000000177148,0.572960239126729
2599.99999999873,22.7749499912309,1.00000000165107,0.577608220778335
2699.99999999864,26.5561505864709,1.00000000165006,0.579325251718553
2799.99999999855,30.387125851789,1.00000000165502,0.579896004585327
2899.99999999846,34.1618969466648,1.00000000161618,0.580889539039858
2999.99999999837,37.8357782725398,1.00000000158055,0.581061797087716
3099.99999999828,41.3909195256369,1.00000000150074,0.580142657455975
3199.99999999819,44.7852835189401,1.00000000150105,0.578587658928774
3299.99999999809,47.9543250408644,1.00000000152333,0.576597716327918
3399.999999998,50.8663987651402,1.00000000135456,0.573981862448456
3499.99999999791,53.5259631881782,1.00000000129272,0.572609437304532
3599.99999999782,55.9270069338781,1.00000000124573,0.571963505557562
3699.99999999773,58.053274877033,1.00000000123069,0.567729589702281
3799.99999999764,59.8940278668712,1.00000000116143,0.565797278809
3899.99999999755,61.447472839583,1.00000000114859,0.56663582589605
3999.99999999746,62.7376543804079,1.00000000111527,0.563249199742759
4099.99999999738,63.7759577171505,1.00000000108214,0.558650908777131
4199.99999999775,64.5687586009119,1.00000000105385,0.565025603694702
4299.99999999811,65.1221718081963,1.0000000009792,0.552112352235612
4399.99999999848,65.4561213049972,1.00000000101108,0.567154856401833
4499.99999999884,65.6186140812053,1.00000000096395,0.551037991372531
4599.9999999992,65.5849816703688,1.00000000091989,0.549769145832058
4699.99999999957,65.4299628673356,1.00000000107913,0.57044454280921
4799.99999999993,65.1416168050516,1.00000000073201,0.528332449892178
4900.00000000029,64.7078048126151,1.00000000101228,0.558889522117497
5000.00000000066,64.2383823251352,1.00000000112569,0.564456745943793
5100.00000000102,63.6818411762948,1.00000000068356,0.509721280712805
5200.00000000139,63.0205655865364,1.00000000105471,0.552893486347698
5300.00000000175,62.3640066900369,1.00000000127941,0.573650535253897
5400.00000000211,61.6767078997086,1.00000000077452,0.506347914607649
5500.00000000248,60.9032583365617,1.00000000082356,0.504406606410551
5600.00000000284,60.1315794699722,1.00000000139778,0.579827874023828
5700.00000000321,59.3941737953193,1.00000000108912,0.53514676927036
5800.00000000357,58.6177865796213,1.0000000006616,0.46919203302264
5900.00000000393,57.7954803870818,1.00000000093525,0.507980510576355
6000.0000000043,57.0018456305407,1.00000000141901,0.570894565855031
6100.00000000466,56.2479762055781,1.00000000110415,0.527616591295325
6200.00000000502,55.4819867640214,1.00000000072738,0.460030617346622
6300.00000000539,54.6877281616459,1.00000000082748,0.474838769253844
6400.00000000575,53.9045668192084,1.00000000132082,0.541287408748983
6500.00000000612,53.1598219585828,1.00000000128208,0.549666581338444
6600.00000000648,52.4371759403675,1.00000000094166,0.493304313668674
6700.00000000684,51.7117862126355,1.00000000073612,0.457799374683594
6800.00000000721,50.9833337008519,1.00000000087353,0.478084648262599
6900.00000000757,50.267628146927,1.00000000113363,0.517237595844479
7000.00000000793,49.5764990341694,1.00000000126503,0.540546825030631
7100.0000000083,48.9078100005682,1.00000000108799,0.513727890757651
7200.00000000866,48.2516012369697,1.00000000080855,0.471530317467818
7300.00000000903,47.6068979540711,1.00000000091191,0.477523847146792
7400.00000000939,46.9750484839408,1.00000000093021,0.495274300046816
7500.00000000975,46.3578218916077,1.00000000098247,0.50184184497628
7600.00000001012,45.7561257299696,1.00000000119346,0.526809061884837
7700.00000001048,45.1695641621368,1.00000000118163,0.525454155980472
7800.00000001084,44.5992487642059,1.0000000009202,0.493444228862138
7900.00000001121,44.0488481702984,1.00000000081524,0.476864633114867
8000.00000001157,43.5173098712426,1.00000000100763,0.496408884610274
8100.00000001194,42.9997747185477,1.0000000010304,0.513290603440967
8200.0000000123,42.498792207149,1.00000000085275,0.488004521203184
8300.00000001266,42.0144773287711,1.00000000097935,0.501807673940937
8400.00000001303,41.5398431185724,1.00000000121312,0.526085221945489
8500.00000001339,41.0705472983073,1.00000000115227,0.521458052253695
8600.00000001376,40.6183831275561,1.00000000085149,0.492912037772489
8700.00000001412,40.1908040465802,1.00000000080315,0.479033460613199
8800.00000001448,39.7821397235257,1.00000000099967,0.497117033417265
8900.00000001485,39.3803145731487,1.00000000114036,0.510509743909442
9000.00000001521,38.9884608823884,1.00000000102332,0.513397549281947
9100.00000001557,38.6169894080001,1.00000000080054,0.47806040393851
9200.00000001594,38.2608609874977,1.00000000108554,0.501527788798674
9300.0000000163,37.9097345617237,1.0000000012023,0.526315767727745
9400.00000001667,37.5568734354241,1.00000000119496,0.528343669277338
9500.00000001703,37.2114835698719,1.00000000099088,0.509498611311522
9600.00000001739,36.8866167667926,1.00000000084295,0.489418305944862
9700.00000001776,36.5836177958938,1.00000000089651,0.494359936975789
9800.00000001812,36.296160455073,1.00000000097287,0.500731047941772
9900.00000001848,36.0129908172938,1.00000000112898,0.509470392908235
10000.0000000188,35.7324108849754,1.00000000109682,0.511011575334661
10100.0000000192,35.4614233670884,1.00000000095256,0.517618569025384
10200.0000000196,35.2045470482272,1.00000000090796,0.506598233919616
10300.0000000199,34.9571759955564,1.00000000102778,0.512496389914148
10400.0000000203,34.7137705116385,1.00000000107635,0.525983549476937
10500.0000000207,34.4727954039393,1.00000000107556,0.531808437094459
10600.000000021,34.2314899729364,1.00000000117851,0.534975141665406
10700.0000000214,33.9984350154773,1.00000000098307,0.521389973398873
10800.0000000218,33.7845376333572,1.0000000008019,0.505196888363557
10900.0000000221,33.5892008104876,1.00000000094816,0.506876301261987
11000.0000000225,33.4027359261227,1.00000000103855,0.516956045475799
11100.0000000229,33.2239796386321,1.00000000094504,0.509979106009184
11200.0000000232,33.0557735498572,1.00000000101614,0.514624070355923
11300.0000000236,32.8953396681968,1.00000000098462,0.50659112424642
11400.0000000239,32.7362693288666,1.00000000109014,0.526985790635623
11500.0000000243,32.5734760801503,1.00000000108804,0.544266363073171
11600.0000000247,32.4085539738766,1.00000000100514,0.548308500552869
11700.000000025,32.2465387711169,1.00000000092617,0.538510839865286
11800.0000000254,32.090197878278,1.00000000092735,0.533925389579299
11900.0000000258,31.941743411448,1.00000000105322,0.533805070725527
12000.0000000261,31.7962756885423,1.000000001123,0.53587212610928
12100.0000000265,31.6498947132398,1.00000000118019,0.537815130707653
12200.0000000269,31.5060292250169,1.00000000102524,0.536703097463917
12300.0000000272,31.3754543497986,1.0000000008884,0.52785725248589
12400.0000000276,31.2622685546743,1.00000000089105,0.521780151251162
12500.0000000279,31.1636579277727,1.00000000097073,0.515544238018506
12600.0000000283,31.0652851760619,1.00000000111962,0.530880547878245
12700.0000000287,30.9654836002866,1.00000000107795,0.535192185586817
12800.000000029,30.8732677554089,1.00000000089072,0.513559636808134
12900.0000000294,30.7945022883723,1.00000000091074,0.519964627529611
13000.0000000298,30.723865955037,1.0000000010173,0.536209364861728
13100.0000000301,30.6545065099781,1.00000000099248,0.542255509161162
13200.0000000305,30.5808625416135,1.00000000105301,0.542556485859527
13300.0000000309,30.4986503380086,1.00000000106819,0.554073653130503
13400.0000000312,30.4079266793913,1.00000000113241,0.560647150087722
13500.0000000316,30.3115643294948,1.00000000103956,0.565186737529493
13600.0000000319,30.2110298366866,1.00000000099347,0.569647909549213
13700.0000000323,30.1108189291347,1.00000000101211,0.56616928190291
13800.0000000327,30.0160831448588,1.00000000100594,0.557271151494675
13900.000000033,29.9278834880892,1.00000000103116,0.547517387642968
14000.0000000334,29.8451553991465,1.00000000106961,0.543484494733054
14100.0000000338,29.7649797828203,1.00000000109479,0.549471355365252
14200.0000000341,29.6858010655554,1.00000000101851,0.548699559244318
14300.0000000345,29.6142450462753,1.00000000102095,0.550243708617178
14400.0000000349,29.5579505411815,1.00000000091729,0.54535705024983
14500.0000000352,29.5137052856822,1.0000000010284,0.540573379099006
14600.0000000356,29.4740892880965,1.00000000100464,0.543425640098306
14700.0000000359,29.4385453416709,1.00000000104794,0.540977945254172
14800.0000000363,29.4082041480684,1.00000000101693,0.536736423859782
14900.0000000367,29.3797471161881,1.00000000101042,0.532524659382287
15000.000000037,29.3560821387004,1.00000000099377,0.53678973207067
15100.0000000374,29.338464006062,1.00000000098437,0.543472323872447
15200.0000000378,29.3227229423713,1.00000000109894,0.558535064337633
15300.0000000381,29.3028864455474,1.00000000115986,0.567726443823195
15400.0000000385,29.2781495820651,1.00000000108295,0.573421310315798
15500.0000000389,29.249738470135,1.00000000107391,0.575411252266793
15600.0000000392,29.2232094558976,1.00000000097056,0.573214574839186
15700.0000000396,29.1990804713159,1.00000000098494,0.569598294458725
15800.0000000399,29.1741277193897,1.00000000113585,0.578283829801973
15900.0000000403,29.1416815442911,1.00000000114222,0.577698486337623
16000.0000000407,29.0992846574848,1.00000000112665,0.574491431680969
16100.000000041,29.0436237615658,1.00000000121325,0.579947597384624
16200.0000000414,28.9761238051383,1.00000000108438,0.583568480208014
16300.0000000418,28.9025473913448,1.00000000105967,0.590706751159055
16400.0000000418,28.8291856751812,1.00000000098083,0.586487203765045
16500.0000000404,28.7616907436384,1.00000000100112,0.579099911384569
16600.0000000389,28.7010461393485,1.00000000098074,0.574466477200757
16700.0000000375,28.6472523930044,1.00000000108131,0.570846866044945
16800.000000036,28.5995051083621,1.00000000109257,0.568321955684846
16900.0000000346,28.5552860073866,1.00000000111093,0.569288484110382
17000.0000000331,28.5134878599141,1.00000000109741,0.571323934757219
17100.0000000317,28.4757496721605,1.00000000100885,0.571135670192489
17200.0000000302,28.446661493078,1.00000000096785,0.570417874193196
17300.0000000287,28.4292804843121,1.00000000096751,0.567132654405742
17400.0000000273,28.4203429240185,1.00000000102588,0.56619187468346
17500.0000000258,28.4178875276003,1.00000000102465,0.561021670324082
17600.0000000244,28.4194983218548,1.00000000111133,0.560806759452289
17700.0000000229,28.4220681624593,1.00000000104943,0.553369611836808
17800.0000000215,28.4269649917516,1.00000000104244,0.556047436103063
17900.00000002,28.4382452594897,1.00000000097666,0.559338380019455
18000.0000000186,28.4545267820239,1.00000000100161,0.55902869369079
18100.0000000171,28.4718826971674,1.00000000107196,0.560997134061707
18200.0000000156,28.4881840021772,1.0000000010813,0.561996672585563
18300.0000000142,28.5023511951535,1.00000000109207,0.557788539719411
18400.0000000127,28.5137621364235,1.00000000109433,0.558751005969154
18500.0000000113,28.5216562988767,1.00000000111991,0.572913370477537
18600.0000000098,28.5277026846056,1.00000000104768,0.584490818032171
18700.0000000084,28.5341583401207,1.00000000114141,0.585223800519961
18800.0000000069,28.5391852572521,1.00000000103676,0.586743929231088
18900.0000000055,28.5415355443044,1.00000000109115,0.594096497471716
19000.000000004,28.5397990273182,1.00000000115448,0.59563996929918
19100.0000000026,28.5324474243154,1.00000000112043,0.595258294672245
19200.0000000011,28.5223936412183,1.00000000107625,0.602484927445143
19299.9999999996,28.5131287170876,1.00000000105293,0.607058857189628
19399.9999999982,28.5021996471181,1.00000000105905,0.608288964871237
19499.9999999967,28.4862432655892,1.00000000109012,0.617364442563439
19599.9999999953,28.4656798630324,1.00000000109993,0.612735965916211
19699.9999999938,28.441871269321,1.00000000106188,0.608792335934659
19799.9999999924,28.413242661494,1.00000000112871,0.599793258479405
19899.9999999909,28.3789445856843,1.0000000011341,0.598411533948883
19999.9999999895,28.3373609855433,1.00000000115497,0.599886194141351
20099.999999988,28.2873789382811,1.00000000114932,0.604474007652605
20199.9999999865,28.2293102682229,1.00000000117065,0.601813111575706
20299.9999999851,28.1663639978035,1.00000000115687,0.604674949426437
20399.9999999836,28.102911579525,1.00000000101674,0.603606745280416
20499.9999999822,28.0419250796941,1.00000000099634,0.605983927099751
20599.9999999807,27.9851030757864,1.00000000098879,0.605698555652061
20699.9999999793,27.9334045280707,1.00000000098331,0.605852359497094
20799.9999999778,27.8862398488044,1.00000000108141,0.600961668470258
20899.9999999764,27.8455025657222,1.00000000105385,0.598832136868611
20999.9999999749,27.8083682588786,1.00000000106818,0.600073709830664
21099.9999999734,27.7767757759289,1.0000000011197,0.597034743955014
21199.999999972,27.7486628900249,1.00000000104775,0.58002581919235
21299.9999999705,27.7240862665572,1.00000000108447,0.57543027022658
21399.9999999691,27.7050311687214,1.00000000102549,0.575158480216048
21499.9999999676,27.6931296251866,1.00000000101121,0.579096900589771
21599.9999999662,27.6899935185372,1.00000000108692,0.580881184970514
21699.9999999647,27.6952654344769,1.00000000108988,0.585194666301053
21799.9999999633,27.7072081261545,1.00000000101201,0.577543372544972
21899.9999999618,27.7225494943097,1.0000000011034,0.576466798501444
21999.9999999603,27.7414821527603,1.00000000108424,0.578294798607858
22099.9999999589,27.7634912515598,1.00000000106493,0.569780765076715
22199.9999999574,27.7886695714225,1.00000000111714,0.565899709367059
22299.999999956,27.8184669918219,1.00000000103307,0.565799938992165
22399.9999999545,27.8523488286647,1.00000000099229,0.571743464342605
22499.9999999531,27.8884906197429,1.00000000107542,0.573838500334999
22599.9999999516,27.9234976733402,1.00000000113437,0.577903219990563
22699.9999999502,27.9583996465656,1.00000000104291,0.579070914519692
22799.9999999487,27.9932762828013,1.00000000114014,0.579846680923093
22899.9999999473,28.0266194284992,1.00000000112778,0.577791522534699
22999.9999999458,28.055047223644,1.00000000117473,0.58458198700764
23099.9999999443,28.0776185129026,1.00000000109837,0.591374894286232
23199.9999999429,28.0967231047015,1.00000000113376,0.596610006978696
23299.9999999414,28.1139450905983,1.00000000105909,0.604056968949446
23399.99999994,28.1308903734233,1.00000000110816,0.612014235879431
23499.9999999385,28.1465413691522,1.00000000114293,0.612077379991537
23599.9999999371,28.1597437780479,1.00000000113155,0.613286581360694
23699.9999999356,28.1690435161709,1.00000000116231,0.609052553755775
23799.9999999342,28.1750808566716,1.00000000112615,0.619047276184594
23899.9999999327,28.1816672854702,1.00000000109344,0.617269822536268
23999.9999999312,28.1875200269965,1.00000000108773,0.615033894361244
24099.9999999298,28.1932189630637,1.00000000109936,0.609384142885398
24199.9999999283,28.200323639293,1.00000000106621,0.607877106925871
24299.9999999269,28.2042426579006,1.00000000116637,0.605715161947821
24399.9999999254,28.2025701434513,1.00000000121202,0.616775558663005
24499.999999924,28.1980752935024,1.00000000112025,0.625006621040287
24599.9999999225,28.1912311871193,1.00000000114359,0.622007437331477
24699.9999999211,28.1836242702989,1.00000000110517,0.624545625737764
24799.9999999196,28.1748785281504,1.00000000111973,0.627419854357889
24899.9999999181,28.16468790685,1.00000000108575,0.631110500056538
24999.9999999167,28.155960860651,1.00000000104136,0.623308702648906
25099.9999999152,28.1486929649816,1.00000000110181,0.613707397009399
25199.9999999138,28.1391397879139,1.00000000115994,0.619319588281728
25299.9999999123,28.1260702737307,1.00000000114027,0.623144134553559
25399.9999999109,28.1099128525013,1.0000000012085,0.628586199238015
25499.9999999094,28.0881664942962,1.00000000118511,0.622403801464172
25599.999999908,28.0626999475256,1.00000000120973,0.625275769231702
25699.9999999065,28.0358932211302,1.00000000123223,0.63347884204393
25799.9999999051,28.0075187948374,1.00000000113968,0.631020304241528
25899.9999999036,27.9786181633183,1.00000000110319,0.628720507725474
25999.9999999021,27.9494350657302,1.00000000111865,0.633417280695795
26099.9999999007,27.9171138840753,1.00000000115496,0.630123818570931
26199.9999998992,27.8835438843014,1.00000000106548,0.6161104377622
26299.9999998978,27.8490333175369,1.00000000114317,0.619399648944898
26399.9999998963,27.8128692666218,1.00000000113747,0.624234977288539
26499.9999998949,27.7734331976533,1.00000000119909,0.631597933259581
26599.9999998934,27.7306985676843,1.0000000012132,0.630648139151124
26699.999999892,27.6845553222623,1.00000000120694,0.626443337301723
26799.9999998905,27.6355998277738,1.00000000125367,0.630086058292095
26899.999999889,27.5828079895223,1.00000000121702,0.631756564187567
26999.9999998876,27.5272348655184,1.0000000011589,0.632187698823878
27099.9999998861,27.4700675257692,1.00000000123022,0.635956190802436
27199.9999998847,27.4114130113722,1.00000000112997,0.634888199047778
27299.9999998832,27.3527057084211,1.00000000110192,0.634890272827288
27399.9999998818,27.2952140038054,1.00000000112858,0.627779032608772
27499.9999998803,27.2394271469093,1.00000000115478,0.617877369270919
27599.9999998789,27.187428530683,1.00000000108424,0.614313780490224
27699.9999998774,27.1397373230983,1.00000000114108,0.615390306982439
27799.9999998759,27.0966845340502,1.00000000108941,0.623387656338485
27899.9999998745,27.0589847903149,1.00000000120248,0.629285501940119
27999.999999873,27.0246553688395,1.00000000115725,0.627677051405077
28099.9999998716,26.9939309671523,1.00000000117841,0.623992843264376
28199.9999998701,26.9677085049155,1.00000000114855,0.61896618647051
28299.9999998687,26.9438761610282,1.0000000011238,0.606826875436392
28399.9999998672,26.9248205091876,1.00000000105841,0.595282916804925
28499.9999998658,26.9103821821555,1.00000000112367,0.596249585964183
28599.9999998643,26.9008872962666,1.00000000120291,0.595607667191494
28699.9999998629,26.8978128329957,1.00000000109074,0.59509024245501
28799.9999998614,26.9024925272746,1.0000000011419,0.591752319799647
28899.9999998599,26.9117658985627,1.00000000116647,0.591776206100104
28999.9999998585,26.9277427973425,1.00000000112321,0.588052190792473
