Time,AGPnorm,Energy,Entropy
0,0,1,-7.51203515144609e-17
99.9999999999986,0.000959988479854413,1.00000000000033,0.00319654839364298
199.999999999993,0.00635031678163975,1.00000000000114,0.00950641753749467
300,0.0130555162871648,1.00000000000125,0.0177034306863195
400.000000000022,0.0199882555546636,1.00000000000044,0.0278767744550053
500.000000000045,0.0283768811244713,0.99999999999983,0.0401550279636332
600.000000000068,0.0394159430554778,1.0000000000006,0.0543247216059387
700.000000000091,0.0505459153063637,1.0000000000014,0.070118493570604
800.000000000113,0.0625357945324048,1.00000000000119,0.0877163194967676
900.000000000136,0.0748467113085479,0.999999999999954,0.107573200318948
1000.00000000016,0.0888454965730583,1.00000000000026,0.130251367370399
1100.0000000001,0.1019107961697,1.00000000000227,0.156617568431251
1200,0.115804939731241,1.00000000001013,0.187901959305276
1299.99999999991,0.129192975732502,1.00000000004143,0.225469086254642
1399.99999999982,0.141425607350587,1.00000000012103,0.267975628278747
1499.99999999973,0.164755368764028,1.00000000025964,0.311667193533293
1599.99999999964,0.238761659910378,1.00000000040856,0.352518608147427
1699.99999999955,0.397262165693613,1.00000000060297,0.389098860087028
1799.99999999946,0.69084708704879,1.00000000079794,0.420859425111207
1899.99999999937,1.21016970983118,1.00000000087352,0.44885796034507
1999.99999999928,2.04784778153455,1.0000000010887,0.472273055960493
2099.99999999919,3.25594516947282,1.00000000122646,0.492801796061573
2199.99999999909,4.87379450816289,1.00000000123907,0.509992489749169
2299.999999999,6.93060092235622,1.00000000135179,0.524232462813732
2399.99999999891,9.42671857905238,1.00000000136808,0.535780407172799
2499.99999999882,12.3327247442327,1.00000000140082,0.545965090951181
2599.99999999873,15.6260386748265,1.00000000127335,0.553873910082756
2699.99999999864,19.2631178566343,1.00000000139053,0.559798966981054
2799.99999999855,23.1702172628533,1.00000000135302,0.564257643588184
2899.99999999846,27.2674494707454,1.00000000132064,0.568283878491255
2999.99999999837,31.5061344954895,1.00000000123782,0.570773748291597
3099.99999999828,35.8414172864022,1.00000000134283,0.571489529506739
3199.99999999819,40.1968147155436,1.00000000127138,0.572066059169568
3299.99999999809,44.495062222407,1.00000000121222,0.572467292967702
3399.999999998,48.6903386712941,1.00000000123476,0.571941615412417
3499.99999999791,52.7611329765625,1.00000000116366,0.571437787450336
3599.99999999782,56.6664684660639,1.00000000113014,0.57070739539117
3699.99999999773,60.354357027746,1.00000000108825,0.568345408132689
3799.99999999764,63.7992813583909,1.00000000110019,0.566091666764639
3899.99999999755,66.9868237407197,1.00000000106137,0.566975645840666
3999.99999999746,69.9127021111312,1.00000000103145,0.563550262170899
4099.99999999738,72.5674515533365,1.00000000096709,0.560541431305247
4199.99999999775,74.9290190618882,1.00000000097553,0.560924654188136
4299.99999999811,76.9979978442555,1.00000000090692,0.557272856707842
4399.99999999848,78.7930507615617,1.00000000091132,0.557745396014456
4499.99999999884,80.3200348726702,1.00000000085443,0.552839527502165
4599.9999999992,81.5782254657881,1.00000000084623,0.553660811437146
4699.99999999957,82.585139253077,1.00000000086035,0.556078634180043
4799.99999999993,83.3443070422412,1.00000000073365,0.544363913321713
4900.00000000029,83.8758814099367,1.00000000079141,0.557072920401327
5000.00000000066,84.2282630835426,1.00000000078905,0.553059016234817
5100.00000000102,84.3730571331741,1.0000000006442,0.531269074049231
5200.00000000139,84.3263690788149,1.00000000078394,0.558482663713308
5300.00000000175,84.1757062572051,1.0000000008343,0.558617074924566
5400.00000000211,83.8788385987416,1.0000000006056,0.517215074955925
5500.00000000248,83.4191217261989,1.00000000073859,0.543293465183893
5600.00000000284,82.9097873669456,1.0000000009784,0.574407880402201
5700.00000000321,82.3474466050529,1.00000000069367,0.524831106538865
5800.00000000357,81.6477369572786,1.00000000052805,0.496364303263227
5900.00000000393,80.8745358714937,1.00000000092583,0.56032048137061
6000.0000000043,80.127109212383,1.00000000106689,0.572184160555245
6100.00000000466,79.3581935068721,1.00000000063085,0.499705092059138
6200.00000000502,78.4871363083062,1.00000000049511,0.470697857342768
6300.00000000539,77.5696884857095,1.00000000090589,0.545940260206804
6400.00000000575,76.6984972567265,1.00000000111823,0.576527085847817
6500.00000000612,75.8579381104677,1.00000000080155,0.519795526443022
6600.00000000648,74.970619475121,1.00000000046157,0.444073925111285
6700.00000000684,74.0250532619442,1.00000000060718,0.476144298720243
6800.00000000721,73.0899252004376,1.00000000106945,0.55655996079511
6900.00000000757,72.2094853846512,1.00000000112378,0.565788528358813
7000.00000000793,71.3607440939498,1.00000000082824,0.509622729523775
7100.0000000083,70.4924462521451,1.00000000051048,0.433690596848925
7200.00000000866,69.5938632076009,1.0000000005614,0.444963525152147
7300.00000000903,68.6977111751432,1.00000000085713,0.515930370324185
7400.00000000939,67.8351386405252,1.00000000108593,0.555795439827735
7500.00000000975,67.0120889034444,1.00000000100737,0.543191512891776
7600.00000001012,66.2069384240775,1.00000000070393,0.486092509880726
7700.00000001048,65.3992890561273,1.000000000557,0.437846522808441
7800.00000001084,64.5902688185906,1.00000000059104,0.44694805829139
7900.00000001121,63.7892672877576,1.00000000077452,0.485611567660263
8000.00000001157,63.0058466393522,1.00000000095974,0.529410715288909
8100.00000001194,62.2464847027183,1.00000000100527,0.541892356497481
8200.0000000123,61.5100314625619,1.00000000089721,0.523693188635933
8300.00000001266,60.7884343867079,1.00000000068084,0.47933662394675
8400.00000001303,60.0794515819193,1.00000000059705,0.455577751709671
8500.00000001339,59.3868680621896,1.00000000066852,0.458031091185879
8600.00000001376,58.7100014020169,1.00000000069947,0.482759840117677
8700.00000001412,58.0488520034945,1.0000000007606,0.494321002263268
8800.00000001448,57.4025887970524,1.00000000086513,0.5139133781616
8900.00000001485,56.7687265040839,1.0000000009938,0.530280608325872
9000.00000001521,56.1461790311866,1.00000000098589,0.532604170369554
9100.00000001557,55.5386454864159,1.00000000072443,0.499464511754468
9200.00000001594,54.9523032194259,1.00000000056853,0.460268627968127
9300.0000000163,54.3896116324346,1.00000000070093,0.464774324567483
9400.00000001667,53.8459691659049,1.00000000083475,0.480794069615411
9500.00000001703,53.3158984470251,1.0000000008479,0.502265142516781
9600.00000001739,52.8008207269426,1.00000000070779,0.48976694868879
9700.00000001776,52.3040692407168,1.00000000068166,0.491931774408833
9800.00000001812,51.8194962408917,1.00000000083508,0.511758438645741
9900.00000001848,51.3364180250404,1.00000000107508,0.534072112755882
10000.0000000188,50.8535176873248,1.00000000106336,0.535164566502633
10100.0000000192,50.3805975145296,1.00000000081622,0.507706256714797
10200.0000000196,49.9316118629527,1.00000000060149,0.473498880558903
10300.0000000199,49.5108417679146,1.00000000062843,0.463254445964975
10400.0000000203,49.111174563189,1.00000000081887,0.478528456657379
10500.0000000207,48.7203700730326,1.00000000089945,0.49196282738272
10600.000000021,48.3331907102924,1.00000000083681,0.503304230301452
10700.0000000214,47.9555758601109,1.0000000007268,0.503390211472649
10800.0000000218,47.5965045696765,1.00000000066278,0.490651833111403
10900.0000000221,47.2528329570437,1.00000000075175,0.502036795123601
11000.0000000225,46.9140124636292,1.00000000090021,0.521155402999208
11100.0000000229,46.5721977756763,1.00000000099906,0.532993290477385
11200.0000000232,46.2240730487487,1.00000000092795,0.534914561637447
11300.0000000236,45.8768147544872,1.00000000082556,0.526075535802157
11400.0000000239,45.5441012147224,1.00000000072462,0.5023714258626
11500.0000000243,45.2363781370883,1.00000000061328,0.479339021219413
11600.0000000247,44.953584188617,1.00000000068187,0.480958502198298
11700.000000025,44.6895834740906,1.00000000073154,0.486259111631272
11800.0000000254,44.4374269860124,1.00000000077685,0.497260063087089
11900.0000000258,44.190295249164,1.00000000081008,0.502218110118957
12000.0000000261,43.9482170605465,1.00000000079308,0.497704637283773
12100.0000000265,43.7109432577603,1.00000000079489,0.51690544147409
12200.0000000269,43.4771234706241,1.000000000765,0.523429995272698
12300.0000000272,43.2478474191645,1.00000000075694,0.531645799353155
12400.0000000276,43.023166805779,1.000000000762,0.531096296460848
12500.0000000279,42.8020830352147,1.00000000075873,0.529632302610916
12600.0000000283,42.5846214443853,1.00000000080123,0.523779471893681
12700.0000000287,42.3671128044356,1.00000000090772,0.531136602122156
12800.000000029,42.1439466264257,1.0000000009698,0.540977518466621
12900.0000000294,41.9170657602517,1.00000000087836,0.539148500007014
13000.0000000298,41.6992752771345,1.00000000069378,0.520574789313566
13100.0000000301,41.5039618579125,1.00000000064338,0.503527425841269
13200.0000000305,41.3336930315239,1.00000000066201,0.486390799059645
13300.0000000309,41.181174573047,1.00000000080542,0.495948349767777
13400.0000000312,41.0340770315743,1.00000000085751,0.508284760471038
13500.0000000316,40.8906569796509,1.00000000080292,0.502574539501214
13600.0000000319,40.7554283949695,1.00000000076935,0.499764550671393
13700.0000000323,40.6314488462066,1.00000000073812,0.508060437015693
13800.0000000327,40.5198815605367,1.00000000070173,0.509394984857248
13900.000000033,40.4155593283782,1.00000000080427,0.516000645514875
14000.0000000334,40.3063242580631,1.00000000089469,0.530969387164297
14100.0000000338,40.1843909355104,1.00000000098172,0.546643075470733
14200.0000000341,40.0490796511853,1.00000000092883,0.554934273886374
14300.0000000345,39.9061100758313,1.00000000086818,0.556232829581951
14400.0000000349,39.7616972194152,1.0000000007444,0.554733811672675
14500.0000000352,39.6228332080353,1.00000000071955,0.547537640959903
14600.0000000356,39.4908463536775,1.00000000073236,0.542742570506587
14700.0000000359,39.3625649296701,1.0000000008442,0.536946705666371
14800.0000000363,39.2330779839872,1.00000000088076,0.535367727752478
14900.0000000367,39.0994751954712,1.00000000087955,0.543000335561499
15000.000000037,38.9607519718662,1.00000000090057,0.546854794867243
15100.0000000374,38.8238251979178,1.00000000079529,0.545493126298521
15200.0000000378,38.6994822145987,1.00000000069975,0.534601615141876
15300.0000000381,38.5945277381654,1.00000000067341,0.518682853819908
15400.0000000385,38.5086061013694,1.00000000073296,0.513351042761188
15500.0000000389,38.4382784810958,1.0000000007787,0.514758398808304
15600.0000000392,38.3791488992691,1.00000000076053,0.512855553757831
15700.0000000396,38.3235445252415,1.00000000085107,0.512269085745774
15800.0000000399,38.2675577442418,1.00000000076611,0.510695853079624
15900.0000000403,38.2177559101209,1.00000000074428,0.51063940489441
16000.0000000407,38.1771447749118,1.00000000077182,0.518490424648528
16100.000000041,38.1416546599517,1.00000000078715,0.532381535179917
16200.0000000414,38.1056753946827,1.00000000084242,0.546292351828365
16300.0000000418,38.0690844409392,1.00000000081472,0.553983041240539
16400.0000000418,38.0339995833484,1.00000000078646,0.555786982524405
16500.0000000404,38.0002078423352,1.00000000074563,0.55462567838248
16600.0000000389,37.9668051771259,1.00000000078898,0.551374995273549
16700.0000000375,37.9285620629229,1.00000000084455,0.553732598910339
16800.000000036,37.8787104482158,1.00000000085033,0.560230707126568
16900.0000000346,37.8145719563989,1.0000000009065,0.559417374153909
17000.0000000331,37.7378662864061,1.00000000091246,0.563119665470029
17100.0000000317,37.6492626701924,1.00000000081913,0.569618968324393
17200.0000000302,37.5523381292662,1.00000000076491,0.577117163201499
17300.0000000287,37.4545844722522,1.0000000007766,0.575574636570695
17400.0000000273,37.3624721196285,1.00000000070697,0.565366863992788
17500.0000000258,37.2780223330531,1.00000000070367,0.556861370677927
17600.0000000244,37.2000675916904,1.00000000079415,0.552177772058472
17700.0000000229,37.1247850593045,1.00000000083194,0.546990206940649
17800.0000000215,37.047855856452,1.00000000091911,0.551639951319606
17900.00000002,36.9683464809573,1.00000000092231,0.558975861271787
18000.0000000186,36.8860306621762,1.00000000090296,0.559911781443699
18100.0000000171,36.8035672566942,1.00000000081941,0.558671489981653
18200.0000000156,36.7290336524375,1.00000000073658,0.555130172522619
18300.0000000142,36.669334600831,1.00000000069611,0.547257974065852
18400.0000000127,36.6271298844897,1.00000000072478,0.54201697720189
18500.0000000113,36.6007680040454,1.00000000067624,0.528398544242469
18600.0000000098,36.5848243428879,1.00000000073385,0.525776426733484
18700.0000000084,36.5743072428183,1.0000000008346,0.528314892358248
18800.0000000069,36.5666374423769,1.00000000082733,0.529571748813491
18900.0000000055,36.5634956669031,1.0000000007612,0.528463628373946
19000.000000004,36.5670858460498,1.0000000007683,0.522652264288156
19100.0000000026,36.5760211692111,1.000000000789,0.520583840859487
19200.0000000011,36.5877151523435,1.00000000078603,0.522339536821377
19299.9999999996,36.6029256027663,1.00000000080685,0.519939889389197
19399.9999999982,36.6213409092594,1.00000000080216,0.522551244957383
19499.9999999967,36.6400813919431,1.00000000083199,0.536128690099381
19599.9999999953,36.6535971355474,1.00000000086782,0.553028413442023
19699.9999999938,36.6611826907411,1.00000000084268,0.561232337879793
19799.9999999924,36.6652065857731,1.00000000085131,0.562244252513554
19899.9999999909,36.6678721631595,1.00000000075525,0.56066402761105
19999.9999999895,36.6706796464544,1.00000000082072,0.562599610476334
20099.999999988,36.672756442579,1.00000000082281,0.566488214637469
20199.9999999865,36.6693928480512,1.00000000085326,0.572556655126662
20299.9999999851,36.6603652982098,1.00000000080142,0.583120505870217
20399.9999999836,36.6471778842038,1.00000000081916,0.589686799635239
20499.9999999822,36.6313864452773,1.00000000079655,0.588936990103302
20599.9999999807,36.6091214933201,1.00000000081378,0.58465950101584
20699.9999999793,36.5796680713369,1.00000000076352,0.582724067912034
20799.9999999778,36.5451009721649,1.00000000079619,0.581195019886099
20899.9999999764,36.5055158112704,1.000000000833,0.575526564147301
20999.9999999749,36.4588692505644,1.00000000083935,0.567590028848228
21099.9999999734,36.4027923803921,1.00000000087127,0.56646388954555
21199.999999972,36.3377443866672,1.00000000091852,0.576520935704571
21299.9999999705,36.2647625893305,1.00000000090332,0.582226137001995
21399.9999999691,36.1870624939964,1.000000000847,0.583142064537271
21499.9999999676,36.1075079083423,1.00000000079297,0.582385666294836
21599.9999999662,36.0294026646129,1.00000000077556,0.583450048858785
21699.9999999647,35.9549269775635,1.00000000074769,0.579758930428197
21799.9999999633,35.8860389858572,1.0000000007404,0.57532147923796
21899.9999999618,35.8219200355562,1.00000000079299,0.572743405243952
21999.9999999603,35.7614789581465,1.00000000081661,0.568408495896738
22099.9999999589,35.7032404764521,1.00000000083483,0.570140763613024
22199.9999999574,35.646208590681,1.00000000086931,0.569143943285318
22299.999999956,35.5897417880918,1.00000000092208,0.563880434440452
22399.9999999545,35.5325816283009,1.00000000089824,0.557419830925898
22499.9999999531,35.4751057344228,1.00000000086907,0.550585167115413
22599.9999999516,35.417692285547,1.00000000083157,0.550853216584425
22699.9999999502,35.3648007766845,1.00000000082103,0.5560813321703
22799.9999999487,35.3217487315828,1.00000000079147,0.556414069822968
22899.9999999473,35.2918608499327,1.00000000069875,0.555383722975726
22999.9999999458,35.2756077234663,1.00000000078497,0.551123176654871
23099.9999999443,35.2703466108528,1.00000000073682,0.546961944406815
23199.9999999429,35.2749141804843,1.0000000007762,0.545899266428753
23299.9999999414,35.2872677897821,1.00000000082782,0.542215548555165
23399.99999994,35.3030419074092,1.00000000083684,0.537189014719786
23499.9999999385,35.3209663549832,1.0000000008516,0.535926737429891
23599.9999999371,35.3433086676817,1.00000000079281,0.533729210960469
23699.9999999356,35.3720461964503,1.00000000078464,0.536059487054511
23799.9999999342,35.4058271532558,1.0000000008076,0.536091066912418
23899.9999999327,35.4427662871748,1.00000000078886,0.536318659482108
23999.9999999312,35.482958732711,1.00000000083264,0.537800456912292
24099.9999999298,35.5259701432284,1.00000000080381,0.537159875909427
24199.9999999283,35.5710941896299,1.00000000080964,0.539719526600187
24299.9999999269,35.6147458285879,1.0000000008289,0.546696044741383
24399.9999999254,35.6534770896395,1.00000000091606,0.562218816592057
24499.999999924,35.6872454703717,1.00000000088548,0.572865751607534
24599.9999999225,35.717258677199,1.00000000080984,0.575342771097286
24699.9999999211,35.7444882214493,1.00000000084481,0.581302654015049
24799.9999999196,35.7693954347136,1.00000000085649,0.588319019029391
24899.9999999181,35.7923461342082,1.00000000082984,0.59163684348934
24999.9999999167,35.8131427959913,1.00000000078755,0.59033473061391
25099.9999999152,35.8324000600816,1.00000000083823,0.593943275088017
25199.9999999138,35.8499069323459,1.00000000084831,0.599980277882756
25299.9999999123,35.8644060304737,1.00000000090798,0.604428026526436
25399.9999999109,35.8751126562757,1.00000000084392,0.601181012996787
25499.9999999094,35.8841742425063,1.00000000082569,0.597393241068183
25599.999999908,35.8918878000102,1.00000000084195,0.599152166185363
25699.9999999065,35.895853910748,1.00000000085742,0.599079879893258
25799.9999999051,35.8958218097706,1.00000000088406,0.604808710999229
25899.9999999036,35.8916799452558,1.00000000084417,0.614406598433626
25999.9999999021,35.8846269324265,1.00000000084362,0.609587115195173
26099.9999999007,35.8758938676153,1.00000000082562,0.608495386699648
26199.9999998992,35.8640990980121,1.00000000083818,0.608908374557221
26299.9999998978,35.8489873881495,1.00000000082815,0.609970757274567
26399.9999998963,35.8326573396336,1.00000000085306,0.604296528941481
26499.9999998949,35.8150757939441,1.00000000080274,0.595046557762236
26599.9999998934,35.7947607502205,1.00000000086073,0.593796413922167
26699.999999892,35.7718658127087,1.00000000086328,0.592427585114898
26799.9999998905,35.7454676419423,1.00000000084457,0.598423607343801
26899.999999889,35.7126852134172,1.00000000089174,0.605277278973643
26999.9999998876,35.6751702043215,1.00000000089693,0.604924219939943
27099.9999998861,35.6352928466064,1.00000000085164,0.609021182180816
27199.9999998847,35.5947152533251,1.00000000080515,0.610670478906298
27299.9999998832,35.5548557911317,1.00000000080263,0.611244056936957
27399.9999998818,35.5160839594838,1.00000000084712,0.614025918951165
27499.9999998803,35.4758876656648,1.00000000083049,0.61470034655256
27599.9999998789,35.4338625767496,1.00000000084469,0.608889834645435
27699.9999998774,35.3901135887175,1.00000000083811,0.603862942357465
27799.9999998759,35.3434993452801,1.00000000089468,0.60828780251893
27899.9999998745,35.2927534381955,1.00000000088002,0.606351115615624
27999.999999873,35.2388408698759,1.00000000089887,0.607932367310832
28099.9999998716,35.1815383120069,1.00000000087746,0.607283337913186
28199.9999998701,35.1200057274404,1.00000000090347,0.608931319190397
28299.9999998687,35.0542369926117,1.00000000092148,0.60858823336943
28399.9999998672,34.9847244323829,1.00000000091735,0.614260664367264
28499.9999998658,34.9125688864077,1.00000000086992,0.620236021976097
28599.9999998643,34.8385592448581,1.0000000008686,0.623132043206091
28699.9999998629,34.7631027511349,1.00000000083031,0.626422909666308
28799.9999998614,34.6875836551673,1.0000000008415,0.626552191352878
28899.9999998599,34.6133554177411,1.00000000077478,0.619781305351402
28999.9999998585,34.5417414750518,1.00000000075639,0.615977364793112
