Time,AGPnorm,Energy,Entropy
0,0,1,3.36359782900564e-18
99.9999999999986,0.00341121135552779,0.999999999997593,0.0114693481975559
199.999999999993,0.00972366579512913,0.999999999999649,0.0331185964432152
300,0.0203872180530217,0.999999999998123,0.0649523738598956
400.000000000022,0.0320409220768753,0.99999999999959,0.104321500704631
500.000000000045,0.0456596361379583,1.00000000000137,0.15547875997261
600.000000000068,0.0613265969138146,1.00000000003127,0.221806390967761
700.000000000091,0.0786438347662388,1.00000000018481,0.306442851924756
800.000000000113,0.192587529603185,1.00000000052327,0.391581012633848
900.000000000136,0.546000258721093,1.00000000083149,0.460297325727852
1000.00000000016,1.49128581713911,1.00000000113241,0.506129035077472
1100.0000000001,3.17149333844813,1.00000000138658,0.535325257608362
1200,5.72772725529616,1.00000000142438,0.550626790448913
1299.99999999991,9.00600960047497,1.00000000148062,0.559003562011249
1399.99999999982,12.8621577235795,1.00000000145383,0.559291113823784
1499.99999999973,16.9950666149543,1.00000000142854,0.556717058526285
1599.99999999964,21.2043743421604,1.00000000133639,0.551089160159695
1699.99999999955,25.2402253515023,1.00000000130016,0.546405089917
1799.99999999946,28.9723435498043,1.00000000119802,0.535694311764313
1899.99999999937,32.2511985450609,1.00000000109862,0.533063524776546
1999.99999999928,35.0310218734824,1.00000000107575,0.517352830519872
2099.99999999919,37.2516043185375,1.00000000099894,0.521572448509101
2199.99999999909,38.9561837326621,1.00000000090386,0.512623288380551
2299.999999999,40.0979603869579,1.00000000078577,0.488118352414085
2399.99999999891,40.8050465360766,1.00000000090772,0.535243724032582
2499.99999999882,41.1612559969862,1.00000000075049,0.48172572312237
2599.99999999873,41.0380973759266,1.00000000064021,0.461058361710489
2699.99999999864,40.7135041367514,1.00000000102757,0.556258124821203
2799.99999999855,40.3313559053801,1.00000000082662,0.504031590129021
2899.99999999846,39.6607727892293,1.00000000040918,0.377572719630941
2999.99999999837,38.7854280291896,1.00000000081229,0.495200503546621
3099.99999999828,37.9879530173915,1.00000000128669,0.572023225834163
3199.99999999819,37.2830783942789,1.00000000089697,0.503079954945178
3299.99999999809,36.4519128568865,1.00000000036256,0.329613589999869
3399.999999998,35.4994925915227,1.00000000058305,0.38657803343481
3499.99999999791,34.5608590727219,1.00000000115634,0.521144385002086
3599.99999999782,33.7304018104703,1.00000000127608,0.559686539318979
3699.99999999773,33.0025323824844,1.00000000100512,0.531952996681065
3799.99999999764,32.2644377491331,1.00000000058044,0.380858497311684
3899.99999999755,31.4928736632144,1.0000000003561,0.291370589351699
3999.99999999746,30.7469666774664,1.0000000006866,0.397839853127953
4099.99999999738,30.0176459097642,1.00000000101825,0.517473970341533
4199.99999999775,29.3093814152929,1.00000000103607,0.504882948318781
4299.99999999811,28.6401543208101,1.00000000117884,0.530815745503762
4399.99999999848,28.0234708401674,1.0000000010758,0.56378157405299
4499.99999999884,27.4365065260304,1.00000000066046,0.469936382034704
4599.9999999992,26.8746120718092,1.00000000033229,0.324942627053993
4699.99999999957,26.4006210834709,1.00000000044945,0.297982398067967
4799.99999999993,26.0187425928649,1.0000000007111,0.39290211001553
4900.00000000029,25.6425696052008,1.00000000099577,0.490458589308795
5000.00000000066,25.2192129597864,1.0000000011115,0.546233504043142
5100.00000000102,24.789069275433,1.00000000070514,0.505678940478524
5200.00000000139,24.3779030151707,1.00000000069201,0.458948458476193
5300.00000000175,23.9551186733355,1.00000000116022,0.497559342268905
5400.00000000211,23.5179185013026,1.00000000130627,0.551389422946064
5500.00000000248,23.0943752575997,1.00000000107496,0.568970307496099
5600.00000000284,22.6912586212362,1.00000000079728,0.502399777721808
5700.00000000321,22.3296624986407,1.00000000041639,0.383779333514599
5800.00000000357,22.0801106128393,1.000000000308,0.304511318919105
5900.00000000393,21.9886258924036,1.00000000046938,0.308194143771458
6000.0000000043,21.9993893849415,1.00000000074933,0.39197068226954
6100.00000000466,22.0069695817451,1.00000000092473,0.480692754910806
6200.00000000502,21.9632261297073,1.00000000090201,0.521036437542098
6300.00000000539,21.8628332227872,1.00000000093929,0.515479426066317
6400.00000000575,21.7045670546605,1.00000000098865,0.530452903357907
6500.00000000612,21.5011561371555,1.00000000097078,0.543403019518651
6600.00000000648,21.28850216855,1.00000000074571,0.521365344719716
6700.00000000684,21.0952188666224,1.00000000067783,0.4972927262907
6800.00000000721,20.9102477976294,1.00000000077445,0.50949644354943
6900.00000000757,20.7123149765762,1.00000000085491,0.515482558302355
7000.00000000793,20.4929539969951,1.00000000092044,0.514867997397886
7100.0000000083,20.2457394703698,1.00000000111525,0.524736803384241
7200.00000000866,19.9783586091674,1.0000000012419,0.553303279132073
7300.00000000903,19.7097384629663,1.00000000119331,0.573073935647771
7400.00000000939,19.447844566108,1.00000000091473,0.552135068000462
7500.00000000975,19.1990293796024,1.00000000061267,0.482927819349784
7600.00000001012,19.00121902102,1.00000000040076,0.394457241634221
7700.00000001048,18.9206115148243,1.00000000032634,0.331775760882005
7800.00000001084,19.0123980805602,1.00000000035055,0.308275759629292
7900.00000001121,19.2724970992664,1.00000000055664,0.337448544515996
8000.00000001157,19.6234255324362,1.00000000077427,0.40168845522312
8100.00000001194,19.9793752584351,1.00000000092778,0.458625970149922
8200.0000000123,20.2685213101985,1.00000000099217,0.508490233641558
8300.00000001266,20.4809403136629,1.00000000093826,0.528836719777506
8400.00000001303,20.6359291105305,1.00000000089428,0.537404396635605
8500.00000001339,20.7301605142959,1.00000000087338,0.559175544346396
8600.00000001376,20.7639109760225,1.0000000009711,0.57151689291529
8700.00000001412,20.7570932810275,1.00000000080668,0.552033445543769
8800.00000001448,20.7229504612409,1.00000000087762,0.541059560287057
8900.00000001485,20.6611868151584,1.00000000086781,0.535912805102503
9000.00000001521,20.5701855585215,1.00000000098898,0.542341668701601
9100.00000001557,20.4576895483894,1.00000000084949,0.540606632648909
9200.00000001594,20.3508611245918,1.00000000072995,0.529707037691449
9300.0000000163,20.2649618455657,1.00000000069289,0.517736292653585
9400.00000001667,20.1841994427898,1.00000000081252,0.519801387372472
9500.00000001703,20.0962174453836,1.00000000084568,0.526179546980887
9600.00000001739,20.0049187518941,1.00000000081817,0.529048053474165
9700.00000001776,19.9133851115876,1.0000000008332,0.532729039403603
9800.00000001812,19.8181001064388,1.00000000084577,0.53852382048401
9900.00000001848,19.7093125376183,1.00000000092792,0.550775086233806
10000.0000000188,19.5878936694681,1.00000000081312,0.563602230797386
10100.0000000192,19.4611110724269,1.00000000082745,0.569771509010878
10200.0000000196,19.3363261451027,1.00000000066843,0.560409754107099
10300.0000000199,19.2100193822206,1.00000000077364,0.561233617681272
10400.0000000203,19.0727292760259,1.00000000087299,0.569478516011794
10500.0000000207,18.9218872186784,1.00000000090265,0.564996422537562
10600.000000021,18.7606108738525,1.00000000108891,0.57479389567352
10700.0000000214,18.5957906341348,1.00000000119155,0.57781053859519
10800.0000000218,18.4371111211785,1.00000000119643,0.581472015960594
10900.0000000221,18.2912486380161,1.00000000117227,0.585893331025478
11000.0000000225,18.1557503673249,1.0000000010988,0.583475524833809
11100.0000000229,18.017767916634,1.00000000092005,0.564692831843364
11200.0000000232,17.868015101868,1.00000000067258,0.521942882043798
11300.0000000236,17.7152398126489,1.00000000054005,0.466272339500481
11400.0000000239,17.5921962871012,1.00000000037756,0.407313833674924
11500.0000000243,17.5470517135703,1.00000000033724,0.360257823736304
11600.0000000247,17.6307532741379,1.00000000029648,0.327709234504293
11700.000000025,17.8802242454684,1.00000000041312,0.329731100642949
11800.0000000254,18.2939013588908,1.00000000048983,0.340846547020333
11900.0000000258,18.8469166555747,1.00000000064643,0.366608955340667
12000.0000000261,19.465467311922,1.00000000087561,0.408860451343518
12100.0000000265,20.0908560680197,1.00000000090694,0.445069598810169
12200.0000000269,20.6824267299038,1.00000000099686,0.479313587697489
12300.0000000272,21.2065567542544,1.00000000101889,0.50950200446987
12400.0000000276,21.6602280844431,1.00000000090336,0.530874753445079
12500.0000000279,22.0537894343665,1.00000000094356,0.536527754174862
12600.0000000283,22.3864706666806,1.00000000089713,0.55398414859933
12700.0000000287,22.6617132934226,1.00000000093018,0.575228771809984
12800.000000029,22.8846012387436,1.00000000088138,0.576854222677172
12900.0000000294,23.0586844945124,1.00000000093337,0.576658499786407
13000.0000000298,23.190288506998,1.00000000084552,0.576589267186306
13100.0000000301,23.2884076118059,1.00000000082269,0.588027793493577
13200.0000000305,23.3482505807309,1.00000000095562,0.60114590610641
13300.0000000309,23.3726045053778,1.00000000083464,0.588121666519648
13400.0000000312,23.3773172886789,1.0000000008175,0.574231718160617
13500.0000000316,23.36008732616,1.00000000090629,0.563357236525443
13600.0000000319,23.3251878749837,1.00000000089222,0.558904245394185
13700.0000000323,23.2870881407038,1.00000000076776,0.551511817465149
13800.0000000327,23.2396022374242,1.00000000091413,0.567077391200499
13900.000000033,23.1768849511967,1.00000000086554,0.565424379070667
14000.0000000334,23.1024537831351,1.0000000008738,0.579154959640399
14100.0000000338,23.0189285116468,1.0000000008865,0.579710288636513
14200.0000000341,22.9260993098979,1.00000000089744,0.576091436495578
14300.0000000345,22.8266387333686,1.00000000086306,0.576677454305827
14400.0000000349,22.7226578052021,1.00000000083034,0.578372592909559
14500.0000000352,22.619155691453,1.00000000080465,0.564333516361621
14600.0000000356,22.5223360885286,1.00000000071545,0.55089897652177
14700.0000000359,22.4326492809242,1.0000000007911,0.547472417329959
14800.0000000363,22.3420615344621,1.00000000092236,0.554818884236543
14900.0000000367,22.2488437396726,1.00000000090644,0.562547921443614
15000.000000037,22.1532862941191,1.00000000093245,0.565195917624234
15100.0000000374,22.0507992045426,1.00000000090625,0.573192438672535
15200.0000000378,21.9457527333018,1.0000000007936,0.568775727818069
15300.0000000381,21.8473838714664,1.00000000074366,0.563135187597818
15400.0000000385,21.7606659501909,1.00000000077053,0.561348050836664
15500.0000000389,21.6836751783843,1.0000000008059,0.549995386684034
15600.0000000392,21.6135004336121,1.0000000007517,0.553493653945746
15700.0000000396,21.5549226859585,1.00000000068499,0.536530947779484
15800.0000000399,21.5049824719252,1.00000000085574,0.524252372359272
15900.0000000403,21.4525085436067,1.00000000088736,0.522064961467946
16000.0000000407,21.3987748964113,1.00000000081179,0.529653182574349
16100.000000041,21.3519265391455,1.00000000078149,0.534503779622751
16200.0000000414,21.3112936562631,1.00000000083845,0.554488649026152
16300.0000000418,21.2688750887878,1.00000000084801,0.575242628510752
16400.0000000418,21.2251907336613,1.00000000087437,0.582060900813455
16500.0000000404,21.1758015009292,1.00000000087213,0.575499001891238
16600.0000000389,21.1172262124801,1.00000000091011,0.561373108700981
16700.0000000375,21.0560271624181,1.00000000080484,0.55744808375919
16800.000000036,21.0017072169465,1.00000000076118,0.566109070595068
16900.0000000346,20.9478995657237,1.00000000089343,0.580224193019803
17000.0000000331,20.8868182610187,1.00000000086392,0.591911347363111
17100.0000000317,20.8255823115625,1.00000000078914,0.593007360158608
17200.0000000302,20.7647494178601,1.00000000084169,0.597267142867669
17300.0000000287,20.695905605041,1.00000000090351,0.604805216071282
17400.0000000273,20.6209980078116,1.0000000008377,0.598364221222968
17500.0000000258,20.5431002519341,1.00000000087858,0.596320751546779
17600.0000000244,20.4606048587211,1.00000000088351,0.601466413911419
17700.0000000229,20.3753097201207,1.00000000082615,0.605219326513251
17800.0000000215,20.2942102459866,1.00000000072097,0.593957038406903
17900.00000002,20.2171518260734,1.00000000084101,0.589158221110121
18000.0000000186,20.1379312858635,1.00000000090839,0.588466552374142
18100.0000000171,20.0561639363345,1.00000000084471,0.575907594805123
18200.0000000156,19.9745537163487,1.00000000078315,0.583387212312904
18300.0000000142,19.8953656070526,1.00000000080013,0.592713843815522
18400.0000000127,19.8158295832966,1.00000000087615,0.598429936693711
18500.0000000113,19.735790831685,1.00000000079725,0.592570688513423
18600.0000000098,19.657413674812,1.00000000078253,0.591269302193962
18700.0000000084,19.581073887332,1.00000000081848,0.590263341578439
18800.0000000069,19.5022252278121,1.00000000093507,0.582074582731013
18900.0000000055,19.4190672906128,1.00000000087108,0.593089849482613
19000.000000004,19.3341362120444,1.00000000086282,0.588101293253691
19100.0000000026,19.2477774091444,1.00000000087091,0.587935630948274
19200.0000000011,19.1600462199008,1.00000000085159,0.591332684241639
19299.9999999996,19.0700395102746,1.00000000096385,0.608484340822811
19399.9999999982,18.9772625374827,1.00000000099364,0.617147340958701
19499.9999999967,18.883441342786,1.00000000087186,0.616868313492201
19599.9999999953,18.7908039291381,1.00000000076493,0.59605748828107
19699.9999999938,18.70019217351,1.00000000083162,0.603459368428896
19799.9999999924,18.6079536114576,1.00000000097816,0.614930879972027
19899.9999999909,18.5151391607272,1.00000000096275,0.622190369083501
19999.9999999895,18.4234514515071,1.00000000077621,0.604080193302891
20099.999999988,18.3324348181122,1.00000000076777,0.586060948319893
20199.9999999865,18.2421589526143,1.00000000081784,0.604499367303343
20299.9999999851,18.15284411375,1.00000000080747,0.611445374939227
20399.9999999836,18.064533254059,1.00000000071655,0.605056906652695
20499.9999999822,17.9773816416318,1.00000000077641,0.602115921989256
20599.9999999807,17.8918061606254,1.00000000076437,0.602390729587326
20699.9999999793,17.8090570102451,1.00000000082994,0.613585916518098
20799.9999999778,17.7304338862303,1.00000000089426,0.605822926377668
20899.9999999764,17.6585213042684,1.00000000094712,0.603768892756858
20999.9999999749,17.5963792335934,1.00000000095905,0.617651641559388
21099.9999999734,17.546981598704,1.00000000102337,0.616590490216852
21199.999999972,17.5185158120717,1.00000000103275,0.619200632543872
21299.9999999705,17.5093802806815,1.00000000108331,0.628190400936768
21399.9999999691,17.5339579013303,1.00000000113629,0.630679942106104
21499.9999999676,17.5846048092605,1.00000000117264,0.635440840714907
21599.9999999662,17.6793208131658,1.00000000124503,0.639037211537987
21699.9999999647,17.7995937779762,1.0000000012085,0.63129376061949
21799.9999999633,17.9630404643718,1.00000000129792,0.6245354291315
21899.9999999618,18.1467137368985,1.00000000117356,0.613616055282076
21999.9999999603,18.3532342968289,1.00000000114509,0.601186959344389
22099.9999999589,18.5516950621216,1.00000000106733,0.593091844146324
22199.9999999574,18.7295676044634,1.00000000089593,0.582251017021124
22299.999999956,18.8671562678515,1.00000000080968,0.56021097078351
22399.9999999545,18.9533922520241,1.00000000071459,0.534993355055554
22499.9999999531,18.9860191559302,1.00000000065221,0.504185809450106
22599.9999999516,18.9699905551297,1.00000000053413,0.473427170924624
22699.9999999502,18.9147109405402,1.00000000044524,0.442520345432466
22799.9999999487,18.8475958837198,1.00000000039583,0.412051510015724
22899.9999999473,18.7860143667383,1.00000000038496,0.387693080081562
22999.9999999458,18.7671798903155,1.00000000035251,0.364333324468986
23099.9999999443,18.817240646393,1.00000000032258,0.347265032404842
23199.9999999429,18.9620294807983,1.00000000031563,0.33495839735822
23299.9999999414,19.2365169584385,1.00000000033984,0.331032207897399
23399.99999994,19.639899394324,1.00000000038724,0.334512887004235
23499.9999999385,20.2005443258299,1.0000000004279,0.339397333104809
23599.9999999371,20.8948915420608,1.00000000055667,0.353308469629947
23699.9999999356,21.7137917455598,1.00000000059171,0.364259908250156
23799.9999999342,22.6408582087902,1.00000000065934,0.378813011087431
23899.9999999327,23.6214776847483,1.00000000084391,0.395632201834607
23999.9999999312,24.6662780710143,1.00000000079791,0.412369236626799
24099.9999999298,25.7047374021628,1.00000000096143,0.428524794986026
24199.9999999283,26.7576542037599,1.00000000093674,0.450638247132608
24299.9999999269,27.7689132071705,1.00000000096438,0.464626049174923
24399.9999999254,28.7543157538153,1.00000000100319,0.469183279658179
24499.999999924,29.6802584007211,1.00000000096571,0.489476624817667
24599.9999999225,30.5591123725876,1.00000000098733,0.499718080791843
24699.9999999211,31.3893900031103,1.0000000010101,0.509786878559275
24799.9999999196,32.1499148943648,1.00000000097841,0.518399593779576
24899.9999999181,32.8674907458958,1.00000000099047,0.532104754277888
24999.9999999167,33.5267354633975,1.00000000092299,0.539863725598676
25099.9999999152,34.1499616164984,1.00000000094776,0.55062777366954
25199.9999999138,34.7212250924063,1.00000000090465,0.559255724268451
25299.9999999123,35.2485074478682,1.00000000089676,0.56215450625071
25399.9999999109,35.7374906486071,1.00000000088701,0.579274123879785
25499.9999999094,36.1765783210267,1.00000000092228,0.590727208055193
25599.999999908,36.5899829689206,1.00000000093701,0.591803318687776
25699.9999999065,36.9621008454596,1.00000000089468,0.586066533097467
25799.9999999051,37.3037175346859,1.00000000102559,0.605114150728965
25899.9999999036,37.5900032889129,1.00000000097454,0.621696185116464
25999.9999999021,37.8432260566552,1.00000000095521,0.621357790661163
26099.9999999007,38.0716834558101,1.00000000087891,0.612075625362278
26199.9999998992,38.2772845025286,1.00000000097015,0.605527071994404
26299.9999998978,38.4565879964385,1.00000000094365,0.617311516005388
26399.9999998963,38.5950542902533,1.00000000107569,0.627339988551961
26499.9999998949,38.7029141815892,1.00000000093551,0.635545878407296
26599.9999998934,38.7838015137741,1.00000000094153,0.627276187758296
26699.999999892,38.8590311678219,1.00000000080986,0.608433498126835
26799.9999998905,38.9217450989989,1.00000000087606,0.60056295753861
26899.999999889,38.9684671965278,1.0000000009197,0.611054325214071
26999.9999998876,38.9898543959392,1.0000000009391,0.623836177901907
27099.9999998861,38.9886521864447,1.00000000091355,0.618939455986171
27199.9999998847,38.9753638119738,1.00000000088606,0.618375714382979
27299.9999998832,38.9545823345455,1.00000000080148,0.604128286412206
27399.9999998818,38.9324440920183,1.00000000082995,0.601480385756299
27499.9999998803,38.9002064118188,1.00000000093318,0.600750567978948
27599.9999998789,38.8583276223652,1.00000000093682,0.587634888326374
27699.9999998774,38.806820211924,1.00000000088765,0.588846226607696
27799.9999998759,38.7498102566336,1.00000000080111,0.597646032919209
27899.9999998745,38.6858379181499,1.00000000094103,0.622008254809439
27999.999999873,38.6159398554174,1.00000000090362,0.619283599254449
28099.9999998716,38.5456591944513,1.00000000085712,0.59304281586559
28199.9999998701,38.479188620879,1.00000000071073,0.572458205768769
28299.9999998687,38.4137887639704,1.00000000092569,0.590863905013473
28399.9999998672,38.3352254292416,1.00000000104389,0.586471924557335
28499.9999998658,38.2468740983563,1.0000000009213,0.586011950966257
28599.9999998643,38.1553688528427,1.00000000082293,0.574923163184487
28699.9999998629,38.0657219995153,1.00000000085821,0.561265836155484
28799.9999998614,37.9761611434406,1.00000000089466,0.583606152475134
28899.9999998599,37.8813412121354,1.0000000010058,0.596105241745594
28999.9999998585,37.7798799837198,1.00000000102571,0.610173957746452
