Time,AGPnorm,Energy,Entropy
0,0,1,-7.30381242869812e-17
99.9999999999986,0.00215548311005673,1.00000000000085,0.00641759065279098
199.999999999993,0.014413654771551,1.00000000000069,0.0186026476932544
300,0.028847189923724,1.00000000000019,0.0341788342389879
400.000000000022,0.0429993461720966,1.0000000000002,0.0538866329908122
500.000000000045,0.0596105989948236,0.999999999999949,0.0781718130552142
600.000000000068,0.0809093453825707,1.00000000000051,0.107278660928756
700.000000000091,0.100375424116591,1.00000000000117,0.142178563248624
800.000000000113,0.11970036773563,1.00000000001474,0.186519648141231
900.000000000136,0.137459112216385,1.00000000014706,0.245193401029586
1000.00000000016,0.153189135731601,1.00000000051885,0.311025443472355
1100.0000000001,0.225594614000334,1.00000000105426,0.371947508137561
1200,0.431985769068209,1.00000000161826,0.423336773644266
1299.99999999991,0.837330100219924,1.00000000209767,0.466340518905544
1399.99999999982,1.55859212574569,1.00000000242167,0.501250502156498
1499.99999999973,2.69680124965368,1.00000000282637,0.528351426420896
1599.99999999964,4.25902426347196,1.00000000287686,0.550127013199257
1699.99999999955,6.21233385028967,1.00000000286272,0.567114740439693
1799.99999999946,8.52166329777175,1.00000000297887,0.578917952532182
1899.99999999937,11.1028982013892,1.00000000283587,0.587284780540115
1999.99999999928,13.8416883992133,1.00000000286236,0.593453085769217
2099.99999999919,16.6603063905067,1.00000000269434,0.597190551822861
2199.99999999909,19.492742970978,1.00000000279442,0.59815864736711
2299.999999999,22.2535915257302,1.00000000253288,0.598487826162595
2399.99999999891,24.8585423316817,1.00000000249054,0.597246535799543
2499.99999999882,27.2595374458121,1.0000000023639,0.596529205746191
2599.99999999873,29.4389696487207,1.00000000213227,0.59429233633117
2699.99999999864,31.3761539536481,1.00000000209946,0.590387268038302
2799.99999999855,33.0475837747892,1.0000000020026,0.587849876176523
2899.99999999846,34.4410616304922,1.00000000188877,0.586653244518993
2999.99999999837,35.5644696513174,1.00000000190386,0.584842198154541
3099.99999999828,36.4370653963714,1.00000000184129,0.582995104152123
3199.99999999819,37.0687163588671,1.00000000180139,0.584854453840193
3299.99999999809,37.4717498022124,1.00000000173643,0.579163468048895
3399.999999998,37.6740071080515,1.0000000015946,0.579894447888859
3499.99999999791,37.6964640286095,1.00000000173929,0.578663970926374
3599.99999999782,37.5810630394054,1.00000000151846,0.569871384931917
3699.99999999773,37.3408745298275,1.00000000168815,0.576578498443387
3799.99999999764,37.0078567866093,1.00000000146055,0.560082375487223
3899.99999999755,36.5872117140683,1.00000000184451,0.576589176435417
3999.99999999746,36.1192305536617,1.00000000147308,0.54999349691284
4099.99999999738,35.5934224231737,1.00000000202968,0.576350214484627
4199.99999999775,35.0591126024681,1.00000000157194,0.546426976434051
4299.99999999811,34.4786733958014,1.00000000162312,0.546816125782509
4399.99999999848,33.9068959491981,1.00000000185289,0.55062290609448
4499.99999999884,33.3182986505302,1.00000000144692,0.521196389857572
4599.9999999992,32.7242302498116,1.00000000207305,0.566380580248043
4699.99999999957,32.1500980436123,1.0000000016018,0.521564201643997
4799.99999999993,31.5676113655438,1.00000000153647,0.519719895628671
4900.00000000029,30.9911310751109,1.0000000020921,0.554660465099825
5000.00000000066,30.4350636650916,1.00000000166056,0.507512027108169
5100.00000000102,29.8848588152368,1.00000000158875,0.522952054001565
5200.00000000139,29.3422662923313,1.00000000186209,0.527145232497335
5300.00000000175,28.8174447454812,1.00000000197965,0.531453556390686
5400.00000000211,28.3073079745618,1.00000000148799,0.493496229877602
5500.00000000248,27.8086032614212,1.00000000165476,0.536944422379517
5600.00000000284,27.3237484972222,1.00000000170713,0.522890422795733
5700.00000000321,26.855023281472,1.00000000188588,0.516710682167576
5800.00000000357,26.4019279510109,1.00000000153939,0.505154697831351
5900.00000000393,25.9654506143174,1.00000000169633,0.536343988730229
6000.0000000043,25.5417500678637,1.00000000173587,0.541686707485332
6100.00000000466,25.1357050946761,1.00000000161101,0.510699580686952
6200.00000000502,24.7441552781136,1.00000000188268,0.513749179410781
6300.00000000539,24.3682828378612,1.00000000167272,0.512235543215468
6400.00000000575,24.0101975899922,1.00000000173943,0.537526339790827
6500.00000000612,23.66002838464,1.00000000181294,0.545780122972583
6600.00000000648,23.3276740190693,1.00000000151977,0.505154354581889
6700.00000000684,23.011811171385,1.00000000169479,0.517073737318431
6800.00000000721,22.7060500240384,1.00000000185816,0.509847422674943
6900.00000000757,22.4148491198918,1.00000000167748,0.516323765518138
7000.00000000793,22.1365704736499,1.00000000174992,0.538677822840177
7100.0000000083,21.8612076705456,1.00000000198191,0.545563122890983
7200.00000000866,21.6004100551821,1.00000000155888,0.525423905565869
7300.00000000903,21.3544966580291,1.00000000177077,0.513907222432338
7400.00000000939,21.121012120628,1.00000000184568,0.526584050866095
7500.00000000975,20.8970946576087,1.00000000176195,0.51391266327512
7600.00000001012,20.6852346501234,1.00000000175769,0.53063295807047
7700.00000001048,20.4802485354357,1.00000000175806,0.554618515535597
7800.00000001084,20.2814333203293,1.00000000181462,0.54053057822329
7900.00000001121,20.0878787458893,1.0000000018033,0.541065842591061
8000.00000001157,19.9012712546018,1.00000000173774,0.547253006353472
8100.00000001194,19.7265063854152,1.00000000169513,0.526531557888001
8200.0000000123,19.563664365775,1.00000000175994,0.540893397845949
8300.00000001266,19.4125561066497,1.00000000163726,0.531833704300741
8400.00000001303,19.2725037394131,1.00000000158608,0.529244657883667
8500.00000001339,19.1355660145828,1.00000000193025,0.555778325942772
8600.00000001376,18.9975887190858,1.00000000166546,0.562542576309499
8700.00000001412,18.8719168908793,1.00000000157635,0.544724093273343
8800.00000001448,18.7512690461152,1.00000000184542,0.555023633013589
8900.00000001485,18.6253766537409,1.00000000199454,0.569721462157479
9000.00000001521,18.4991924804355,1.00000000182785,0.564308208405197
9100.00000001557,18.3830246995219,1.00000000173678,0.540692426663118
9200.00000001594,18.279860882258,1.00000000184363,0.550326883659761
9300.0000000163,18.1877434416772,1.00000000180958,0.55180551857389
9400.00000001667,18.1039727840657,1.00000000178909,0.545096698144053
9500.00000001703,18.0252214240577,1.00000000173777,0.558515500768207
9600.00000001739,17.9445554669621,1.00000000193686,0.569951574308189
9700.00000001776,17.8604789816951,1.00000000190416,0.565933304255968
9800.00000001812,17.7864685572812,1.00000000154176,0.548980630415672
9900.00000001848,17.7234151411377,1.00000000175267,0.558133481413708
10000.0000000188,17.6571063451705,1.00000000192767,0.57389599517048
10100.0000000192,17.5829891390658,1.00000000194421,0.575539369944741
10200.0000000196,17.5041230566115,1.00000000191131,0.582172198578206
10300.0000000199,17.4258543088913,1.00000000180977,0.583204287112339
10400.0000000203,17.3542313534929,1.0000000018016,0.56755672740832
10500.0000000207,17.2934472032343,1.0000000018308,0.572995251083595
10600.000000021,17.2444959521274,1.00000000179422,0.564847854914535
10700.0000000214,17.2045063816461,1.00000000168654,0.558099217839569
10800.0000000218,17.1691187277647,1.00000000184602,0.567336108254159
10900.0000000221,17.1339947847697,1.00000000187058,0.580191333660084
11000.0000000225,17.0959355414379,1.00000000189272,0.583634754372982
11100.0000000229,17.0608384808027,1.00000000176035,0.574805678522551
11200.0000000232,17.027902395708,1.00000000184976,0.577889340437791
11300.0000000236,16.9983421537186,1.0000000017709,0.577163643762692
11400.0000000239,16.9702213123717,1.00000000197112,0.572767588757281
11500.0000000243,16.9411247200136,1.00000000187656,0.582732943743061
11600.0000000247,16.9074515187693,1.00000000190303,0.590090693687356
11700.000000025,16.8725626080639,1.00000000177707,0.580600284986478
11800.0000000254,16.8353081474916,1.0000000019543,0.581671913003343
11900.0000000258,16.7914252607527,1.00000000204149,0.58300199471411
12000.0000000261,16.7440772197087,1.00000000188351,0.592251235298055
12100.0000000265,16.6981506987167,1.00000000189735,0.590156233033252
12200.0000000269,16.6582566765617,1.00000000191551,0.584334557259644
12300.0000000272,16.6287306899691,1.00000000184885,0.581317621682572
12400.0000000276,16.6087481340165,1.00000000180675,0.564023325738926
12500.0000000279,16.5976491087857,1.00000000178764,0.557349755497666
12600.0000000283,16.5932903830205,1.00000000187088,0.574774225204733
12700.0000000287,16.5888492373162,1.00000000192213,0.586448735734579
12800.000000029,16.5805838537207,1.00000000193904,0.590039666551698
12900.0000000294,16.5724236671519,1.00000000189352,0.584982618772446
13000.0000000298,16.5667413393966,1.00000000191054,0.585471249866541
13100.0000000301,16.5649214969925,1.00000000187921,0.586083448545042
13200.0000000305,16.5628532715833,1.00000000196745,0.587284657141216
13300.0000000309,16.5578314929713,1.00000000191561,0.591498389677305
13400.0000000312,16.5561265581923,1.00000000184477,0.591504942751826
13500.0000000316,16.5574310790724,1.00000000198952,0.602836640399818
13600.0000000319,16.5531243780738,1.00000000213732,0.619333279642833
13700.0000000323,16.5411000321672,1.00000000200598,0.618417158709031
13800.0000000327,16.5266907821451,1.0000000019545,0.612145560656516
13900.000000033,16.515028979396,1.00000000189375,0.61607859572355
14000.0000000334,16.506600206961,1.0000000018787,0.611926384905944
14100.0000000338,16.4958854550727,1.00000000199815,0.61771780976609
14200.0000000341,16.4770378273994,1.00000000211853,0.621725270313958
14300.0000000345,16.4477945967455,1.0000000020681,0.617571037728589
14400.0000000349,16.4115929862505,1.00000000208702,0.630866702354597
14500.0000000352,16.3749641396973,1.00000000195033,0.627261074563065
14600.0000000356,16.3443064415995,1.00000000192744,0.615891735618175
14700.0000000359,16.3225387115583,1.0000000019101,0.614867275642624
14800.0000000363,16.3109478468826,1.00000000188907,0.609870287662682
14900.0000000367,16.3090162691568,1.00000000184362,0.60264687945268
15000.000000037,16.3144866408227,1.00000000192538,0.595580723519376
15100.0000000374,16.3242533415644,1.00000000201887,0.598794020185626
15200.0000000378,16.3352107453609,1.00000000207228,0.604987183799719
15300.0000000381,16.3454297053725,1.00000000216831,0.611799018931538
15400.0000000385,16.3555394579641,1.00000000202873,0.614314181427627
15500.0000000389,16.3659401840418,1.00000000201975,0.609236971618564
15600.0000000392,16.3782880698176,1.00000000194739,0.60567312178761
15700.0000000396,16.3930162588992,1.00000000191018,0.611549355425735
15800.0000000399,16.4090416672885,1.00000000198926,0.617354642787481
15900.0000000403,16.423776259755,1.00000000209633,0.623605720662243
16000.0000000407,16.4389101030148,1.0000000019608,0.623944847211681
16100.000000041,16.4537592980497,1.0000000019881,0.625283460150923
16200.0000000414,16.4648506601005,1.00000000211163,0.628085387604099
16300.0000000418,16.4725955923072,1.00000000207896,0.618642835112371
16400.0000000418,16.4783666552806,1.00000000212495,0.612151457215174
16500.0000000404,16.4849755474105,1.00000000206443,0.624693159216212
16600.0000000389,16.4923416045594,1.00000000200747,0.632585861429131
16700.0000000375,16.5006576852029,1.0000000020269,0.632718621693333
16800.000000036,16.5073262982325,1.00000000211016,0.640976129186791
16900.0000000346,16.5127250756471,1.0000000021895,0.640357042877688
17000.0000000331,16.5157059250324,1.00000000215676,0.631750493107295
17100.0000000317,16.5160233646385,1.00000000218007,0.650097446846859
17200.0000000302,16.5121255246308,1.00000000223383,0.652138433432252
17300.0000000287,16.5061146614084,1.00000000205015,0.651730201292565
17400.0000000273,16.4962907574717,1.00000000215844,0.652289705880479
17500.0000000258,16.484060854771,1.00000000197562,0.656517808193551
17600.0000000244,16.4698584982036,1.00000000213474,0.658564682078323
17700.0000000229,16.4507736257153,1.00000000223098,0.65739409752365
17800.0000000215,16.4268341809371,1.0000000022798,0.653893103262415
17900.00000002,16.399283556017,1.00000000223506,0.658750984534526
18000.0000000186,16.3695451487828,1.00000000215252,0.649063465281493
18100.0000000171,16.3407386291069,1.00000000212135,0.657791762340011
18200.0000000156,16.3152538749537,1.0000000020418,0.653187826454175
18300.0000000142,16.2933731833495,1.00000000207596,0.640356202262733
18400.0000000127,16.2796471564128,1.00000000210825,0.632300067221203
18500.0000000113,16.2741492736298,1.00000000208016,0.627165109547454
18600.0000000098,16.2752351578085,1.00000000199254,0.622655557796171
18700.0000000084,16.2860350891837,1.00000000199664,0.61289869665976
18800.0000000069,16.3024865141078,1.00000000225293,0.604774160574263
18900.0000000055,16.3250846129405,1.00000000206259,0.60349098322217
19000.000000004,16.3491166934724,1.00000000226352,0.61355171665647
19100.0000000026,16.3720109118428,1.00000000226003,0.622831682114042
19200.0000000011,16.3941739312566,1.00000000240969,0.626952363135051
19299.9999999996,16.4187943577952,1.00000000205782,0.620510193280343
19399.9999999982,16.4456742451477,1.00000000211423,0.620376483075673
19499.9999999967,16.4742467632605,1.00000000219356,0.623918086493776
19599.9999999953,16.5032781257675,1.00000000219325,0.612686344525564
19699.9999999938,16.5344492363873,1.00000000219595,0.611945246363409
19799.9999999924,16.567398239506,1.00000000224744,0.617856570969354
19899.9999999909,16.5983454082649,1.00000000228213,0.624481340609903
19999.9999999895,16.627267798656,1.00000000220315,0.627942939272197
20099.999999988,16.6550873923144,1.00000000223179,0.629100214843987
20199.9999999865,16.6825948921021,1.00000000222874,0.633490917229191
20299.9999999851,16.7095040471206,1.0000000022959,0.63624996297036
20399.9999999836,16.7336946970389,1.00000000233681,0.636563058537019
20499.9999999822,16.753271334099,1.00000000238253,0.641174053015463
20599.9999999807,16.7713591095469,1.00000000215339,0.647493605357882
20699.9999999793,16.7890670320428,1.00000000227463,0.655250644220998
20799.9999999778,16.8071867987161,1.00000000224697,0.654414873780789
20899.9999999764,16.8252823376849,1.00000000218649,0.655417639804478
20999.9999999749,16.84517279356,1.00000000223664,0.653454033510172
21099.9999999734,16.8648440962429,1.00000000229974,0.652231445192026
21199.999999972,16.8850349158854,1.00000000235037,0.664210860247366
21299.9999999705,16.9045381448163,1.00000000236409,0.671284423472134
21399.9999999691,16.9233348994134,1.00000000230787,0.668685090983656
21499.9999999676,16.9396068680177,1.00000000234095,0.669292861961946
21599.9999999662,16.9537045123661,1.00000000240327,0.667952465859683
21699.9999999647,16.9640914747856,1.00000000240281,0.669836062237111
21799.9999999633,16.9750812350944,1.00000000251101,0.673965405406612
21899.9999999618,16.9859483558383,1.00000000233443,0.674803548540133
21999.9999999603,16.9983881216562,1.00000000239264,0.668873119468659
22099.9999999589,17.0104322758519,1.00000000229386,0.669223780740776
22199.9999999574,17.0218080667106,1.00000000240188,0.67738777797098
22299.999999956,17.0318965833371,1.00000000229553,0.669730922030183
22399.9999999545,17.0396142964862,1.00000000229154,0.664381018053472
22499.9999999531,17.044856169979,1.00000000237112,0.664965427152158
22599.9999999516,17.0464163608839,1.0000000025052,0.6680434564555
22699.9999999502,17.0460435576236,1.00000000232216,0.666955188350444
22799.9999999487,17.0464860009697,1.00000000235097,0.66778803445614
22899.9999999473,17.0441903377813,1.00000000254793,0.678574791167548
22999.9999999458,17.038083845969,1.00000000230117,0.674575555347207
23099.9999999443,17.0332935483566,1.00000000240005,0.678554567063014
23199.9999999429,17.0259175545496,1.00000000241987,0.679076939583803
23299.9999999414,17.017119844407,1.00000000235817,0.666594487525908
23399.99999994,17.0067776874339,1.00000000243427,0.674535237844968
23499.9999999385,16.9937721373078,1.00000000237442,0.676676829350946
23599.9999999371,16.9789333849308,1.00000000243338,0.672518275346753
23699.9999999356,16.9626684586396,1.00000000234526,0.66901628849745
23799.9999999342,16.9455667863631,1.00000000255747,0.676231411929783
23899.9999999327,16.9265882008275,1.00000000243718,0.668375282627013
23999.9999999312,16.9073383572114,1.00000000253712,0.672503212565936
24099.9999999298,16.8871783945032,1.00000000245254,0.670120880331811
24199.9999999283,16.8683534464211,1.00000000232862,0.665751604448264
24299.9999999269,16.8538073159664,1.00000000229807,0.656032023389759
24399.9999999254,16.8426239742304,1.00000000247643,0.656242451056341
24499.999999924,16.8351104805337,1.00000000239399,0.652117973218824
24599.9999999225,16.8325246585755,1.00000000231506,0.65469320281738
24699.9999999211,16.8356792256527,1.00000000241121,0.652089402507691
24799.9999999196,16.8453428791477,1.00000000226858,0.649168587338518
24899.9999999181,16.8622729737153,1.00000000233617,0.649196867457517
24999.9999999167,16.8865110464023,1.00000000229699,0.6411449070786
25099.9999999152,16.9175429486744,1.00000000242022,0.638666710671679
25199.9999999138,16.9535492759739,1.00000000243902,0.636876670829534
25299.9999999123,16.9919888023902,1.0000000025519,0.626464096490422
25399.9999999109,17.0307508487961,1.00000000252512,0.628825127468128
25499.9999999094,17.0699909953368,1.00000000228567,0.623558466280963
25599.999999908,17.1109703668336,1.00000000264595,0.634024319238161
25699.9999999065,17.1504690638524,1.00000000266146,0.626700632072071
25799.9999999051,17.1919093202066,1.00000000240001,0.617874525170767
25899.9999999036,17.2375399772865,1.00000000246166,0.616784050882423
25999.9999999021,17.2862535095977,1.00000000236406,0.614014491342329
26099.9999999007,17.3380544119992,1.00000000246253,0.616627367667086
26199.9999998992,17.393079354895,1.00000000252428,0.623662692212219
26299.9999998978,17.4470304968728,1.00000000267983,0.617176100832548
26399.9999998963,17.5027042556229,1.00000000240172,0.622102176300007
26499.9999998949,17.5610634055502,1.00000000247896,0.628490215113368
26599.9999998934,17.6177185339906,1.00000000257378,0.626686301948427
26699.999999892,17.672213214122,1.00000000268383,0.630197607768501
26799.9999998905,17.7294466329333,1.00000000252283,0.640189988089914
26899.999999889,17.785920191975,1.00000000267345,0.655742093654063
26999.9999998876,17.8398383671622,1.00000000259105,0.643371206632634
27099.9999998861,17.8905767292494,1.00000000258971,0.646971565518429
27199.9999998847,17.9378943598127,1.00000000251908,0.641538837722467
27299.9999998832,17.986437944421,1.00000000266484,0.653608639856132
27399.9999998818,18.0295231464942,1.00000000265838,0.666268723442673
27499.9999998803,18.0708151143659,1.00000000243415,0.659865469856343
27599.9999998789,18.1172915487116,1.00000000253221,0.660002386550237
27699.9999998774,18.1632436853559,1.00000000267849,0.655865187333436
27799.9999998759,18.2101694526143,1.00000000256622,0.658124788326494
27899.9999998745,18.2569357350892,1.0000000027873,0.673433576692746
27999.999999873,18.2993592757756,1.00000000264844,0.678229559338931
28099.9999998716,18.3423038342229,1.00000000254821,0.675303721055375
28199.9999998701,18.3854182100688,1.00000000274443,0.690429609722702
28299.9999998687,18.4256556851279,1.00000000272361,0.689184812983186
28399.9999998672,18.4659076108852,1.0000000026905,0.68199661885755
28499.9999998658,18.5076522404053,1.0000000026757,0.683668036805492
28599.9999998643,18.5492079291682,1.00000000276019,0.692049737934817
28699.9999998629,18.5880926537611,1.00000000257971,0.689058028212612
28799.9999998614,18.6230248615688,1.0000000026694,0.693759681236779
28899.9999998599,18.6570006125669,1.00000000259797,0.690867162309807
28999.9999998585,18.6922050023072,1.00000000268505,0.689013186067595
