Time,AGPnorm,Energy,Entropy
0,0,1,-7.24889654577558e-17
99.9999999999986,0.00205737367297762,0.999999999999184,0.00622656893280546
199.999999999993,0.0140376001672469,0.999999999996914,0.0179460460684721
300,0.0283805338870092,0.999999999997334,0.032700415020501
400.000000000022,0.0407953806315104,0.999999999999741,0.0517195759454092
500.000000000045,0.0573360996155882,0.999999999999267,0.0753600704174913
600.000000000068,0.0777586826614543,0.999999999997315,0.103032038597889
700.000000000091,0.0976694988737229,0.999999999997765,0.135869969084258
800.000000000113,0.115319254946811,1.00000000000683,0.176976324772789
900.000000000136,0.133732362052455,1.00000000009546,0.232176445320457
1000.00000000016,0.147842310918511,1.00000000038532,0.296338770772803
1100.0000000001,0.208616671446862,1.00000000087692,0.357142139436636
1200,0.373467553733697,1.0000000014415,0.409488038554488
1299.99999999991,0.69901888851502,1.00000000194965,0.454140751206938
1399.99999999982,1.31942565152664,1.00000000217525,0.491064435163547
1499.99999999973,2.35854315334806,1.00000000257776,0.518961696441203
1599.99999999964,3.81555534846324,1.00000000260818,0.541971790118352
1699.99999999955,5.65415880284277,1.00000000268515,0.56068577429102
1799.99999999946,7.87593804845498,1.0000000027939,0.573712084306416
1899.99999999937,10.4293028145193,1.00000000279973,0.582434719701996
1999.99999999928,13.1855475906479,1.00000000272279,0.589803392732166
2099.99999999919,16.0454001512692,1.00000000255189,0.594624913253002
2199.99999999909,18.9510638348806,1.0000000026977,0.596696659095187
2299.999999999,21.8351707772943,1.0000000025372,0.596586991591159
2399.99999999891,24.6035715636177,1.0000000024449,0.596507242851064
2499.99999999882,27.1851392093823,1.00000000231871,0.595272316960258
2599.99999999873,29.5573761751123,1.0000000022849,0.59355124169079
2699.99999999864,31.6992866892319,1.00000000208884,0.590096234281188
2799.99999999855,33.5886031386769,1.00000000197855,0.587633259293077
2899.99999999846,35.2013345184439,1.00000000182761,0.586922553916275
2999.99999999837,36.5355647699674,1.00000000187126,0.585276187511606
3099.99999999828,37.6081437587619,1.00000000180816,0.583809137845253
3199.99999999819,38.4292781799822,1.00000000175642,0.581389872451481
3299.99999999809,39.011915179416,1.00000000163324,0.577737898160398
3399.999999998,39.372642951937,1.00000000161892,0.579469299831141
3499.99999999791,39.5354197535609,1.00000000151532,0.571310709271382
3599.99999999782,39.5359034107107,1.00000000160767,0.579985961235378
3699.99999999773,39.3822095567888,1.00000000142854,0.565386445005895
3799.99999999764,39.1280090292109,1.00000000154799,0.571503866664439
3899.99999999755,38.7535110004399,1.00000000153525,0.563964506852159
3999.99999999746,38.3316733780941,1.00000000159948,0.563734695989067
4099.99999999738,37.8243862148922,1.0000000014902,0.546451067793068
4199.99999999775,37.3027286246736,1.00000000172744,0.565564783065559
4299.99999999811,36.7365006721495,1.00000000131591,0.525209401555765
4399.99999999848,36.1478274952769,1.0000000019355,0.579966442107643
4499.99999999884,35.5628367019624,1.00000000133952,0.525824929400549
4599.9999999992,34.9486451817434,1.00000000160997,0.530250668919461
4699.99999999957,34.3522385455252,1.0000000020764,0.561249552809731
4799.99999999993,33.7599260324196,1.0000000014128,0.511643508890946
4900.00000000029,33.1557697505625,1.00000000160842,0.526299556172711
5000.00000000066,32.5714241727844,1.00000000197083,0.548943467543716
5100.00000000102,32.0015844926901,1.00000000136987,0.502430967021205
5200.00000000139,31.4328468696245,1.00000000150725,0.518050202375495
5300.00000000175,30.8752360422179,1.00000000186436,0.538217362718077
5400.00000000211,30.3366519057883,1.00000000168339,0.512288752571582
5500.00000000248,29.8107120590879,1.00000000142697,0.509916477544528
5600.00000000284,29.2952219770946,1.00000000161436,0.530609500545971
5700.00000000321,28.7942760474645,1.00000000165502,0.522610335431381
5800.00000000357,28.3089461509536,1.00000000176956,0.518204054017305
5900.00000000393,27.8404096913797,1.00000000146128,0.499658237351092
6000.0000000043,27.3863114528403,1.00000000173016,0.544533654368883
6100.00000000466,26.9471846002175,1.00000000147501,0.516405466731726
6200.00000000502,26.524343846485,1.00000000158967,0.516143444364145
6300.00000000539,26.1146804792148,1.00000000172468,0.51285121158145
6400.00000000575,25.7238600055968,1.00000000132846,0.507125706471359
6500.00000000612,25.3470398596443,1.00000000181356,0.546439860878607
6600.00000000648,24.9809119272729,1.00000000160675,0.534785512545526
6700.00000000684,24.6343861367118,1.00000000154951,0.500153374203586
6800.00000000721,24.3010919277886,1.00000000181451,0.526422904338547
6900.00000000757,23.9785207665255,1.0000000015956,0.505966029046242
7000.00000000793,23.6729841704053,1.00000000166687,0.521477580903704
7100.0000000083,23.3772676783721,1.00000000183744,0.542008667307422
7200.00000000866,23.086060721675,1.0000000016749,0.539192813353922
7300.00000000903,22.8118787718917,1.00000000150496,0.510582113438782
7400.00000000939,22.5531420865562,1.00000000167664,0.517105153457267
7500.00000000975,22.3048766134101,1.00000000176253,0.525713636301798
7600.00000001012,22.066975422744,1.00000000158569,0.512676383242991
7700.00000001048,21.8408182800942,1.00000000168073,0.533787527256594
7800.00000001084,21.622737054836,1.0000000016337,0.547600582902933
7900.00000001121,21.4086668361187,1.00000000175785,0.539181660913956
8000.00000001157,21.2001894572964,1.00000000169826,0.545834317599196
8100.00000001194,21.0015826116718,1.00000000160807,0.539083461714854
8200.0000000123,20.8159967129896,1.00000000153375,0.521307785526011
8300.00000001266,20.6457417369696,1.00000000168514,0.542212804349023
8400.00000001303,20.483795920952,1.00000000178525,0.536758357290708
8500.00000001339,20.329932620577,1.000000001696,0.534704318814756
8600.00000001376,20.1814927763529,1.00000000177018,0.555562780719279
8700.00000001412,20.0356144691275,1.00000000163265,0.556737111490581
8800.00000001448,19.9018817169997,1.00000000166282,0.545176898722312
8900.00000001485,19.7696157244198,1.00000000188433,0.552502502210739
9000.00000001521,19.6318234718614,1.00000000181138,0.564439652948577
9100.00000001557,19.4954948690431,1.00000000162891,0.555301015857495
9200.00000001594,19.3746859470256,1.0000000015288,0.534545767728808
9300.0000000163,19.26833964488,1.00000000170364,0.554693753675874
9400.00000001667,19.1685532399186,1.00000000165286,0.554794005987214
9500.00000001703,19.0748402919088,1.00000000177207,0.550421693552774
9600.00000001739,18.9868179529138,1.0000000016746,0.556003671952694
9700.00000001776,18.9017339334431,1.00000000171343,0.563531166824554
9800.00000001812,18.8139447069624,1.00000000177553,0.566884291766828
9900.00000001848,18.7312753720592,1.00000000162006,0.556577426148706
10000.0000000188,18.6588194993862,1.00000000160823,0.561722534711451
10100.0000000192,18.5843822097158,1.00000000190658,0.572275844045753
10200.0000000196,18.5045391446221,1.0000000018158,0.563646359360461
10300.0000000199,18.4208349121498,1.00000000182861,0.574905561509001
10400.0000000203,18.3380953445165,1.00000000165346,0.582708016526433
10500.0000000207,18.2619614886579,1.00000000167958,0.571611885632642
10600.000000021,18.1951443524446,1.00000000165055,0.579742577889356
10700.0000000214,18.1358787708431,1.00000000172413,0.575484306481771
10800.0000000218,18.0876836138807,1.00000000169124,0.56390373378538
10900.0000000221,18.0472704093396,1.00000000170424,0.562090727326826
11000.0000000225,18.0091322774392,1.00000000181859,0.581472920749774
11100.0000000229,17.9691866931296,1.00000000173433,0.588095159849417
11200.0000000232,17.930550095655,1.00000000170098,0.579671429833967
11300.0000000236,17.8941251351261,1.00000000172836,0.582569116449369
11400.0000000239,17.8560439895142,1.00000000173616,0.584606256969997
11500.0000000243,17.8188888079216,1.00000000172572,0.582554726992625
11600.0000000247,17.7868858388511,1.00000000167384,0.584717511940245
11700.000000025,17.7547601697226,1.00000000172635,0.585289569265661
11800.0000000254,17.7249272719085,1.00000000174338,0.585856153687974
11900.0000000258,17.6894078302174,1.00000000191002,0.594250502258932
12000.0000000261,17.6441049086322,1.00000000193882,0.603075801787389
12100.0000000265,17.5911267809175,1.00000000186897,0.617281174705468
12200.0000000269,17.5383190870662,1.00000000175416,0.609467093773047
12300.0000000272,17.4932062730436,1.00000000161068,0.598648476158949
12400.0000000276,17.4591605904919,1.0000000016424,0.596062784616936
12500.0000000279,17.4353882915886,1.00000000172201,0.585357087403341
12600.0000000283,17.4225067076375,1.00000000174411,0.575109422520119
12700.0000000287,17.4162667942833,1.00000000171635,0.584053807074927
12800.000000029,17.4109288871687,1.00000000188169,0.588166439989858
12900.0000000294,17.4026708563935,1.00000000182572,0.595293840542207
13000.0000000298,17.3957240383986,1.00000000182147,0.601306626759246
13100.0000000301,17.38863934245,1.00000000180355,0.598514036993174
13200.0000000305,17.3840991439365,1.00000000171631,0.598744274105406
13300.0000000309,17.3823921211378,1.00000000183307,0.594428807870684
13400.0000000312,17.3732815563517,1.00000000203549,0.602171276511414
13500.0000000316,17.3608271258774,1.0000000018366,0.597365363788418
13600.0000000319,17.3542630738521,1.0000000017488,0.593392328788662
13700.0000000323,17.3530201709767,1.00000000173629,0.602695816734034
13800.0000000327,17.3521482753147,1.00000000186188,0.613562608763501
13900.000000033,17.3460091811641,1.00000000194959,0.614388644326668
14000.0000000334,17.3357402293189,1.00000000169812,0.62397579042979
14100.0000000338,17.324348933605,1.00000000173634,0.618120201618095
14200.0000000341,17.3088823291639,1.00000000191703,0.619959330225457
14300.0000000345,17.2870334187561,1.00000000201119,0.623329788114831
14400.0000000349,17.2580605337276,1.00000000197153,0.618332810937106
14500.0000000352,17.2221425086099,1.00000000196558,0.622989772449212
14600.0000000356,17.1849511027912,1.00000000179936,0.617412093234628
14700.0000000359,17.15130993036,1.00000000183032,0.61496275830184
14800.0000000363,17.1257614853634,1.00000000176386,0.609120101652817
14900.0000000367,17.1101201178792,1.00000000175603,0.602941732138801
15000.000000037,17.1013734974089,1.00000000182353,0.603875197843263
15100.0000000374,17.1020351253549,1.0000000018422,0.599178689069864
15200.0000000378,17.1115953664938,1.00000000172498,0.589656230126164
15300.0000000381,17.1251589634492,1.00000000183166,0.598268361350309
15400.0000000385,17.1378890557599,1.000000001983,0.608082747569433
15500.0000000389,17.1516929768565,1.00000000189617,0.61096981621315
15600.0000000392,17.1627620631025,1.00000000200764,0.610187870753542
15700.0000000396,17.175128652544,1.00000000180311,0.605443542036644
15800.0000000399,17.1936824740924,1.00000000186774,0.597599222355386
15900.0000000403,17.2085324239203,1.0000000020576,0.603827977211517
16000.0000000407,17.2175282839146,1.00000000204481,0.616031115420734
16100.000000041,17.2263703388788,1.00000000186925,0.612274255662821
16200.0000000414,17.237774880816,1.00000000190916,0.609751117183224
16300.0000000418,17.2467287230156,1.00000000200878,0.608279998780539
16400.0000000418,17.2549573306855,1.00000000180176,0.604065779491283
16500.0000000404,17.2632905886896,1.00000000200894,0.596653965619294
16600.0000000389,17.2748167889692,1.0000000018479,0.599346825028259
16700.0000000375,17.2909104613822,1.00000000187929,0.614039824334264
16800.000000036,17.3051915013527,1.00000000205479,0.620715786379789
16900.0000000346,17.3155740162722,1.00000000197942,0.634837195002786
17000.0000000331,17.3250575561594,1.00000000192958,0.640229782825887
17100.0000000317,17.3303047393389,1.00000000210203,0.636864318248292
17200.0000000302,17.3282232886028,1.00000000201544,0.633993956926511
17300.0000000287,17.3251641722171,1.00000000186276,0.636179741577364
17400.0000000273,17.3207517826681,1.00000000198552,0.644730018197324
17500.0000000258,17.315431510123,1.00000000193913,0.650154891525742
17600.0000000244,17.3098714810517,1.00000000183294,0.650679651846828
17700.0000000229,17.3020798255216,1.00000000202942,0.655229503108444
17800.0000000215,17.2876535906946,1.00000000208099,0.65049330468914
17900.00000002,17.2701069444507,1.00000000200861,0.636962666530013
18000.0000000186,17.2491913198992,1.00000000218838,0.63835422790481
18100.0000000171,17.2204472474849,1.00000000218092,0.630863383464364
18200.0000000156,17.1862126573386,1.00000000212629,0.631657883974
18300.0000000142,17.1529409164285,1.0000000019808,0.633041744941421
18400.0000000127,17.1244599350612,1.00000000192713,0.628346570543156
18500.0000000113,17.1045236771312,1.00000000185762,0.621573793907609
18600.0000000098,17.0944585472175,1.00000000194116,0.619555884902736
18700.0000000084,17.0909968472391,1.00000000201248,0.626918104743541
18800.0000000069,17.0935410834094,1.00000000199366,0.620607311108868
18900.0000000055,17.1051281753926,1.00000000193097,0.617357731490563
19000.000000004,17.1255181127719,1.00000000196031,0.609205540819539
19100.0000000026,17.1519939171866,1.00000000209521,0.614422690081222
19200.0000000011,17.1765646768609,1.00000000218505,0.612179654471455
19299.9999999996,17.2018028274082,1.00000000204914,0.619262449685586
19399.9999999982,17.2280913127601,1.0000000021292,0.620247739066405
19499.9999999967,17.2535716105114,1.00000000204972,0.625941163085834
19599.9999999953,17.2828843082952,1.00000000187759,0.624255051381079
19699.9999999938,17.3158865427179,1.00000000211767,0.610563118121985
19799.9999999924,17.3454330181746,1.00000000221651,0.60637543514738
19899.9999999909,17.3724833315094,1.00000000208314,0.616015956469311
19999.9999999895,17.4034127994758,1.00000000198852,0.612509074783483
20099.999999988,17.4312841592833,1.00000000222183,0.618607875479498
20199.9999999865,17.4539685889081,1.00000000230273,0.623772465814139
20299.9999999851,17.4733624420053,1.00000000210831,0.615424215324913
20399.9999999836,17.4956245031665,1.00000000193057,0.611990852936105
20499.9999999822,17.5231392641166,1.00000000205122,0.61708048100357
20599.9999999807,17.5517674459655,1.00000000212017,0.620825701049705
20699.9999999793,17.5779380623949,1.00000000210954,0.624356613855658
20799.9999999778,17.6029931005438,1.000000002156,0.629838061359757
20899.9999999764,17.6298662173132,1.00000000214847,0.640142140080746
20999.9999999749,17.6578355887802,1.00000000213185,0.646501579306023
21099.9999999734,17.6826740508597,1.00000000228783,0.646775518159583
21199.999999972,17.7013429886973,1.00000000231709,0.643376530306819
21299.9999999705,17.7187491402601,1.00000000206506,0.642064341146706
21399.9999999691,17.7333519328408,1.00000000231992,0.649941825902459
21499.9999999676,17.74782400903,1.00000000214804,0.655725129912749
21599.9999999662,17.7668818264507,1.00000000198106,0.64834948156008
21699.9999999647,17.7884214145085,1.00000000221113,0.657322181198048
21799.9999999633,17.8078779928165,1.00000000209843,0.656450946526264
21899.9999999618,17.8264503011252,1.00000000215896,0.662932924898659
21999.9999999603,17.8462098052086,1.0000000021547,0.662221070850677
22099.9999999589,17.862808114517,1.00000000219135,0.660368778009624
22199.9999999574,17.8765374870526,1.00000000225338,0.656180913328478
22299.999999956,17.8889021383037,1.00000000216259,0.656238623032176
22399.9999999545,17.898679045591,1.00000000231116,0.657962826596362
22499.9999999531,17.9063370087349,1.00000000204973,0.65431846111387
22599.9999999516,17.9139597162269,1.00000000224878,0.666120282468109
22699.9999999502,17.9207103057814,1.00000000215836,0.663232112178723
22799.9999999487,17.9245030826531,1.00000000221751,0.661064768302304
22899.9999999473,17.9261063255312,1.0000000021628,0.654511734144628
22999.9999999458,17.9267762831737,1.00000000226536,0.665885906259773
23099.9999999443,17.9246519506151,1.00000000229361,0.666753097550941
23199.9999999429,17.9195623935706,1.00000000226618,0.662236394592547
23299.9999999414,17.9140174446166,1.00000000211022,0.661785180806721
23399.99999994,17.9075339243546,1.00000000226456,0.678722938483593
23499.9999999385,17.898664980569,1.00000000227157,0.676786182225614
23599.9999999371,17.8891780975929,1.00000000209576,0.670074878492454
23699.9999999356,17.8781856890188,1.00000000224711,0.66819014013223
23799.9999999342,17.8633837641026,1.00000000230602,0.666577635719147
23899.9999999327,17.8460258347821,1.0000000023674,0.678619020522387
23999.9999999312,17.8250173277708,1.00000000233085,0.672400327910888
24099.9999999298,17.8043931688275,1.00000000223056,0.669081817820596
24199.9999999283,17.7810132772788,1.00000000246156,0.681302057231579
24299.9999999269,17.7556468144486,1.00000000232789,0.680922268347762
24399.9999999254,17.7320370555768,1.00000000217553,0.68054529963859
24499.999999924,17.7105352638738,1.00000000231791,0.671943553943826
24599.9999999225,17.692754793994,1.00000000220702,0.666703184075566
24699.9999999211,17.6815454115224,1.00000000226164,0.652640386727459
24799.9999999196,17.6773306262413,1.00000000215105,0.641812273765907
24899.9999999181,17.6780602930963,1.00000000229342,0.643233345514454
24999.9999999167,17.6842536095042,1.00000000231198,0.639064718081529
25099.9999999152,17.6959451521385,1.00000000212487,0.641233158984289
25199.9999999138,17.7148987437965,1.00000000226432,0.639210856190947
25299.9999999123,17.7416127131051,1.00000000216926,0.639634222101162
25399.9999999109,17.7732999588372,1.00000000225034,0.639640193139988
25499.9999999094,17.8108296329965,1.00000000239658,0.643969362231365
25599.999999908,17.8492754867969,1.00000000234208,0.639324109493181
25699.9999999065,17.887964155723,1.00000000239437,0.645598934218422
25799.9999999051,17.9268018736815,1.00000000237442,0.646509451685242
25899.9999999036,17.9652121886413,1.00000000243858,0.639727258131075
25999.9999999021,18.0063148348929,1.00000000225999,0.640658232380276
26099.9999999007,18.0512884983342,1.00000000230847,0.638994820100124
26199.9999998992,18.0967856073445,1.00000000225201,0.641885941482608
26299.9999998978,18.1463091614884,1.00000000234063,0.638878811121722
26399.9999998963,18.1986370212079,1.00000000232849,0.640004094260048
26499.9999998949,18.2480713269236,1.00000000246171,0.646462259593036
26599.9999998934,18.2965247230284,1.00000000227942,0.642337406124603
26699.999999892,18.3442458756048,1.00000000247158,0.644483767845297
26799.9999998905,18.3900672794899,1.00000000235743,0.644821404345882
26899.999999889,18.4358986615536,1.00000000245958,0.646872313914408
26999.9999998876,18.478487510198,1.00000000241482,0.635640597000776
27099.9999998861,18.5224630563173,1.00000000233511,0.630195475274538
27199.9999998847,18.5657799576116,1.00000000246761,0.638715098303961
27299.9999998832,18.6078371251902,1.00000000238484,0.645685400051429
27399.9999998818,18.6507017900233,1.00000000236071,0.644910337464615
27499.9999998803,18.6943229878911,1.00000000227921,0.645245588374017
27599.9999998789,18.7426544236739,1.00000000226672,0.649592392623886
27699.9999998774,18.7937311820736,1.00000000239009,0.659133149947564
27799.9999998759,18.8450889701827,1.00000000240416,0.660354501593961
27899.9999998745,18.8940572129334,1.00000000250467,0.656852934949272
27999.999999873,18.9389677155243,1.00000000244368,0.664874880930478
28099.9999998716,18.9820326263427,1.00000000236228,0.659803769606668
28199.9999998701,19.0231170249137,1.00000000256529,0.669032837183174
28299.9999998687,19.0595895380348,1.00000000254443,0.662379156113023
28399.9999998672,19.0943510505979,1.00000000234205,0.664032124901954
28499.9999998658,19.1277996399473,1.00000000243496,0.679358584502793
28599.9999998643,19.1621686859493,1.00000000233448,0.678162036041894
28699.9999998629,19.1968119877105,1.00000000243819,0.687662703786939
28799.9999998614,19.2276760990976,1.00000000255492,0.682580795288743
28899.9999998599,19.2538068440771,1.00000000253494,0.6897713926899
28999.9999998585,19.2797770849815,1.00000000247342,0.685410731754532
