Time,AGPnorm,Energy,Entropy
0,0,1,-7.44567845958135e-17
99.9999999999986,0.00172361685589498,0.999999999999773,0.00529387087182125
199.999999999993,0.0116227852397122,0.999999999999018,0.0152903573886244
300,0.0229524846434978,0.999999999999355,0.0281387476939273
400.000000000022,0.0345980712529385,1.00000000000016,0.0444010653779843
500.000000000045,0.0480303654543205,0.999999999999436,0.0642545378839582
600.000000000068,0.0663768087816162,0.999999999999134,0.0875056971350038
700.000000000091,0.0827202485733954,0.999999999999248,0.114239943992047
800.000000000113,0.100311843595061,1.00000000000129,0.146182918747086
900.000000000136,0.116662691732937,1.00000000001179,0.186678233860725
1000.00000000016,0.132616222397521,1.00000000008801,0.238113595946675
1100.0000000001,0.155893418221809,1.00000000032604,0.296449204336598
1200,0.22025039008682,1.00000000071959,0.351781218461025
1299.99999999991,0.353295549779729,1.00000000112914,0.400827494630728
1399.99999999982,0.644074787846604,1.00000000148922,0.442392606178927
1499.99999999973,1.23120642613409,1.00000000182872,0.476574573200524
1599.99999999964,2.18978688346284,1.00000000199606,0.504758620265453
1699.99999999955,3.53901882386311,1.00000000221562,0.528169683306788
1799.99999999946,5.31672548383101,1.00000000224792,0.546340575584372
1899.99999999937,7.52048230065357,1.00000000234277,0.56030797818609
1999.99999999928,10.0763663867712,1.00000000237906,0.571049149003888
2099.99999999919,12.9034038546061,1.00000000228981,0.57975848381211
2199.99999999909,15.9512511213027,1.00000000230024,0.584922377877097
2299.999999999,19.141893060732,1.00000000230944,0.58804754589942
2399.99999999891,22.365894990212,1.0000000021452,0.590117187822361
2499.99999999882,25.5407430098111,1.00000000203146,0.592038618169138
2599.99999999873,28.6236073127783,1.00000000215501,0.591092431559053
2699.99999999864,31.5719048943672,1.0000000019731,0.590172356034705
2799.99999999855,34.3235120712526,1.0000000018938,0.588603314756134
2899.99999999846,36.8331049687233,1.00000000181006,0.587588018412913
2999.99999999837,39.0849729425352,1.00000000178842,0.585039130629805
3099.99999999828,41.0801038605277,1.0000000016209,0.581126079912325
3199.99999999819,42.8098778248797,1.00000000160383,0.578884541217745
3299.99999999809,44.2603812629436,1.0000000015594,0.577678782780595
3399.999999998,45.4367837814491,1.0000000015456,0.575638693853074
3499.99999999791,46.3546335787236,1.00000000146758,0.575640484407412
3599.99999999782,47.0321571799425,1.00000000138638,0.57280451025292
3699.99999999773,47.4824949344352,1.00000000133694,0.573187286625381
3799.99999999764,47.727834319988,1.00000000133349,0.565747044330787
3899.99999999755,47.777160140347,1.00000000140835,0.579308547022243
3999.99999999746,47.6806716549388,1.0000000011484,0.553585642824297
4099.99999999738,47.4391786650882,1.00000000146507,0.580443258966031
4199.99999999775,47.1089001901353,1.00000000119167,0.550449670580915
4299.99999999811,46.6585071895391,1.00000000141081,0.563780690862275
4399.99999999848,46.1710622651806,1.00000000139239,0.560856280918148
4499.99999999884,45.6036748002336,1.00000000109467,0.526660017082085
4599.9999999992,45.0008757313577,1.00000000178962,0.58426813326101
4699.99999999957,44.3948561021939,1.0000000012917,0.533029853328966
4799.99999999993,43.7305631997534,1.00000000121829,0.523798263555713
4900.00000000029,43.0734344134473,1.00000000181444,0.578953692330348
5000.00000000066,42.4246027734263,1.00000000124218,0.515024266093478
5100.00000000102,41.742031149937,1.00000000115691,0.505495466728085
5200.00000000139,41.069879034372,1.00000000185081,0.572163677010946
5300.00000000175,40.423781901923,1.00000000143013,0.512842515535472
5400.00000000211,39.765795367103,1.00000000106913,0.495210999437269
5500.00000000248,39.105039978431,1.00000000149712,0.526103110542562
5600.00000000284,38.4714623800918,1.00000000178697,0.54922683027757
5700.00000000321,37.8553458463427,1.00000000126609,0.491885731897015
5800.00000000357,37.2411767635338,1.00000000118027,0.500480310678295
5900.00000000393,36.6334102737286,1.00000000149041,0.516234985839283
6000.0000000043,36.0457017024648,1.00000000156978,0.537192578508921
6100.00000000466,35.4767681010226,1.00000000127189,0.504898699778663
6200.00000000502,34.9220705526204,1.00000000117466,0.50043618760582
6300.00000000539,34.379898754016,1.00000000131567,0.519150703575508
6400.00000000575,33.8516898046407,1.00000000140167,0.515257705658368
6500.00000000612,33.3402183325193,1.00000000149532,0.524460309397474
6600.00000000648,32.8433516831849,1.00000000145466,0.517677360950465
6700.00000000684,32.3652925772115,1.00000000118767,0.498734272415786
6800.00000000721,31.9043215468638,1.00000000142807,0.527554518118693
6900.00000000757,31.4568443723986,1.0000000012832,0.527233750874998
7000.00000000793,31.0277305920337,1.00000000130573,0.504083325458592
7100.0000000083,30.6119678821651,1.00000000158303,0.523552548992282
7200.00000000866,30.2062747452889,1.00000000137304,0.514587020302194
7300.00000000903,29.8196334405364,1.00000000122095,0.502725290404646
7400.00000000939,29.451453589251,1.00000000137799,0.523302109396229
7500.00000000975,29.0902974520035,1.00000000159506,0.534608247561968
7600.00000001012,28.7453691141364,1.00000000118103,0.511718654901158
7700.00000001048,28.4196327459378,1.00000000136282,0.504844256806189
7800.00000001084,28.1031078779697,1.00000000162851,0.52773082076163
7900.00000001121,27.7918847346718,1.0000000014856,0.513972213609329
8000.00000001157,27.4951089269902,1.0000000014099,0.509491100146702
8100.00000001194,27.2151357978934,1.00000000129891,0.5247690924868
8200.0000000123,26.9439119026131,1.00000000146689,0.529737747587386
8300.00000001266,26.676436916986,1.00000000143467,0.526058630185078
8400.00000001303,26.4219069067186,1.00000000127301,0.522710203763233
8500.00000001339,26.1823888994739,1.00000000127233,0.513208996595021
8600.00000001376,25.9529462975406,1.00000000150543,0.528546756881252
8700.00000001412,25.7294468391596,1.00000000146281,0.532548407209901
8800.00000001448,25.5121054014837,1.00000000127914,0.522049266420416
8900.00000001485,25.3092055915897,1.00000000134305,0.517742071778229
9000.00000001521,25.1160108322116,1.00000000141643,0.536648010532534
9100.00000001557,24.9287155967976,1.00000000135193,0.538865848852094
9200.00000001594,24.7517905744059,1.00000000134718,0.526545499201351
9300.0000000163,24.5799131896041,1.00000000147433,0.524418232278474
9400.00000001667,24.4100128926689,1.00000000144719,0.549418780603857
9500.00000001703,24.24572551299,1.00000000137715,0.547360161525217
9600.00000001739,24.0914510935845,1.00000000138349,0.531274024756218
9700.00000001776,23.9458510387332,1.00000000139641,0.539681073185348
9800.00000001812,23.80575519479,1.00000000146093,0.541773619228132
9900.00000001848,23.6706022881404,1.00000000148387,0.533073871809797
10000.0000000188,23.5457157638002,1.00000000134026,0.536781768763121
10100.0000000192,23.4310103575739,1.00000000133924,0.541787153601543
10200.0000000196,23.314673364259,1.00000000155673,0.548570802454409
10300.0000000199,23.1999580128635,1.00000000139677,0.541483421470978
10400.0000000203,23.1011265537935,1.000000001224,0.524910292886415
10500.0000000207,23.0112694363465,1.00000000151084,0.541657181219269
10600.000000021,22.9168588235956,1.00000000155964,0.545742849092406
10700.0000000214,22.8149729639819,1.00000000161599,0.564764367318229
10800.0000000218,22.7104099808015,1.00000000148614,0.567517736832994
10900.0000000221,22.6106777716686,1.00000000138478,0.557192622622389
11000.0000000225,22.5178212674267,1.00000000149769,0.558530960261633
11100.0000000229,22.4311290134544,1.00000000151426,0.556803547786946
11200.0000000232,22.351004399938,1.00000000149777,0.550667880591306
11300.0000000236,22.2782669818809,1.00000000144206,0.539363310772295
11400.0000000239,22.2120846983108,1.0000000014307,0.542345536888513
11500.0000000243,22.151851450113,1.00000000141134,0.558426877955868
11600.0000000247,22.0952434771647,1.00000000138618,0.556347080530604
11700.000000025,22.0387551366506,1.00000000140792,0.550381532862126
11800.0000000254,21.9844098119647,1.00000000151311,0.553782058218871
11900.0000000258,21.9362273485636,1.00000000138656,0.548939954046772
12000.0000000261,21.8971480757086,1.00000000138351,0.542982742209015
12100.0000000265,21.8640375343879,1.00000000149054,0.559626215513081
12200.0000000269,21.8265378293336,1.00000000142833,0.566755456040879
12300.0000000272,21.7843634019818,1.00000000146013,0.565434758336777
12400.0000000276,21.7372187842665,1.00000000157363,0.571121242425563
12500.0000000279,21.6849950660841,1.00000000161722,0.575146276659703
12600.0000000283,21.6279541343475,1.00000000160352,0.583031689930757
12700.0000000287,21.5676837001223,1.00000000142024,0.58375155261731
12800.000000029,21.5104708959015,1.00000000146146,0.576612651278232
12900.0000000294,21.4605109825812,1.00000000143956,0.573416473720668
13000.0000000298,21.4172662312239,1.00000000137424,0.563807519669803
13100.0000000301,21.3805383444141,1.00000000150837,0.55887066212624
13200.0000000305,21.3520411440522,1.00000000146311,0.548607535616694
13300.0000000309,21.3287466016776,1.00000000140311,0.557462943928091
13400.0000000312,21.3107727036973,1.00000000141897,0.565433385713713
13500.0000000316,21.2937591296528,1.00000000158013,0.57186157866921
13600.0000000319,21.2762448004646,1.00000000158394,0.571562085667273
13700.0000000323,21.2598804627799,1.00000000152469,0.564328027036456
13800.0000000327,21.2485376072704,1.00000000128292,0.552596988606382
13900.000000033,21.2433561760535,1.00000000155746,0.554943550578985
14000.0000000334,21.2397659865362,1.00000000152822,0.564004060964517
14100.0000000338,21.2390791305819,1.00000000138299,0.570366798527187
14200.0000000341,21.2423497691184,1.00000000153194,0.575987572318827
14300.0000000345,21.2455194979561,1.00000000159488,0.583566921417641
14400.0000000349,21.2418998260624,1.00000000168367,0.598147758464175
14500.0000000352,21.2306099911485,1.00000000154999,0.593857423346247
14600.0000000356,21.2144277213074,1.00000000151957,0.595469102647217
14700.0000000359,21.1982388003586,1.00000000142799,0.592726197398005
14800.0000000363,21.1819926367051,1.00000000151953,0.59024357040073
14900.0000000367,21.1615651649062,1.00000000157406,0.586912861941375
15000.000000037,21.1344085955505,1.00000000168399,0.588642641298533
15100.0000000374,21.098529478452,1.00000000162997,0.587073923914326
15200.0000000378,21.0577903774868,1.00000000158273,0.59794697391903
15300.0000000381,21.0164656750147,1.00000000151053,0.590725878518047
15400.0000000385,20.9781659965895,1.00000000150717,0.580949556299439
15500.0000000389,20.947237253412,1.00000000153543,0.580528629777088
15600.0000000392,20.9244838453659,1.00000000152682,0.57796554520746
15700.0000000396,20.9080969796223,1.00000000157724,0.573001260104018
15800.0000000399,20.8998339463366,1.00000000146767,0.57547011077294
15900.0000000403,20.8978745367568,1.00000000152138,0.572825295245827
16000.0000000407,20.9007922020905,1.00000000154795,0.582877194051028
16100.000000041,20.9064398820813,1.00000000156848,0.586031321540258
16200.0000000414,20.9132936029421,1.00000000162492,0.587988207401554
16300.0000000418,20.9183347687978,1.00000000159342,0.583224244063548
16400.0000000418,20.9260284528756,1.00000000150209,0.577927356900223
16500.0000000404,20.9395255919605,1.00000000152654,0.567320266631968
16600.0000000389,20.9568597892219,1.0000000015689,0.575297130238064
16700.0000000375,20.9766566586967,1.00000000153706,0.580987190851417
16800.000000036,20.9986109146091,1.00000000150239,0.58189070227229
16900.0000000346,21.0233698991322,1.00000000162016,0.586888725919393
17000.0000000331,21.046652815421,1.00000000163458,0.58953666363949
17100.0000000317,21.0668312517244,1.00000000160186,0.591930343880489
17200.0000000302,21.0853286877168,1.00000000170728,0.583891186370637
17300.0000000287,21.1056576590934,1.00000000153948,0.58735005850576
17400.0000000273,21.1261035454345,1.00000000166522,0.60649766875574
17500.0000000258,21.1442341685887,1.00000000156243,0.610423776941942
17600.0000000244,21.155985866677,1.00000000170248,0.621745712861678
17700.0000000229,21.1653026505895,1.00000000155566,0.630566232552525
17800.0000000215,21.171511919725,1.00000000162321,0.630678566465348
17900.00000002,21.1748799421015,1.00000000159089,0.630285839320795
18000.0000000186,21.1764481867225,1.00000000163563,0.635300442261179
18100.0000000171,21.17415779623,1.00000000155987,0.638014479852154
18200.0000000156,21.1683857806878,1.00000000158185,0.640801188451161
18300.0000000142,21.1588923439322,1.00000000161137,0.643952834804375
18400.0000000127,21.1459173964859,1.00000000161686,0.640958875769609
18500.0000000113,21.128608169506,1.00000000167074,0.644911915324831
18600.0000000098,21.10467918713,1.00000000174166,0.648577897506648
18700.0000000084,21.0757683830042,1.00000000172234,0.645314284016537
18800.0000000069,21.0417502101545,1.00000000172307,0.64202180778561
18900.0000000055,21.0048003394556,1.00000000159519,0.640851349466324
19000.000000004,20.9682986385397,1.00000000161981,0.641089468739079
19100.0000000026,20.933651077093,1.00000000160112,0.637449499026411
19200.0000000011,20.902681326645,1.00000000157214,0.634603637687276
19299.9999999996,20.877106163214,1.00000000160928,0.635237909182259
19399.9999999982,20.856776474526,1.00000000157607,0.63190452478216
19499.9999999967,20.842300400823,1.00000000157667,0.627242462578854
19599.9999999953,20.8328342966695,1.00000000174158,0.632114544931468
19699.9999999938,20.8298130962348,1.00000000155141,0.62081437854195
19799.9999999924,20.832950639616,1.00000000153676,0.612246663223279
19899.9999999909,20.842133515655,1.00000000168771,0.603476125378324
19999.9999999895,20.8543298583928,1.00000000154528,0.605308218282358
20099.999999988,20.8711676069281,1.00000000161711,0.611009793190261
20199.9999999865,20.8874789741473,1.00000000181692,0.621298895794545
20299.9999999851,20.904867753883,1.00000000162907,0.619666657958568
20399.9999999836,20.9247600455323,1.00000000169874,0.612700622576381
20499.9999999822,20.9452183375497,1.00000000170866,0.61032836365604
20599.9999999807,20.9669976258804,1.00000000158507,0.609537488810099
20699.9999999793,20.9929756001584,1.00000000165544,0.598529253050402
20799.9999999778,21.0242907661283,1.00000000156496,0.598438025541758
20899.9999999764,21.0596815268509,1.00000000169333,0.603466381772802
20999.9999999749,21.0953267481464,1.00000000169592,0.612002493978751
21099.9999999734,21.1299270816863,1.00000000174227,0.612930784995342
21199.999999972,21.1638172003927,1.00000000164955,0.616929567911618
21299.9999999705,21.1999023217485,1.00000000170182,0.620083680833672
21399.9999999691,21.2369516252618,1.00000000164496,0.621069765239213
21499.9999999676,21.2731016875347,1.00000000167314,0.621836951714036
21599.9999999662,21.3053195207992,1.00000000186184,0.622059496754923
21699.9999999647,21.3309961680967,1.00000000180815,0.631987646505082
21799.9999999633,21.351084910137,1.00000000169663,0.638829349558753
21899.9999999618,21.3691034847936,1.00000000174318,0.649400524711239
21999.9999999603,21.3857797513444,1.00000000176682,0.648564632882867
22099.9999999589,21.4037449163606,1.00000000162243,0.643507448044555
22199.9999999574,21.4236162736425,1.00000000179498,0.642613277787537
22299.999999956,21.4437950394961,1.00000000161682,0.642288239807061
22399.9999999545,21.4650180232672,1.00000000169771,0.648737592964309
22499.9999999531,21.4844830248537,1.00000000170428,0.653108797781543
22599.9999999516,21.5021520576778,1.0000000017634,0.655315288513347
22699.9999999502,21.5159416985213,1.0000000018822,0.653859184159125
22799.9999999487,21.5217657759261,1.00000000185508,0.653105491319985
22899.9999999473,21.523855307535,1.00000000176081,0.65843459128282
22999.9999999458,21.5228932572091,1.00000000196451,0.656665856515037
23099.9999999443,21.520727147679,1.00000000169368,0.645619640790959
23199.9999999429,21.5215437033455,1.00000000175706,0.640692421102651
23299.9999999414,21.5230005031998,1.00000000183881,0.648756323363975
23399.99999994,21.5223260880106,1.000000001793,0.646235873974501
23499.9999999385,21.5224713302823,1.00000000173386,0.642098194282482
23599.9999999371,21.5219522024872,1.00000000171032,0.645413697576014
23699.9999999356,21.5205228788681,1.00000000176709,0.655529365181139
23799.9999999342,21.5161560077852,1.00000000189085,0.666733794987886
23899.9999999327,21.5075099605454,1.00000000185188,0.666980422290017
23999.9999999312,21.4975832926296,1.00000000178278,0.663587612452416
24099.9999999298,21.4853951695183,1.00000000187644,0.669705740445974
24199.9999999283,21.4707222688034,1.00000000172128,0.663338209090544
24299.9999999269,21.4560276917446,1.00000000176187,0.661196284710949
24399.9999999254,21.4387729619491,1.00000000181451,0.659787522582331
24499.999999924,21.4191217060254,1.00000000178971,0.652969915897678
24599.9999999225,21.3996241107638,1.00000000183935,0.654773602248881
24699.9999999211,21.3797758467471,1.00000000186472,0.663975084105452
24799.9999999196,21.3560271949433,1.000000001827,0.66287532525412
24899.9999999181,21.3289960899839,1.00000000188068,0.659180186748569
24999.9999999167,21.2997974776301,1.00000000188513,0.663720444276023
25099.9999999152,21.267639126951,1.00000000190753,0.662730495603211
25199.9999999138,21.2337475058575,1.00000000183597,0.66503284439128
25299.9999999123,21.1989053282352,1.00000000178511,0.66498340675669
25399.9999999109,21.1655810930072,1.00000000182313,0.658306271382842
25499.9999999094,21.1353275280265,1.00000000167653,0.656331951090279
25599.999999908,21.107245830803,1.0000000017538,0.650771696420337
25699.9999999065,21.0821785435636,1.00000000180785,0.646304747425274
25799.9999999051,21.0612584205132,1.00000000168625,0.642735713798828
25899.9999999036,21.0440822728535,1.00000000193467,0.646845460842357
25999.9999999021,21.0322200572437,1.00000000174972,0.647570174384093
26099.9999999007,21.0260619007101,1.00000000189461,0.652105701107626
26199.9999998992,21.0237917711962,1.00000000188155,0.653434834477594
26299.9999998978,21.027689348226,1.00000000176168,0.638385489137769
26399.9999998963,21.0363627773307,1.0000000018278,0.63611643262562
26499.9999998949,21.0476683455253,1.00000000177433,0.631720871807385
26599.9999998934,21.0672271919699,1.00000000172392,0.618549850230364
26699.999999892,21.0900163439957,1.00000000193114,0.617721500891834
26799.9999998905,21.1134996418914,1.00000000188464,0.617366679540416
26899.999999889,21.1417290746471,1.00000000187827,0.614191825030225
26999.9999998876,21.1693872472,1.00000000193518,0.618969391407214
27099.9999998861,21.197437206998,1.00000000185785,0.610251720158334
27199.9999998847,21.2293898573801,1.00000000194284,0.609735905992116
27299.9999998832,21.2615359215703,1.0000000020841,0.610863797307205
27399.9999998818,21.2949683108083,1.00000000190262,0.599490499519404
27499.9999998803,21.3341045809222,1.00000000176794,0.60486630516166
27599.9999998789,21.377750964814,1.00000000190975,0.609856299976846
27699.9999998774,21.4229341633859,1.00000000200835,0.602968411195417
27799.9999998759,21.4704843136767,1.00000000183046,0.600269140630299
27899.9999998745,21.5212513223955,1.00000000195434,0.607213049804105
27999.999999873,21.5728166982964,1.00000000197051,0.610944562895287
28099.9999998716,21.6233411424016,1.00000000184254,0.606830586862499
28199.9999998701,21.6774391268629,1.00000000181665,0.618841039364654
28299.9999998687,21.7330959167037,1.0000000019398,0.624479582335414
28399.9999998672,21.7880710359293,1.00000000191435,0.625711894927823
28499.9999998658,21.8426047848447,1.00000000209733,0.632209264335278
28599.9999998643,21.8945988665302,1.0000000018946,0.624452530552353
28699.9999998629,21.948431866334,1.00000000188031,0.628855234022942
28799.9999998614,22.0004386017645,1.00000000212276,0.640638295135248
28899.9999998599,22.0462504035929,1.00000000201852,0.64105390760202
28999.9999998585,22.0905961899691,1.00000000204029,0.647068882957022
