Time,AGPnorm,Energy,Entropy
0,0,1,9.15646075673762e-18
99.9999999999986,0.00630401601982325,1.00000000000172,0.018849199770649
199.999999999993,0.0171181875878917,0.999999999999642,0.0538180036849257
300,0.0346190724981909,1.00000000000224,0.106462992505508
400.000000000022,0.0527260018086681,1.00000000000956,0.177899196606256
500.000000000045,0.0680570400924275,1.00000000019282,0.283258259981302
600.000000000068,0.163178169864863,1.00000000085028,0.400821669042073
700.000000000091,0.52717451335672,1.00000000167325,0.487812854793724
800.000000000113,1.60600049376109,1.00000000226704,0.538460794075168
900.000000000136,3.47336328862212,1.00000000251138,0.565083167344766
1000.00000000016,6.06861199312789,1.00000000239417,0.575904532478145
1100.0000000001,9.09906088526155,1.00000000238435,0.577607932108767
1200,12.227466010708,1.00000000210063,0.571480424330199
1299.99999999991,15.1946504674391,1.00000000211323,0.567050849576342
1399.99999999982,17.7779009585334,1.00000000211494,0.558796446467068
1499.99999999973,19.8667820065738,1.00000000189715,0.548082419355529
1599.99999999964,21.4207602443222,1.00000000160331,0.538128137196278
1699.99999999955,22.4453036410044,1.00000000149543,0.547422742323791
1799.99999999946,23.0123587227771,1.00000000122804,0.506624963174392
1899.99999999937,23.1877637806826,1.0000000016852,0.563955540783958
1999.99999999928,23.0594461930542,1.00000000095929,0.467970480733759
2099.99999999919,22.6953170215205,1.00000000185212,0.576928908387567
2199.99999999909,22.268243011356,1.00000000103922,0.456684376434379
2299.999999999,21.6306224840207,1.00000000151259,0.503900996637922
2399.99999999891,21.0581223748276,1.00000000200126,0.57339525084227
2499.99999999882,20.4650038752542,1.00000000071363,0.381178379693699
2599.99999999873,19.7775711680977,1.00000000151226,0.478067204088868
2699.99999999864,19.1496520032564,1.00000000214399,0.573556338583742
2799.99999999855,18.5945345894992,1.00000000143179,0.477288851726888
2899.99999999846,18.0174239038535,1.00000000075451,0.352309344961673
2999.99999999837,17.4411102015825,1.00000000153815,0.492260699387907
3099.99999999828,16.8880845834984,1.00000000181554,0.535261360664922
3199.99999999819,16.3896600806242,1.00000000182569,0.565408093141953
3299.99999999809,15.9252508308661,1.00000000085189,0.413013601556536
3399.999999998,15.5103539250149,1.00000000095016,0.365607833225916
3499.99999999791,15.1220679351237,1.00000000156753,0.492906861857111
3599.99999999782,14.7307770811942,1.00000000153612,0.529292783370089
3699.99999999773,14.3551024934096,1.00000000165853,0.507332753749496
3799.99999999764,13.9791396117237,1.00000000213645,0.57273844480002
3899.99999999755,13.6291351399596,1.00000000139645,0.515439096038215
3999.99999999746,13.3420227048857,1.00000000069631,0.374293735902102
4099.99999999738,13.1527503954625,1.000000001122,0.382411913561365
4199.99999999775,12.9832733185889,1.00000000160299,0.492838820801115
4299.99999999811,12.7876058948798,1.00000000162341,0.53625593067888
4399.99999999848,12.5705056894326,1.00000000154459,0.545359650493307
4499.99999999884,12.3626032499465,1.00000000128058,0.52797328144663
4599.9999999992,12.1487543730203,1.00000000163824,0.53019050490458
4699.99999999957,11.9160140986286,1.00000000193249,0.553473308431647
4799.99999999993,11.6762989660153,1.00000000182766,0.582586214311099
4900.00000000029,11.458713465952,1.00000000109972,0.498532680611904
5000.00000000066,11.3245533935146,1.00000000070151,0.388876128992639
5100.00000000102,11.3106760796345,1.00000000102433,0.387119719370099
5200.00000000139,11.3516077304522,1.00000000148002,0.454172996540085
5300.00000000175,11.3580215613919,1.00000000174709,0.526548703705424
5400.00000000211,11.3276214067841,1.00000000148512,0.552208860020357
5500.00000000248,11.2859744479323,1.00000000146822,0.55101014794185
5600.00000000284,11.2208583293287,1.00000000159848,0.566394694153161
5700.00000000321,11.1298490270242,1.00000000155407,0.550574360502605
5800.00000000357,11.0248889328557,1.00000000161288,0.562244653872256
5900.00000000393,10.9145874611684,1.0000000014454,0.567074590531454
6000.0000000043,10.8098654271456,1.00000000130272,0.56588677654983
6100.00000000466,10.6957850021481,1.00000000152651,0.575730305917069
6200.00000000502,10.565186063552,1.00000000168004,0.579718662055375
6300.00000000539,10.4191142977331,1.00000000211893,0.588323350839723
6400.00000000575,10.2657389872642,1.00000000181204,0.592512392820732
6500.00000000612,10.1197290168025,1.00000000120965,0.538364612188818
6600.00000000648,10.0206382789299,1.00000000086457,0.454155844864347
6700.00000000684,10.0256069683356,1.00000000077845,0.397668484174319
6800.00000000721,10.1477308906734,1.00000000105409,0.412783149739464
6900.00000000757,10.3307562248423,1.0000000013445,0.44770519992338
7000.00000000793,10.4996566436181,1.00000000173055,0.497950176299083
7100.0000000083,10.634086360703,1.00000000156891,0.529972112522268
7200.00000000866,10.7337940945129,1.00000000160859,0.561157854379388
7300.00000000903,10.8062734418043,1.00000000152123,0.564977384107806
7400.00000000939,10.8541567176557,1.00000000153694,0.583185475091306
7500.00000000975,10.8669570408025,1.00000000173957,0.594601825678999
7600.00000001012,10.8494325622268,1.00000000165814,0.591582706313186
7700.00000001048,10.8207078713828,1.00000000142736,0.566901165518121
7800.00000001084,10.7867045289461,1.00000000148749,0.564165200932461
7900.00000001121,10.7489902812575,1.00000000154728,0.549846261805295
8000.00000001157,10.7053303091413,1.000000001559,0.544586297494871
8100.00000001194,10.6589440309299,1.00000000157358,0.568158748216127
8200.0000000123,10.611872177066,1.00000000144124,0.565961277265846
8300.00000001266,10.5660352080122,1.00000000146041,0.566701546201624
8400.00000001303,10.5217700354232,1.00000000143199,0.570357432338186
8500.00000001339,10.475668585435,1.00000000156531,0.569963081583349
8600.00000001376,10.4203788510806,1.00000000161315,0.564740577350001
8700.00000001412,10.3566414436733,1.00000000165268,0.568995400701042
8800.00000001448,10.2812417148135,1.00000000159574,0.595042294054716
8900.00000001485,10.1995012546524,1.00000000152505,0.60638878843522
9000.00000001521,10.1197867278357,1.00000000138377,0.596632527174459
9100.00000001557,10.0379297483234,1.00000000152011,0.600125882091671
9200.00000001594,9.95098780392292,1.00000000171337,0.595673063152771
9300.0000000163,9.85995996575907,1.00000000181095,0.596280795532141
9400.00000001667,9.76889136814921,1.00000000203731,0.592328199580128
9500.00000001703,9.68123395537843,1.00000000205837,0.579245011422388
9600.00000001739,9.59262347522333,1.00000000197725,0.576910086108426
9700.00000001776,9.49856218838042,1.00000000151415,0.560596695748887
9800.00000001812,9.40599750623656,1.00000000118286,0.515092191504671
9900.00000001848,9.34453076611863,1.00000000088799,0.455022861321225
10000.0000000188,9.35539591578746,1.00000000080297,0.417515711418074
10100.0000000192,9.47298620028556,1.00000000084947,0.402436584810106
10200.0000000196,9.68916473886699,1.0000000011896,0.421356832453689
10300.0000000199,9.97516301511064,1.00000000139714,0.439943145034364
10400.0000000203,10.2701636628737,1.00000000168301,0.472242346081625
10500.0000000207,10.5539132519117,1.00000000165105,0.502211525912039
10600.000000021,10.8042678676636,1.00000000173313,0.525165284575056
10700.0000000214,11.0273636675007,1.00000000165995,0.539533494398139
10800.0000000218,11.2226561782341,1.00000000163322,0.564520730941251
10900.0000000221,11.3953975184606,1.00000000154571,0.578698405881942
11000.0000000225,11.5374709527399,1.00000000169136,0.592037000092884
11100.0000000229,11.651591049696,1.00000000161436,0.5998707383801
11200.0000000232,11.7468396817913,1.00000000167777,0.615104437806976
11300.0000000236,11.8181355006295,1.00000000165166,0.624961103049388
11400.0000000239,11.8616600848115,1.00000000171061,0.623426931132763
11500.0000000243,11.8821475753643,1.00000000158758,0.627333054366634
11600.0000000247,11.88938458533,1.00000000152346,0.621089939195164
11700.000000025,11.8875926430545,1.00000000164668,0.617710391910398
11800.0000000254,11.880772852231,1.00000000154193,0.614982984269508
11900.0000000258,11.8627271845332,1.00000000168855,0.618271640659916
12000.0000000261,11.8354612200187,1.00000000154565,0.603166243559408
12100.0000000265,11.8080711579335,1.0000000015796,0.6099899455059
12200.0000000269,11.7691976031857,1.0000000016514,0.613319328448699
12300.0000000272,11.7243909002254,1.00000000153258,0.616283924941786
12400.0000000276,11.6738138386273,1.00000000165045,0.62311924279096
12500.0000000279,11.6174383748994,1.00000000166128,0.637601490323056
12600.0000000283,11.5558891503837,1.00000000161541,0.637117645449708
12700.0000000287,11.4947281644669,1.00000000144115,0.629391116431249
12800.000000029,11.4409827525585,1.00000000148488,0.607996041777244
12900.0000000294,11.3952170848604,1.00000000157577,0.600315932322394
13000.0000000298,11.3562587509533,1.00000000161993,0.593759986412606
13100.0000000301,11.3195791580639,1.00000000161058,0.599829798562807
13200.0000000305,11.2863435559392,1.00000000159571,0.605398266461176
13300.0000000309,11.253664123265,1.00000000166311,0.604179313877013
13400.0000000312,11.2205487952896,1.00000000167128,0.615824992421926
13500.0000000316,11.1893726826,1.00000000149086,0.606916570079056
13600.0000000319,11.1559211564231,1.00000000170692,0.601405448147853
13700.0000000323,11.1218509321828,1.0000000016681,0.608530882733004
13800.0000000327,11.0914103725802,1.00000000158857,0.600052486819591
13900.000000033,11.0631184593503,1.00000000153531,0.587494526216584
14000.0000000334,11.0353566816922,1.0000000016463,0.578927508085714
14100.0000000338,11.0058183471618,1.00000000170201,0.581076447783878
14200.0000000341,10.978574194699,1.00000000162288,0.582173485850353
14300.0000000345,10.9490815814652,1.00000000180437,0.613819334826094
14400.0000000349,10.9167688502976,1.00000000164447,0.619927418385205
14500.0000000352,10.8851946459637,1.00000000159799,0.606236957769265
14600.0000000356,10.854213366071,1.00000000170684,0.598919771249593
14700.0000000359,10.8225453078481,1.00000000161952,0.612684917282312
14800.0000000363,10.7964239888152,1.00000000142739,0.614443600249274
14900.0000000367,10.7708920679072,1.00000000168524,0.62486393601592
15000.000000037,10.7397397524548,1.00000000181517,0.629579563636513
15100.0000000374,10.708306577449,1.00000000156853,0.616370336127195
15200.0000000378,10.6796079575931,1.00000000163239,0.626012457963753
15300.0000000381,10.6448925698518,1.00000000178925,0.633599908899747
15400.0000000385,10.6062712469848,1.00000000166747,0.614861797650504
15500.0000000389,10.564572562313,1.00000000175656,0.616696892607319
15600.0000000392,10.5228428734938,1.00000000154175,0.627503473923962
15700.0000000396,10.484851524613,1.00000000149635,0.630593069310768
15800.0000000399,10.4490298970551,1.00000000164027,0.634844407531072
15900.0000000403,10.4102566419634,1.0000000017013,0.631220986981869
16000.0000000407,10.3673608532937,1.00000000183673,0.635408180607155
16100.000000041,10.3266544529576,1.00000000141026,0.62136135237097
16200.0000000414,10.2868273871019,1.00000000175239,0.64156286007231
16300.0000000418,10.2428093097219,1.00000000174924,0.63129032530361
16400.0000000418,10.19987106197,1.00000000158257,0.618940308713806
16500.0000000404,10.1582235791169,1.0000000017514,0.624780484192809
16600.0000000389,10.1156497933056,1.00000000158723,0.615031616652081
16700.0000000375,10.0723324641,1.00000000162389,0.641710811619717
16800.000000036,10.0270470437825,1.00000000164297,0.645949738894788
16900.0000000346,9.97964609475182,1.00000000168347,0.644342284559163
17000.0000000331,9.93082769114069,1.00000000164912,0.634089031647032
17100.0000000317,9.88065723677735,1.00000000182339,0.643134285759501
17200.0000000302,9.82895333878273,1.00000000171521,0.635588882149971
17300.0000000287,9.77698968858942,1.00000000173383,0.640921091340898
17400.0000000273,9.72450617171098,1.00000000176681,0.653071851744182
17500.0000000258,9.67030529745243,1.00000000194353,0.649219445338052
17600.0000000244,9.61598733935541,1.00000000170189,0.644243493514594
17700.0000000229,9.56210150254268,1.00000000160469,0.620029030795068
17800.0000000215,9.50877852697219,1.0000000017491,0.647728313354838
17900.00000002,9.45631908912601,1.00000000168201,0.638686393705467
18000.0000000186,9.40472252044047,1.00000000150556,0.620296272460949
18100.0000000171,9.35446895108749,1.00000000143534,0.631062451772652
18200.0000000156,9.30633730347471,1.00000000158052,0.626081459530893
18300.0000000142,9.26205412761565,1.00000000181673,0.635386453953791
18400.0000000127,9.22399534845142,1.00000000187292,0.640255754381899
18500.0000000113,9.1935842892696,1.00000000188651,0.656885048990203
18600.0000000098,9.1758376472392,1.00000000191205,0.656680775466347
18700.0000000084,9.16705574021353,1.00000000191562,0.661894338250759
18800.0000000069,9.17884972824677,1.00000000180886,0.659066218758084
18900.0000000055,9.19696485044484,1.00000000222366,0.656813260231695
19000.000000004,9.23862343104625,1.00000000207193,0.645143907229984
19100.0000000026,9.27641406543453,1.00000000219363,0.622770298143689
19200.0000000011,9.32790920169441,1.00000000217599,0.609279169713766
19299.9999999996,9.35945485096582,1.00000000192401,0.592853810098543
19399.9999999982,9.37931496792023,1.00000000177531,0.588048530325881
19499.9999999967,9.37010991130377,1.00000000145506,0.567812709458523
19599.9999999953,9.34010673705401,1.00000000136899,0.539359359011696
19699.9999999938,9.2989941460154,1.00000000135491,0.510465783721537
19799.9999999924,9.2623825150335,1.00000000110841,0.487329872194931
19899.9999999909,9.25571006989211,1.00000000112821,0.46144490493338
19999.9999999895,9.30089048312615,1.00000000106222,0.444022881670901
20099.999999988,9.42370223769089,1.00000000111558,0.437137212374521
20199.9999999865,9.62746603624684,1.00000000106637,0.432451673162989
20299.9999999851,9.93437475841932,1.00000000128327,0.443242668884206
20399.9999999836,10.3058640656107,1.00000000141752,0.449772176951554
20499.9999999822,10.7638629854428,1.00000000146351,0.460301083756468
20599.9999999807,11.2378567252957,1.00000000187045,0.469131853682142
20699.9999999793,11.7536175441778,1.00000000183752,0.48775143546698
20799.9999999778,12.2538838077781,1.00000000186171,0.495287620689921
20899.9999999764,12.7555714428599,1.00000000205845,0.507898730651945
20999.9999999749,13.2378674435469,1.00000000200854,0.518606775082324
21099.9999999734,13.6945446443556,1.00000000189783,0.525901785060619
21199.999999972,14.1397127419595,1.00000000194541,0.540744216969963
21299.9999999705,14.5459394886211,1.00000000198035,0.546969477027121
21399.9999999691,14.9499989927473,1.00000000182361,0.556038595703105
21499.9999999676,15.3282485398983,1.00000000188439,0.56096605050892
21599.9999999662,15.6937414796797,1.00000000189065,0.569347979249942
21699.9999999647,16.0499962425734,1.00000000181135,0.577896743583715
21799.9999999633,16.3842647568436,1.00000000190517,0.581011827635492
21899.9999999618,16.7007697111152,1.0000000018461,0.602824252476957
21999.9999999603,16.9900350659505,1.00000000186182,0.606941285190314
22099.9999999589,17.2776858698511,1.00000000187728,0.622619982132973
22199.9999999574,17.5326206284276,1.00000000192671,0.623648266851387
22299.999999956,17.7687201187309,1.00000000237689,0.62686315739792
22399.9999999545,17.9780678961891,1.00000000196426,0.649393403688444
22499.9999999531,18.167702618171,1.00000000183762,0.643800307196136
22599.9999999516,18.3481205165522,1.00000000182724,0.644645353315572
22699.9999999502,18.5073242013504,1.00000000203439,0.647946212127948
22799.9999999487,18.6570802989245,1.00000000191466,0.653559178038043
22899.9999999473,18.7834097563893,1.00000000203693,0.653751950495562
22999.9999999458,18.9002827229907,1.00000000203197,0.646899921977004
23099.9999999443,18.9999813193618,1.00000000191853,0.656536396833003
23199.9999999429,19.0889897466115,1.00000000200167,0.649882029565818
23299.9999999414,19.1688266664689,1.00000000192741,0.657896321293369
23399.99999994,19.2362031141607,1.00000000184775,0.65550856471177
23499.9999999385,19.2985638053988,1.00000000200511,0.656979898266304
23599.9999999371,19.3504598412466,1.00000000175449,0.64467191037075
23699.9999999356,19.3969830293997,1.00000000199505,0.646898300955646
23799.9999999342,19.4257610329717,1.0000000020105,0.648996261422265
23899.9999999327,19.4444238618829,1.00000000214764,0.655398767541394
23999.9999999312,19.4631681210398,1.00000000171766,0.644345527655509
24099.9999999298,19.4849567673552,1.00000000206636,0.648497815805079
24199.9999999283,19.508292356662,1.00000000182727,0.644246954720809
24299.9999999269,19.523881501305,1.00000000218441,0.654593770393686
24399.9999999254,19.5334491314619,1.00000000188467,0.653894421175597
24499.999999924,19.5337333068382,1.00000000192706,0.656846680843764
24599.9999999225,19.5295029827251,1.00000000188802,0.643141459413273
24699.9999999211,19.5212699937051,1.00000000192487,0.647601194256055
24799.9999999196,19.5132246635962,1.00000000193293,0.630295310697259
24899.9999999181,19.5110044773567,1.00000000172882,0.614446630154418
24999.9999999167,19.5042702481267,1.00000000210121,0.62644805587675
25099.9999999152,19.4879124464826,1.0000000018851,0.621120882314846
25199.9999999138,19.4644851566179,1.00000000163122,0.613269518776693
25299.9999999123,19.4479825174339,1.0000000015925,0.606264175951572
25399.9999999109,19.4396213891812,1.00000000180542,0.63369096808839
25499.9999999094,19.429254225347,1.00000000209859,0.65390847643314
25599.999999908,19.4106961262384,1.00000000207861,0.652820147758988
25699.9999999065,19.3853498709127,1.00000000205632,0.654062752802816
25799.9999999051,19.359932263478,1.00000000195792,0.650602931383039
25899.9999999036,19.3359707655461,1.00000000193673,0.643979328377273
25999.9999999021,19.3136743387144,1.00000000196725,0.655224330347394
26099.9999999007,19.2902087495166,1.00000000190014,0.649010833253339
26199.9999998992,19.2734942310358,1.00000000187869,0.619135462427758
26299.9999998978,19.2647608978322,1.00000000183224,0.630062797789708
26399.9999998963,19.2516181463382,1.00000000217265,0.644616981865727
26499.9999998949,19.2299094730208,1.00000000197135,0.629620062865731
26599.9999998934,19.2058225770189,1.00000000205358,0.620308767790758
26699.999999892,19.1866385714033,1.00000000180895,0.611406765967496
26799.9999998905,19.17275991592,1.00000000217725,0.656561328073317
26899.999999889,19.1547633726776,1.00000000198746,0.654792077694796
26999.9999998876,19.1332977310631,1.00000000197194,0.646070055352477
27099.9999998861,19.1123378781495,1.00000000179697,0.646483610323313
27199.9999998847,19.0965140867047,1.00000000187647,0.649174680966604
27299.9999998832,19.0803106880193,1.00000000233984,0.639870219065179
27399.9999998818,19.0650593784531,1.00000000183711,0.63995137264199
27499.9999998803,19.0466230364152,1.00000000227499,0.640285430201885
27599.9999998789,19.0247390906476,1.00000000191911,0.633580126742568
27699.9999998774,18.9993795098033,1.00000000208745,0.637033069852457
27799.9999998759,18.969514054157,1.00000000200679,0.64710800463606
27899.9999998745,18.9399002603714,1.00000000190743,0.635598419492645
27999.999999873,18.9110176941951,1.00000000182926,0.635714032109498
28099.9999998716,18.8812594570979,1.00000000194498,0.631073713412757
28199.9999998701,18.8473347086421,1.00000000214407,0.635283661010129
28299.9999998687,18.8130680153159,1.00000000187199,0.622958451611453
28399.9999998672,18.7823362741711,1.00000000198358,0.623277417418286
28499.9999998658,18.7540660039734,1.00000000182212,0.623062033373304
28599.9999998643,18.7250243576841,1.0000000019901,0.640814774096667
28699.9999998629,18.690988106821,1.00000000216551,0.655173737869316
28799.9999998614,18.6536554289944,1.00000000198492,0.639488400765005
28899.9999998599,18.6201373122059,1.00000000193485,0.61816557559847
28999.9999998585,18.5942914887482,1.00000000184689,0.637197569310662
