Time,AGPnorm,Energy,Entropy
0,0,1,-7.29008345796748e-17
99.9999999999986,0.00144652608181588,1.00000000000154,0.0045904684990707
199.999999999993,0.00955822363796831,1.00000000000133,0.0134776071687309
300,0.0195293949093757,1.00000000000002,0.0248090137522635
400.000000000022,0.0298417346076841,0.999999999999831,0.0388865379713272
500.000000000045,0.041577410768572,1.00000000000053,0.0560816490349502
600.000000000068,0.0570243771480679,1.00000000000137,0.0762743927761247
700.000000000091,0.0722686763482941,1.00000000000069,0.0991432492806477
800.000000000113,0.0879165186971145,1.00000000000048,0.125401985061198
900.000000000136,0.103626180460333,1.00000000000191,0.15711885825054
1000.00000000016,0.119786098366449,1.0000000000179,0.196809211317497
1100.0000000001,0.136415565338447,1.00000000009703,0.24602332429585
1200,0.167088706565267,1.00000000029829,0.299416183296541
1299.99999999991,0.220656740937922,1.00000000058677,0.35043899403639
1399.99999999982,0.336544934825023,1.00000000088338,0.395748919839038
1499.99999999973,0.62704442332136,1.00000000123902,0.434450617294273
1599.99999999964,1.20094566532922,1.00000000146897,0.466957633306292
1699.99999999955,2.10635640424571,1.00000000159729,0.49433989013016
1799.99999999946,3.39296505002403,1.00000000173092,0.516976923599897
1899.99999999937,5.11333674074943,1.00000000200589,0.53477180828654
1999.99999999928,7.2702195751166,1.00000000193769,0.549475783582461
2099.99999999919,9.81863912320174,1.00000000205032,0.560913954207642
2199.99999999909,12.7067560958527,1.00000000201855,0.569891908086178
2299.999999999,15.8690600981162,1.00000000188083,0.576375339139543
2399.99999999891,19.2187796902651,1.00000000201816,0.580486171212133
2499.99999999882,22.6791158326796,1.00000000188049,0.584301077667678
2599.99999999873,26.1861514190577,1.00000000178597,0.585642651120578
2699.99999999864,29.6720312560163,1.00000000178119,0.585902487736033
2799.99999999855,33.0629654690558,1.0000000017386,0.585429824738621
2899.99999999846,36.2981369127476,1.00000000174544,0.58486540166245
2999.99999999837,39.3479778090682,1.00000000165837,0.582723222686996
3099.99999999828,42.1892673453197,1.00000000153819,0.580264411557368
3199.99999999819,44.7868886395438,1.00000000157599,0.579280314272029
3299.99999999809,47.1113996221,1.00000000149778,0.579169294164711
3399.999999998,49.1563557278256,1.00000000142393,0.57582323349057
3499.99999999791,50.933478441885,1.00000000141856,0.573054239942737
3599.99999999782,52.4401658239033,1.00000000134135,0.572898219934933
3699.99999999773,53.6758608035416,1.00000000131637,0.567904407533693
3799.99999999764,54.6492203184013,1.00000000122559,0.568840981733647
3899.99999999755,55.3751572802524,1.00000000119954,0.567708102449392
3999.99999999746,55.8700503722,1.00000000110461,0.564471972599505
4099.99999999738,56.1713722422277,1.00000000116758,0.565329196932855
4199.99999999775,56.2645846547246,1.00000000105122,0.55677979313226
4299.99999999811,56.2101688409315,1.00000000123576,0.570962657884355
4399.99999999848,56.0014763264044,1.00000000091051,0.540711539318265
4499.99999999884,55.6707461436081,1.00000000130378,0.577041954282402
4599.9999999992,55.272364847099,1.00000000102504,0.544335764763449
4699.99999999957,54.7516032786913,1.00000000099019,0.539950647797747
4799.99999999993,54.1952808777321,1.00000000146596,0.578399049038705
4900.00000000029,53.5987207189769,1.00000000095045,0.521903651876503
5000.00000000066,52.9161243962105,1.0000000010896,0.534875800378898
5100.00000000102,52.2437924190428,1.00000000153063,0.578527964366939
5200.00000000139,51.5650723933292,1.00000000094487,0.508626104316424
5300.00000000175,50.8247969420248,1.00000000094069,0.504353079409547
5400.00000000211,50.0897033831229,1.00000000158127,0.578311958452635
5500.00000000248,49.3883470551745,1.00000000117471,0.526023917031232
5600.00000000284,48.6644129969465,1.00000000083013,0.476473582023148
5700.00000000321,47.9165574940735,1.00000000123258,0.519593841088088
5800.00000000357,47.1971927710316,1.00000000157031,0.566221048660021
5900.00000000393,46.5062395263957,1.00000000116214,0.504223640813611
6000.0000000043,45.8087852192309,1.0000000008642,0.47192563736917
6100.00000000466,45.1051659838624,1.00000000116324,0.497358101172468
6200.00000000502,44.4191290830209,1.00000000143924,0.545913325172661
6300.00000000539,43.7616314639201,1.00000000131938,0.527295146978504
6400.00000000575,43.1172662125073,1.00000000099247,0.476526472232418
6500.00000000612,42.4798892141215,1.00000000101888,0.487383991077663
6600.00000000648,41.8514629600714,1.0000000011696,0.502560681725864
6700.00000000684,41.2387655853383,1.00000000139025,0.530602253691641
6800.00000000721,40.6455212901729,1.00000000136977,0.527809614484664
6900.00000000757,40.069039257718,1.00000000104095,0.491255672159478
7000.00000000793,39.5092918679958,1.0000000009275,0.48934897099474
7100.0000000083,38.9651308054821,1.00000000121424,0.512966962028789
7200.00000000866,38.4352809353133,1.00000000112242,0.504846417220669
7300.00000000903,37.9214882048941,1.00000000119708,0.51385549739504
7400.00000000939,37.4206883468269,1.00000000139127,0.526215262666443
7500.00000000975,36.9332565619225,1.00000000110453,0.510855465755541
7600.00000001012,36.4671456067469,1.00000000094377,0.484857863115827
7700.00000001048,36.0206728719714,1.00000000118688,0.509219962658823
7800.00000001084,35.5842863501863,1.0000000012787,0.525726625856725
7900.00000001121,35.1635604466763,1.00000000103341,0.499057327972093
8000.00000001157,34.761458463663,1.0000000011076,0.499097528950661
8100.00000001194,34.3684026411684,1.00000000143397,0.529923817494695
8200.0000000123,33.9800936970225,1.00000000132128,0.519976418461578
8300.00000001266,33.6080603770407,1.00000000103329,0.498667544942106
8400.00000001303,33.2584230377391,1.00000000109975,0.499096803205568
8500.00000001339,32.9233134778091,1.00000000114725,0.51517901022752
8600.00000001376,32.5914273407187,1.00000000133407,0.521951634599673
8700.00000001412,32.2699992410216,1.00000000107423,0.518496939176855
8800.00000001448,31.9677372568532,1.00000000103465,0.493934994748178
8900.00000001485,31.6766615024825,1.00000000126082,0.517715877194023
9000.00000001521,31.3902557883456,1.00000000129971,0.535012658724005
9100.00000001557,31.1057323520271,1.00000000130666,0.528849040211965
9200.00000001594,30.8335803747013,1.00000000108541,0.508755879545909
9300.0000000163,30.5802272085897,1.00000000104268,0.508768552428719
9400.00000001667,30.3397526260947,1.00000000121808,0.525111597561091
9500.00000001703,30.1086856002014,1.0000000012023,0.523435796694677
9600.00000001739,29.8817973469719,1.00000000127246,0.519580420515187
9700.00000001776,29.6594358615935,1.00000000121387,0.529631196386042
9800.00000001812,29.4438844454867,1.00000000116671,0.53886507480814
9900.00000001848,29.2381393718223,1.00000000108379,0.524202911286388
10000.0000000188,29.0407634396637,1.00000000117855,0.529075075052458
10100.0000000192,28.8500440144847,1.00000000125285,0.544217618610701
10200.0000000196,28.6641428750476,1.00000000129117,0.540875864529275
10300.0000000199,28.4815012903202,1.00000000115307,0.534046767986786
10400.0000000203,28.3137971696577,1.00000000109492,0.524829104908635
10500.0000000207,28.1622397277982,1.00000000114346,0.522046682939448
10600.000000021,28.0137784166047,1.00000000131895,0.537900524434299
10700.0000000214,27.8678690489915,1.00000000113452,0.529214555408325
10800.0000000218,27.7353015596134,1.00000000104909,0.518834276679416
10900.0000000221,27.6127000715831,1.00000000118148,0.529675724020135
11000.0000000225,27.488745124976,1.00000000135628,0.53657550211859
11100.0000000229,27.3556388209252,1.00000000131879,0.559678969458302
11200.0000000232,27.2193813967159,1.00000000125207,0.565045573233996
11300.0000000236,27.0869993744518,1.00000000115118,0.549958299822973
11400.0000000239,26.9632376849684,1.0000000011302,0.54938893276946
11500.0000000243,26.8457520261719,1.00000000129619,0.556351821839921
11600.0000000247,26.7322887722977,1.000000001307,0.554146752269465
11700.000000025,26.6221000760966,1.00000000125934,0.545494229938235
11800.0000000254,26.5185175190682,1.00000000113838,0.542347587696264
11900.0000000258,26.426796265764,1.00000000109408,0.54232420098759
12000.0000000261,26.346005141307,1.0000000011715,0.54335457970517
12100.0000000265,26.2718500705223,1.00000000125854,0.544572557806934
12200.0000000269,26.1962417602844,1.00000000128502,0.549493748637609
12300.0000000272,26.1187719795173,1.00000000116932,0.549752969166408
12400.0000000276,26.0510499563312,1.0000000010885,0.532932938401331
12500.0000000279,25.9959638489182,1.0000000011444,0.545526743262007
12600.0000000283,25.9426458790779,1.00000000129629,0.566001283330458
12700.0000000287,25.8859502352189,1.00000000118758,0.555524272150578
12800.000000029,25.8233671410781,1.0000000012818,0.563876746179595
12900.0000000294,25.7533856707186,1.00000000127554,0.566318344099156
13000.0000000298,25.6774982398914,1.00000000129454,0.580119396895328
13100.0000000301,25.5957708364936,1.0000000012538,0.583014275989511
13200.0000000305,25.511752886563,1.00000000118959,0.583495544968876
13300.0000000309,25.4320774981971,1.00000000115173,0.575129301557395
13400.0000000312,25.3607278611822,1.00000000117533,0.568859291608688
13500.0000000316,25.2967470342305,1.00000000126944,0.563540339891645
13600.0000000319,25.238467431472,1.00000000129153,0.561331020556974
13700.0000000323,25.1845615469086,1.00000000120215,0.556547711601498
13800.0000000327,25.1373381171523,1.00000000111419,0.559963521525348
13900.000000033,25.1011381033345,1.0000000011197,0.563464209780607
14000.0000000334,25.0736547105662,1.00000000125597,0.55933438339846
14100.0000000338,25.0438766165251,1.00000000133346,0.564644282318323
14200.0000000341,25.0140999566818,1.00000000112858,0.558263845854741
14300.0000000345,24.9916667850361,1.00000000119566,0.553675840780721
14400.0000000349,24.9744133240777,1.00000000120521,0.553061374744813
14500.0000000352,24.9566050202906,1.00000000119025,0.555956051090449
14600.0000000356,24.939094591426,1.00000000121973,0.565002554017341
14700.0000000359,24.9231769124014,1.00000000124415,0.576191105600991
14800.0000000363,24.908003302695,1.00000000124307,0.582596116024137
14900.0000000367,24.8903872157041,1.00000000134015,0.594515077166881
15000.000000037,24.8700990496796,1.0000000012474,0.596341791251531
15100.0000000374,24.8490728527391,1.00000000116092,0.592201703067205
15200.0000000378,24.828962510955,1.00000000120613,0.588203026681544
15300.0000000381,24.8048427287208,1.00000000120277,0.592600325723496
15400.0000000385,24.7742149018907,1.00000000126217,0.595541306385391
15500.0000000389,24.7345741998666,1.00000000133117,0.603387494950185
15600.0000000392,24.6848965588174,1.00000000134784,0.60451486510028
15700.0000000396,24.6256751913665,1.0000000013081,0.608611556919362
15800.0000000399,24.5630473377837,1.00000000123171,0.613026636152703
15900.0000000403,24.5033463406992,1.00000000115237,0.607275010849378
16000.0000000407,24.4512850669923,1.00000000116293,0.595085733675885
16100.000000041,24.4079111325744,1.00000000118752,0.588289975138301
16200.0000000414,24.3714346027679,1.0000000012711,0.58671383509974
16300.0000000418,24.3406219263639,1.00000000132459,0.588813185759398
16400.0000000418,24.3156115220614,1.00000000129598,0.583676370264885
16500.0000000404,24.2956975840131,1.00000000121892,0.578956438816925
16600.0000000389,24.2833876335824,1.00000000124984,0.579908607244367
16700.0000000375,24.2782849748131,1.00000000120357,0.583671132404835
16800.000000036,24.2784697260556,1.00000000130685,0.585176860973653
16900.0000000346,24.2802376529056,1.00000000126476,0.580749617865902
17000.0000000331,24.2827022887778,1.00000000128018,0.574775679717149
17100.0000000317,24.2876137264033,1.00000000120831,0.568002985898823
17200.0000000302,24.2951818130947,1.00000000126587,0.571358828800194
17300.0000000287,24.3060372551489,1.00000000121767,0.580051571665299
17400.0000000273,24.3198594513781,1.000000001208,0.581093740298371
17500.0000000258,24.3336046209313,1.00000000126866,0.577878076264874
17600.0000000244,24.3439459696621,1.00000000130144,0.580082159703519
17700.0000000229,24.3501711881048,1.0000000013442,0.570145512855924
17800.0000000215,24.3555845815969,1.00000000131078,0.569687380832315
17900.00000002,24.3609386192164,1.00000000130008,0.579016655805558
18000.0000000186,24.3663211741942,1.00000000126496,0.594013115086642
18100.0000000171,24.3736814243852,1.00000000130016,0.599980620527691
18200.0000000156,24.3807149596551,1.00000000133703,0.602148477857994
18300.0000000142,24.3842857626694,1.00000000133317,0.597854938051665
18400.0000000127,24.3833413824051,1.00000000136159,0.604496236594241
18500.0000000113,24.3770541670676,1.00000000135636,0.606705697563382
18600.0000000098,24.3693267947156,1.0000000012571,0.613969862614431
18700.0000000084,24.362082908763,1.00000000129813,0.620300154897755
18800.0000000069,24.3522661979456,1.00000000132451,0.623669860762047
18900.0000000055,24.3372329902264,1.00000000138251,0.624472985378315
19000.000000004,24.3171693992978,1.00000000134733,0.62315246608416
19100.0000000026,24.2946248144602,1.0000000012945,0.615353280894214
19200.0000000011,24.2695727377603,1.00000000138938,0.615953297829411
19299.9999999996,24.2390764983199,1.0000000014263,0.613917822584754
19399.9999999982,24.200572739783,1.00000000145279,0.613214918084524
19499.9999999967,24.1540969107224,1.00000000143516,0.6147146845375
19599.9999999953,24.1023431734042,1.000000001424,0.612670301558139
19699.9999999938,24.0486916123786,1.00000000133031,0.609290721933417
19799.9999999924,23.9967814829301,1.0000000012593,0.603527518761534
19899.9999999909,23.9499407695774,1.00000000124645,0.595082917384609
19999.9999999895,23.909791321987,1.00000000126795,0.590889110708337
20099.999999988,23.875364487266,1.00000000133267,0.588224487617491
20199.9999999865,23.8473009507063,1.00000000126809,0.586248231391247
20299.9999999851,23.8245977188038,1.00000000134855,0.589512033106175
20399.9999999836,23.8087824413918,1.00000000139101,0.587919041123153
20499.9999999822,23.7982249787475,1.0000000012693,0.576128132107321
20599.9999999807,23.7935253967324,1.00000000135158,0.575581258581947
20699.9999999793,23.7944490442283,1.00000000131665,0.57957683167902
20799.9999999778,23.8006675216478,1.00000000131119,0.58671198202721
20899.9999999764,23.8136494440959,1.00000000131407,0.583286280980203
20999.9999999749,23.8309918927933,1.00000000135952,0.589501221177401
21099.9999999734,23.8495904518092,1.00000000140208,0.586260377820128
21199.999999972,23.8687823434753,1.00000000138417,0.583665680074147
21299.9999999705,23.8907561660169,1.00000000126472,0.583346356486578
21399.9999999691,23.9154904011167,1.00000000137572,0.571966545280913
21499.9999999676,23.9419957446283,1.00000000135495,0.573223521812825
21599.9999999662,23.9732554123748,1.00000000131037,0.573349822444455
21699.9999999647,24.0082791205982,1.00000000132803,0.58097658059032
21799.9999999633,24.0425278336518,1.00000000145403,0.583798316735343
21899.9999999618,24.0723292101602,1.00000000143807,0.588374324717132
21999.9999999603,24.1016265627789,1.0000000013477,0.587990415750647
22099.9999999589,24.1313375630475,1.0000000014259,0.589141189762311
22199.9999999574,24.1584299714666,1.00000000142999,0.592864009289609
22299.999999956,24.1804235154353,1.00000000150033,0.600037777025286
22399.9999999545,24.2000059787791,1.00000000139814,0.604543085028321
22499.9999999531,24.2202962496847,1.00000000140722,0.613009922220436
22599.9999999516,24.2434987035736,1.00000000136289,0.622259940456076
22699.9999999502,24.2673041460138,1.00000000140836,0.623072023878401
22799.9999999487,24.2871815894613,1.00000000147768,0.630056019693073
22899.9999999473,24.3011797808891,1.00000000145002,0.629619450859335
22999.9999999458,24.311621277991,1.00000000142213,0.630543385762925
23099.9999999443,24.3209680615096,1.00000000137409,0.633114092957632
23199.9999999429,24.3318182297047,1.00000000141476,0.632783031453004
23299.9999999414,24.3444229068057,1.00000000135824,0.626978057163715
23399.99999994,24.3590390613978,1.00000000125676,0.625858208733585
23499.9999999385,24.3725223136418,1.00000000151958,0.627582308364014
23599.9999999371,24.3783130160561,1.00000000151835,0.635776773414009
23699.9999999356,24.3806747758532,1.00000000137383,0.644010603735071
23799.9999999342,24.3825730384743,1.00000000129701,0.642132264657482
23899.9999999327,24.3833288308447,1.00000000142929,0.64642423779586
23999.9999999312,24.3796430417873,1.00000000143343,0.647892044980154
24099.9999999298,24.3743682085725,1.00000000130521,0.646480926336535
24199.9999999283,24.3719891309019,1.00000000125187,0.639374460405845
24299.9999999269,24.3711779508629,1.00000000135912,0.628714879428828
24399.9999999254,24.3669743498187,1.00000000144628,0.640965505714651
24499.999999924,24.3590420338452,1.00000000143503,0.637888793370373
24599.9999999225,24.3476055236006,1.0000000014087,0.641225883263319
24699.9999999211,24.3311218530702,1.00000000149525,0.635035624378185
24799.9999999196,24.3120209272098,1.00000000143527,0.63940590560489
24899.9999999181,24.2924961361341,1.00000000142843,0.64574650543981
24999.9999999167,24.2722826421202,1.00000000141215,0.640046587619862
25099.9999999152,24.2509061911672,1.00000000143467,0.643254935298696
25199.9999999138,24.2283431331759,1.0000000013704,0.643694685533309
25299.9999999123,24.2036995324786,1.00000000137948,0.646972552537925
25399.9999999109,24.1768022334326,1.00000000136832,0.63781768973951
25499.9999999094,24.1471015170838,1.00000000142547,0.640436604907302
25599.999999908,24.1144940102963,1.00000000142696,0.643904814664972
25699.9999999065,24.0788669915169,1.00000000149078,0.647521554765551
25799.9999999051,24.0406253784466,1.0000000014262,0.648298777563945
25899.9999999036,23.9995787901698,1.00000000149507,0.646906888567724
25999.9999999021,23.9551396108301,1.00000000152627,0.649400402858734
26099.9999999007,23.9079366782217,1.00000000144955,0.650899599759817
26199.9999998992,23.8594603595939,1.00000000144258,0.65405022875792
26299.9999998978,23.8100209423171,1.00000000153114,0.658940020506937
26399.9999998963,23.7604004302275,1.00000000142472,0.657329733297553
26499.9999998949,23.7134674631676,1.0000000013596,0.648887886901943
26599.9999998934,23.670532230627,1.00000000127837,0.642397278468484
26699.999999892,23.6328665246443,1.00000000132765,0.636575490113352
26799.9999998905,23.6007891104907,1.00000000139183,0.634924090614699
26899.999999889,23.5736112367343,1.00000000137631,0.636936670837882
26999.9999998876,23.5516819099828,1.00000000146661,0.641546939207903
27099.9999998861,23.5338203445523,1.00000000149186,0.642374988188775
27199.9999998847,23.5202386837217,1.00000000137957,0.63795217111701
27299.9999998832,23.5123447482832,1.00000000143042,0.633453915547119
27399.9999998818,23.5092952915087,1.000000001417,0.624920322897922
27499.9999998803,23.5117085162926,1.0000000013912,0.61949165778691
27599.9999998789,23.518562352724,1.00000000137376,0.615922231164676
27699.9999998774,23.5296121369724,1.00000000147634,0.612523624542629
27799.9999998759,23.5455348457648,1.00000000140366,0.614320680536
27899.9999998745,23.5656047581459,1.00000000151351,0.616548837771312
27999.999999873,23.5884099873122,1.00000000148259,0.612725896721659
28099.9999998716,23.6133016998181,1.00000000149993,0.610090456980927
28199.9999998701,23.6406609741141,1.00000000153252,0.610949347148147
28299.9999998687,23.6684804307436,1.00000000145472,0.605620004231251
28399.9999998672,23.6971515344855,1.00000000149619,0.608080354146578
28499.9999998658,23.7297449625907,1.00000000143879,0.608211810363958
28599.9999998643,23.7646169388211,1.00000000149128,0.60071511678683
28699.9999998629,23.8013807408156,1.00000000139018,0.593814779069698
28799.9999998614,23.840724947213,1.00000000147107,0.598768115274026
28899.9999998599,23.8823426093251,1.00000000140673,0.601224457674829
28999.9999998585,23.9254217254167,1.00000000151976,0.603582155337222
