Time,AGPnorm,Energy,Entropy
0,0,1,-1.33943270690761e-17
99.9999999999986,5.47124486697102e-05,1.000000000001,0.00205167497637455
199.999999999993,0.00460993528645082,1.00000000000108,0.00323321344859307
300,0.0117631499441578,1.0000000000001,0.00569622722624121
400.000000000022,0.0162105233804622,1.00000000000155,0.0096153112012614
500.000000000045,0.0194658824913413,1.00000000000013,0.0129030452662423
600.000000000068,0.027977705383137,1.00000000000088,0.0178549183460564
700.000000000091,0.0349696993484273,1.00000000000116,0.0227228687018256
800.000000000113,0.0442477651578121,1.00000000000015,0.0280122201190093
900.000000000136,0.0542003982956972,1.00000000000139,0.0343321470520129
1000.00000000016,0.0627363514281794,1.00000000000022,0.0403350649841087
1100.0000000001,0.0749600736109546,1.0000000000009,0.0473329182559539
1200,0.0877256716802598,1.00000000000118,0.0546646600805642
1299.99999999991,0.0996911729541703,1.00000000000008,0.0622538292425239
1399.99999999982,0.112529445708152,1.0000000000013,0.0707440339690489
1499.99999999973,0.125499334719184,1.00000000000041,0.0792917210349583
1599.99999999964,0.139831158251139,1.00000000000093,0.0887784060895942
1699.99999999955,0.154505515520099,1.00000000000113,0.0989531201919517
1799.99999999946,0.167984386595141,0.999999999999951,0.109535730275709
1899.99999999937,0.182423323915862,1.00000000000138,0.121376696541762
1999.99999999928,0.197807077109738,1.00000000000068,0.13404822670748
2099.99999999919,0.212416893870237,1.00000000000147,0.14824383492372
2199.99999999909,0.22656476372935,1.00000000000417,0.164396008781244
2299.999999999,0.240155607508405,1.00000000001244,0.182273232381349
2399.99999999891,0.255987296914941,1.00000000003501,0.202884108034347
2499.99999999882,0.268123627672188,1.00000000007703,0.225000741573368
2599.99999999873,0.286650054420854,1.00000000014134,0.247775193806408
2699.99999999864,0.30542760901508,1.00000000023032,0.270824592235884
2799.99999999855,0.327120179728106,1.00000000032221,0.293001067392959
2899.99999999846,0.383939554529016,1.00000000043184,0.315157290884702
2999.99999999837,0.444454152329623,1.00000000055449,0.33649709125645
3099.99999999828,0.563536336271969,1.00000000066427,0.356808646908847
3199.99999999819,0.746193065846143,1.0000000007646,0.376415379656514
3299.99999999809,0.988166918108667,1.00000000088361,0.395022765624302
3399.999999998,1.36231781678787,1.00000000099533,0.412595386025361
3499.99999999791,1.83599316194433,1.00000000108086,0.429243149816359
3599.99999999782,2.46154692407631,1.00000000115513,0.444626144823048
3699.99999999773,3.26396485054197,1.00000000126027,0.459160749265094
3799.99999999764,4.22518656667688,1.00000000134825,0.472764157655533
3899.99999999755,5.40320374860574,1.00000000138222,0.485391995890984
3999.99999999746,6.77926023249916,1.00000000144142,0.496766066347164
4099.99999999738,8.36896954516135,1.0000000014833,0.507599819721796
4199.99999999775,10.1865265103377,1.00000000150443,0.517547287885205
4299.99999999811,12.2173351552571,1.00000000148484,0.526557250961091
4399.99999999848,14.4726615115551,1.00000000161292,0.534799282870946
4499.99999999884,16.937871099844,1.00000000158617,0.542353550576837
4599.9999999992,19.6121330888424,1.00000000156128,0.549574530326191
4699.99999999957,22.4768081549111,1.00000000165166,0.555871867697364
4799.99999999993,25.5292298337677,1.00000000160691,0.561490566532366
4900.00000000029,28.7518726668711,1.00000000159368,0.567012502565257
5000.00000000066,32.1178791519346,1.00000000167027,0.57168479382764
5100.00000000102,35.6347280537403,1.00000000160118,0.575943816643911
5200.00000000139,39.2584635493696,1.00000000157221,0.580274455715953
5300.00000000175,42.9896366621872,1.00000000155487,0.583331819004223
5400.00000000211,46.8114908403304,1.00000000157764,0.586547379891213
5500.00000000248,50.6809795715794,1.00000000151809,0.589635013103115
5600.00000000284,54.6177638654999,1.00000000153502,0.591484569480545
5700.00000000321,58.5734553800847,1.00000000156688,0.594007605498304
5800.00000000357,62.5424997903966,1.0000000015162,0.595762836187441
5900.00000000393,66.523399451777,1.00000000149047,0.597395280595599
6000.0000000043,70.4656644477645,1.00000000148582,0.598951291761709
6100.00000000466,74.393487316055,1.0000000014304,0.59958068144917
6200.00000000502,78.2692661618035,1.00000000142519,0.600798009623489
6300.00000000539,82.0800996459403,1.0000000013795,0.60171303020539
6400.00000000575,85.837565101697,1.00000000138094,0.601803298645443
6500.00000000612,89.4944444683935,1.00000000137038,0.602764681592223
6600.00000000648,93.0728374237568,1.00000000136342,0.602543836618427
6700.00000000684,96.5511952256089,1.00000000134386,0.602837163086285
6800.00000000721,99.9125080901405,1.00000000130405,0.603144064613029
6900.00000000757,103.175456123577,1.00000000128565,0.603055893768543
7000.00000000793,106.302018176343,1.00000000127991,0.603727341938883
7100.0000000083,109.310740556927,1.00000000124777,0.602529766896649
7200.00000000866,112.193536233629,1.00000000119265,0.602684817851079
7300.00000000903,114.930891007335,1.00000000121015,0.603165467408778
7400.00000000939,117.545554849309,1.00000000116058,0.601589799397412
7500.00000000975,120.010004514161,1.00000000117248,0.60222022416215
7600.00000001012,122.340210363849,1.00000000112112,0.600767656155757
7700.00000001048,124.533981954181,1.00000000114167,0.601694589954655
7800.00000001084,126.576231442831,1.00000000109692,0.599957796299508
7900.00000001121,128.490032729481,1.00000000106883,0.600325230111613
8000.00000001157,130.255945968927,1.0000000010602,0.599640553407952
8100.00000001194,131.887424201484,1.00000000103718,0.599352007445662
8200.0000000123,133.38615361773,1.00000000101012,0.598136088707665
8300.00000001266,134.743305989296,1.00000000104358,0.598660430941843
8400.00000001303,135.97518562057,1.00000000100329,0.597127342281095
8500.00000001339,137.074328328139,1.00000000098844,0.597517843249535
8600.00000001376,138.046183943624,1.00000000097235,0.596473751262875
8700.00000001412,138.900641072371,1.00000000093554,0.596788501295093
8800.00000001448,139.626375091732,1.00000000090332,0.594929317604111
8900.00000001485,140.243986768094,1.00000000091642,0.597582090882422
9000.00000001521,140.746250302596,1.00000000086728,0.592975674060058
9100.00000001557,141.139457259511,1.00000000089251,0.596981704159962
9200.00000001594,141.436559440313,1.00000000089307,0.594149349730648
9300.0000000163,141.627191748702,1.0000000008713,0.591953250249828
9400.00000001667,141.730927904189,1.00000000088777,0.5968575525961
9500.00000001703,141.747983155978,1.00000000085777,0.590394954203967
9600.00000001739,141.677339045468,1.00000000084797,0.590942933493658
9700.00000001776,141.537012304573,1.00000000090711,0.596104735524722
9800.00000001812,141.323123629815,1.0000000008386,0.585561927607854
9900.00000001848,141.039406741476,1.00000000087283,0.590109001555689
10000.0000000188,140.699524715587,1.00000000091247,0.594045392994589
10100.0000000192,140.302772942071,1.00000000082837,0.580658374943486
10200.0000000196,139.847078877686,1.00000000089254,0.58733112582098
10300.0000000199,139.347864453272,1.00000000096556,0.59219587279918
10400.0000000203,138.808176871086,1.00000000083593,0.576637675872969
10500.0000000207,138.217664059698,1.00000000086637,0.582444276187065
10600.000000021,137.59758717246,1.00000000094724,0.589417159505291
10700.0000000214,136.951259359391,1.00000000088599,0.576653365513984
10800.0000000218,136.264362458976,1.00000000085965,0.572911681401069
10900.0000000221,135.556771123725,1.00000000096522,0.585773255419361
11000.0000000225,134.833409050801,1.00000000091468,0.579054672135632
11100.0000000229,134.084717048115,1.00000000080927,0.566916816033654
11200.0000000232,133.315186174137,1.00000000093684,0.578266018708898
11300.0000000236,132.534197373945,1.00000000099132,0.577936395342897
11400.0000000239,131.744565970467,1.00000000090683,0.572583765757121
11500.0000000243,130.935787968545,1.00000000085756,0.56279014013886
11600.0000000247,130.116177273074,1.00000000096305,0.575435888033053
11700.000000025,129.296198550696,1.00000000096321,0.572412375316965
11800.0000000254,128.468154387599,1.00000000088124,0.56703329259496
11900.0000000258,127.632103087436,1.00000000089037,0.560581791013693
12000.0000000261,126.791723253512,1.00000000098407,0.570883609650816
12100.0000000265,125.952423692468,1.00000000095523,0.564508256295225
12200.0000000269,125.113125729615,1.00000000090577,0.56554149961332
12300.0000000272,124.268281127012,1.00000000091737,0.558670661400347
12400.0000000276,123.424443519105,1.00000000093012,0.565865484901968
12500.0000000279,122.585067804655,1.00000000097012,0.556341932943633
12600.0000000283,121.746626131229,1.00000000095596,0.559936634932946
12700.0000000287,120.911067771824,1.00000000093495,0.561367241114959
12800.000000029,120.075781483129,1.00000000095575,0.560199709539931
12900.0000000294,119.247399721362,1.00000000098083,0.558356761577181
13000.0000000298,118.423335256184,1.00000000088395,0.543439039796757
13100.0000000301,117.602492416461,1.00000000097249,0.560200238203047
13200.0000000305,116.787324262203,1.00000000092397,0.560626747734369
13300.0000000309,115.97704115534,1.00000000101957,0.561740145091612
13400.0000000312,115.174785704483,1.00000000092335,0.549329664960134
13500.0000000316,114.377489054583,1.00000000087856,0.536681056391301
13600.0000000319,113.585283363883,1.00000000095483,0.553072373254262
13700.0000000323,112.800305092525,1.00000000096317,0.564005192375683
13800.0000000327,112.022311007266,1.0000000010219,0.56119839476229
13900.000000033,111.25283166426,1.000000000979,0.550704734294877
14000.0000000334,110.489833395841,1.00000000089588,0.535758828957158
14100.0000000338,109.732556202917,1.00000000093044,0.538705342492114
14200.0000000341,108.983158057604,1.00000000097022,0.559514619797842
14300.0000000345,108.24124100361,1.00000000097763,0.562910740893716
14400.0000000349,107.508020364203,1.00000000099656,0.556271241255777
14500.0000000352,106.783144993611,1.00000000092457,0.543125534637687
14600.0000000356,106.064993366069,1.00000000088304,0.535740452835
14700.0000000359,105.354696775454,1.00000000091678,0.537848676094804
14800.0000000363,104.652208860153,1.00000000099731,0.558004072221599
14900.0000000367,103.958228842225,1.00000000097786,0.562351353553968
15000.000000037,103.27274308043,1.00000000093995,0.55512784432021
15100.0000000374,102.595122646105,1.00000000090159,0.548460163069224
15200.0000000378,101.926237959007,1.00000000087007,0.538719089371976
15300.0000000381,101.26572289133,1.00000000090224,0.541247388625294
15400.0000000385,100.613481985681,1.00000000093356,0.546795866581451
15500.0000000389,99.9699218818357,1.00000000092649,0.559282204824729
15600.0000000392,99.3345050198626,1.00000000093413,0.55970221163464
15700.0000000396,98.707634501519,1.00000000094931,0.551309701791141
15800.0000000399,98.0893933952257,1.00000000090637,0.544785752236242
15900.0000000403,97.4801035253246,1.000000000894,0.546719363039914
16000.0000000407,96.8796572202209,1.00000000091677,0.548389910146222
16100.000000041,96.2878112861163,1.00000000091561,0.546059940414746
16200.0000000414,95.7046917180289,1.00000000094417,0.553747212726823
16300.0000000418,95.1297295912153,1.00000000095034,0.558705481698004
16400.0000000418,94.5635661036277,1.00000000089574,0.547883911188518
16500.0000000404,94.0063871658608,1.00000000092129,0.545813995382274
16600.0000000389,93.4576307259563,1.00000000094041,0.548354030771746
16700.0000000375,92.9173691051431,1.00000000088778,0.54827164540794
16800.000000036,92.3854974756345,1.00000000093537,0.549929656516071
16900.0000000346,91.8615791135808,1.00000000094657,0.550917921136651
17000.0000000331,91.3455578511884,1.00000000094693,0.549470837531826
17100.0000000317,90.8385396834184,1.00000000088092,0.548539163491647
17200.0000000302,90.3408801495114,1.0000000008788,0.549162748497193
17300.0000000287,89.8516984045158,1.00000000089856,0.545540374734873
17400.0000000273,89.3697416387009,1.0000000009503,0.546145615752738
17500.0000000258,88.8958240633878,1.00000000088205,0.543055337282181
17600.0000000244,88.4296483682839,1.00000000091934,0.547483505145146
17700.0000000229,87.9687107887032,1.00000000106927,0.562629507979276
17800.0000000215,87.5134690265434,1.00000000092289,0.549832320626395
17900.00000002,87.0672655759432,1.00000000090951,0.539457660323219
18000.0000000186,86.6308086857633,1.00000000090847,0.545575558666481
18100.0000000171,86.2033760427166,1.00000000091732,0.545218266968077
18200.0000000156,85.7829970703427,1.00000000098769,0.547602760941239
18300.0000000142,85.3694393126252,1.00000000094027,0.5409653041813
18400.0000000127,84.9634141294826,1.00000000088229,0.540178556154721
18500.0000000113,84.5638715373372,1.00000000095942,0.548395952141819
18600.0000000098,84.1674213769236,1.00000000105197,0.556137933926447
18700.0000000084,83.773506349655,1.00000000106093,0.562972523024175
18800.0000000069,83.3857677754481,1.00000000088281,0.543704686262241
18900.0000000055,83.0077918586745,1.00000000089862,0.537036592362902
19000.000000004,82.6400865416484,1.00000000084288,0.543041760041869
19100.0000000026,82.2809284682433,1.00000000094934,0.545455463707931
19200.0000000011,81.9276597632253,1.0000000009483,0.547937745783621
19299.9999999996,81.5811326804424,1.00000000087899,0.542223347800667
19399.9999999982,81.2419648244632,1.00000000091634,0.540070422942254
19499.9999999967,80.9070426631593,1.00000000099501,0.550780473039195
19599.9999999953,80.5741164976903,1.00000000102408,0.553499340077991
19699.9999999938,80.2422195709653,1.00000000102977,0.555852162530422
19799.9999999924,79.912500122615,1.00000000101281,0.560107498335787
19899.9999999909,79.5889913654856,1.00000000086537,0.546233019710294
19999.9999999895,79.2749702619267,1.00000000084657,0.537890697622346
20099.999999988,78.9710628820969,1.00000000087326,0.544684561820948
20199.9999999865,78.6752927103044,1.00000000093227,0.54853511742197
20299.9999999851,78.3859457075324,1.00000000094822,0.546325203368988
20399.9999999836,78.1033763489841,1.00000000092249,0.547868728288013
20499.9999999822,77.8261939959959,1.0000000009427,0.549629295012586
20599.9999999807,77.5534488885955,1.000000000949,0.550400038851667
20699.9999999793,77.2820696223415,1.00000000099484,0.557142278125817
20799.9999999778,77.0111754448203,1.00000000102104,0.552495805585101
20899.9999999764,76.7411222497903,1.0000000010055,0.550356779960575
20999.9999999749,76.473023151131,1.00000000095208,0.558620256624102
21099.9999999734,76.2093798058562,1.00000000092928,0.555835201153111
21199.999999972,75.9523061170253,1.00000000088183,0.547323915489746
21299.9999999705,75.7037797800992,1.00000000089267,0.547447428862904
21399.9999999691,75.4639669843085,1.00000000093195,0.552811327551523
21499.9999999676,75.2329512586361,1.00000000088773,0.549571552616188
21599.9999999662,75.009335417944,1.00000000092036,0.549430498675194
21699.9999999647,74.7904565784914,1.00000000093292,0.556666501340078
21799.9999999633,74.5750000365445,1.00000000095817,0.55844411943752
21899.9999999618,74.3614944412696,1.00000000100244,0.563351090344685
21999.9999999603,74.1483569981638,1.00000000097926,0.561801706388954
22099.9999999589,73.9376074120327,1.00000000095944,0.555442747517989
22199.9999999574,73.7285361007711,1.00000000099945,0.548816962404094
22299.999999956,73.5199665728372,1.00000000101422,0.552992882544846
22399.9999999545,73.3122543044181,1.0000000009694,0.56551474128924
22499.9999999531,73.106765790221,1.0000000009368,0.566618789228492
22599.9999999516,72.9062297811084,1.0000000009339,0.557628485373589
22699.9999999502,72.7130509495388,1.00000000086369,0.553545154324718
22799.9999999487,72.5274912854803,1.00000000094757,0.555692397474164
22899.9999999473,72.3507404853734,1.00000000090872,0.552717568542709
22999.9999999458,72.1827851043378,1.00000000089394,0.553041039312899
23099.9999999443,72.0207696004797,1.00000000095558,0.558540847179354
23199.9999999429,71.8612624223096,1.00000000098414,0.568254148786863
23299.9999999414,71.7021050528941,1.00000000099678,0.571045621182718
23399.99999994,71.5425758281992,1.00000000100687,0.572186425800202
23499.9999999385,71.3832320914035,1.00000000098551,0.565090768034744
23599.9999999371,71.2267118384446,1.00000000094371,0.557497886404836
23699.9999999356,71.0737271487027,1.00000000092511,0.550950694260843
23799.9999999342,70.9224202578292,1.00000000096462,0.545659776814816
23899.9999999327,70.7711532291369,1.00000000104822,0.556215389187632
23999.9999999312,70.6170918822907,1.00000000105541,0.572590140087457
24099.9999999298,70.4613874000867,1.0000000010279,0.57696205266545
24199.9999999283,70.3075104651307,1.0000000009571,0.570374163992717
24299.9999999269,70.1598704812732,1.00000000086534,0.559416132550608
24399.9999999254,70.0216439455868,1.00000000088695,0.552577416582265
24499.999999924,69.8924343736113,1.00000000088307,0.551853571109868
24599.9999999225,69.7712618045982,1.00000000090056,0.552976397900417
24699.9999999211,69.6564790991368,1.00000000096893,0.562497425861306
24799.9999999196,69.5441359347111,1.00000000097394,0.569238780138293
24899.9999999181,69.4330811365221,1.00000000100652,0.575167759047206
24999.9999999167,69.3197307868062,1.00000000105302,0.581779107430251
25099.9999999152,69.2032965617813,1.00000000104262,0.580461004542419
25199.9999999138,69.0856426910255,1.00000000100384,0.577286610071884
25299.9999999123,68.9698621203159,1.00000000095566,0.564016519273537
25399.9999999109,68.8599968925628,1.00000000084724,0.55729696572231
25499.9999999094,68.7557088426003,1.00000000089506,0.553770052163079
25599.999999908,68.6538380117078,1.0000000009537,0.556772495851075
25699.9999999065,68.5493085451886,1.00000000107351,0.568510234485697
25799.9999999051,68.4380288996831,1.00000000109547,0.580852697599887
25899.9999999036,68.3215554524806,1.00000000105238,0.587207138366027
25999.9999999021,68.2031059309456,1.00000000100229,0.586598278501591
26099.9999999007,68.0881519591115,1.0000000009053,0.572472014753657
26199.9999998992,67.9814429542697,1.00000000085293,0.561130791923548
26299.9999998978,67.885075111631,1.00000000085687,0.555904062534658
26399.9999998963,67.7988637678467,1.00000000091036,0.556584217405367
26499.9999998949,67.7200511283414,1.00000000092444,0.562703663104259
26599.9999998934,67.6462373681262,1.00000000096044,0.572794390735861
26699.999999892,67.574335169202,1.00000000099364,0.584565537947793
26799.9999998905,67.5013591042311,1.00000000107568,0.588352938912968
26899.999999889,67.4258446971974,1.00000000106668,0.590085821232994
26999.9999998876,67.3466077604999,1.0000000010385,0.591985928975733
27099.9999998861,67.2649976900273,1.00000000101927,0.58577841810763
27199.9999998847,67.1837342349644,1.0000000009859,0.580427085918905
27299.9999998832,67.1050214924932,1.00000000096699,0.570582107965824
27399.9999998818,67.0314454093109,1.00000000089826,0.567084951269561
27499.9999998803,66.9633899545658,1.00000000092118,0.575522525392649
27599.9999998789,66.8971654372831,1.00000000098621,0.583912417283968
27699.9999998774,66.8293058191861,1.00000000100144,0.58293913167867
27799.9999998759,66.7566360202376,1.00000000105634,0.591515764719671
27899.9999998745,66.6783032805933,1.00000000109391,0.59049959856516
27999.999999873,66.5953698820035,1.00000000107047,0.59191368677804
28099.9999998716,66.5106933639367,1.00000000103557,0.592282093453317
28199.9999998701,66.4270755902018,1.00000000099145,0.590270134463645
28299.9999998687,66.3490453372056,1.00000000090379,0.577858120847098
28399.9999998672,66.2807483321333,1.00000000086124,0.568352879635702
28499.9999998658,66.2227118390346,1.00000000087653,0.568173126154418
28599.9999998643,66.1725633233549,1.00000000090806,0.569801173871036
28699.9999998629,66.1285667039032,1.00000000096301,0.577589032671953
28799.9999998614,66.0862115222341,1.00000000102033,0.587358826342255
28899.9999998599,66.0434245709506,1.00000000101148,0.595614714048379
28999.9999998585,65.9983400103546,1.00000000105375,0.604814101726408
