Time,AGPnorm,Energy,Entropy
0,0,1,-4.88522541831776e-18
99.9999999999986,0.00846057846793684,0.999999999994414,0.0237653515069895
199.999999999993,0.0220203765517932,1.0000000000007,0.0701966158481972
300,0.0445301501854644,0.999999999995875,0.141008213055469
400.000000000022,0.0655681214273291,1.0000000001321,0.249252607056301
500.000000000045,0.113404461076415,1.00000000109402,0.391097576798804
600.000000000068,0.462422580227301,1.00000000227319,0.49549229498749
700.000000000091,1.52342461022093,1.00000000318178,0.552407912147938
800.000000000113,3.34573160785644,1.00000000341727,0.579356903958037
900.000000000136,5.81434351907916,1.00000000312974,0.586944291906436
1000.00000000016,8.45884220902911,1.0000000029824,0.586047217561081
1100.0000000001,11.0224516493229,1.0000000029505,0.579065497731716
1200,13.2070269069735,1.00000000265526,0.567442347703628
1299.99999999991,14.89681924248,1.00000000237406,0.560305274277829
1399.99999999982,16.0630861131601,1.00000000217652,0.547636793465861
1499.99999999973,16.7277786130785,1.00000000187459,0.545526335673545
1599.99999999964,16.9695398836775,1.00000000222967,0.570496304040887
1699.99999999955,16.8687155142519,1.00000000156235,0.504874286299754
1799.99999999946,16.6246423925534,1.00000000211598,0.550688232981403
1899.99999999937,16.1605771922043,1.00000000175146,0.504378705402791
1999.99999999928,15.7133477178241,1.00000000229438,0.543163271032806
2099.99999999919,15.1640780389945,1.00000000126372,0.425783133687184
2199.99999999909,14.6241171380969,1.00000000275337,0.576534818024207
2299.999999999,14.1288472277129,1.00000000126453,0.421630849369831
2399.99999999891,13.5941231668956,1.00000000181512,0.466364737190778
2499.99999999882,13.0895557742274,1.00000000272621,0.555734856843241
2599.99999999873,12.6385508820267,1.00000000162408,0.464407162402428
2699.99999999864,12.2089703771115,1.000000001477,0.416515165298748
2799.99999999855,11.7882766601007,1.00000000208038,0.517507258026185
2899.99999999846,11.3879808693869,1.00000000246946,0.536749443715076
2999.99999999837,11.0171306073203,1.00000000213769,0.526198546607447
3099.99999999828,10.7079814372605,1.00000000105068,0.393006311421557
3199.99999999819,10.4352227377794,1.00000000225518,0.477089200289861
3299.99999999809,10.156022897917,1.00000000201403,0.526255860249152
3399.999999998,9.8924192358979,1.00000000203111,0.529746821751893
3499.99999999791,9.62212479717338,1.0000000024628,0.546068245046413
3599.99999999782,9.36443740681727,1.00000000177193,0.531963899211497
3699.99999999773,9.17595588618532,1.00000000119778,0.417047095996218
3799.99999999764,9.06215909915237,1.00000000171426,0.444800878085864
3899.99999999755,8.93699089503343,1.00000000222383,0.524288753156013
3999.99999999746,8.80781238752777,1.00000000195908,0.542750421818606
4099.99999999738,8.6667633038337,1.00000000221468,0.552589196268072
4199.99999999775,8.51654849909021,1.00000000191182,0.56485197366387
4299.99999999811,8.36523315625101,1.00000000221112,0.541899532106787
4399.99999999848,8.19928751791775,1.00000000277856,0.563632938643371
4499.99999999884,8.03617010835657,1.00000000201428,0.545460004073693
4599.9999999992,7.93690804829613,1.00000000122938,0.447058874879059
4699.99999999957,7.93627358651563,1.00000000155517,0.441676199287889
4799.99999999993,7.95734782618648,1.00000000198014,0.491067602981637
4900.00000000029,7.96048314727499,1.00000000222135,0.535383876463367
5000.00000000066,7.94166691847853,1.00000000214924,0.560023662493686
5100.00000000102,7.90666007927539,1.00000000212873,0.577335979459768
5200.00000000139,7.86397612040165,1.00000000199106,0.574064511035155
5300.00000000175,7.81228703784919,1.00000000217688,0.572559732237252
5400.00000000211,7.74191752424146,1.00000000213451,0.576211707829481
5500.00000000248,7.66027767419236,1.00000000214754,0.585936487045297
5600.00000000284,7.57937761363141,1.00000000185547,0.592479035957585
5700.00000000321,7.49186674187087,1.00000000215114,0.585040667966678
5800.00000000357,7.39532068257709,1.0000000025417,0.587972499089737
5900.00000000393,7.28942952809831,1.00000000265323,0.578107712734463
6000.0000000043,7.18485892916212,1.00000000187929,0.55558482784963
6100.00000000466,7.12514521606011,1.00000000138838,0.49033270452819
6200.00000000502,7.15772149850391,1.00000000141566,0.456768087241642
6300.00000000539,7.26819107781437,1.00000000190691,0.476048761267478
6400.00000000575,7.38438265123463,1.00000000216544,0.515866120366624
6500.00000000612,7.48271334881192,1.00000000218272,0.542317884835748
6600.00000000648,7.5654409697009,1.00000000195498,0.562496790280289
6700.00000000684,7.63250335261916,1.00000000216387,0.59386902552185
6800.00000000721,7.66883803477273,1.00000000229778,0.606797931245926
6900.00000000757,7.68846353585023,1.00000000221345,0.623949187959979
7000.00000000793,7.69081061354384,1.00000000232791,0.626094898094811
7100.0000000083,7.67353898880175,1.00000000245757,0.630079256387293
7200.00000000866,7.65208682498878,1.00000000211626,0.619640918586621
7300.00000000903,7.63353891142321,1.00000000201117,0.60672886408335
7400.00000000939,7.61745285163247,1.00000000239336,0.58984012164436
7500.00000000975,7.58499808260998,1.00000000228638,0.606760222062859
7600.00000001012,7.55211485316912,1.00000000217387,0.609724660972465
7700.00000001048,7.52561046266922,1.00000000228196,0.626455146199428
7800.00000001084,7.49007482354299,1.00000000212975,0.629397883762624
7900.00000001121,7.45349027975348,1.00000000235765,0.623255352458766
8000.00000001157,7.41433063223428,1.00000000215195,0.604098811153823
8100.00000001194,7.37092075379352,1.0000000025664,0.619120657991821
8200.0000000123,7.31535317186804,1.00000000230422,0.644804108314767
8300.00000001266,7.2531104848731,1.00000000217319,0.635763359712184
8400.00000001303,7.19075709764644,1.00000000197804,0.634368820603238
8500.00000001339,7.1270979053257,1.00000000230126,0.640494569383053
8600.00000001376,7.06150141645678,1.00000000254562,0.644975299468574
8700.00000001412,6.99557705381839,1.00000000258302,0.657959510286131
8800.00000001448,6.92978056912772,1.00000000284316,0.649596527251545
8900.00000001485,6.86023525004227,1.00000000263999,0.631722334256837
9000.00000001521,6.78856861380791,1.00000000211925,0.59764605582128
9100.00000001557,6.73679136649041,1.00000000175917,0.548895108825111
9200.00000001594,6.7399709864123,1.00000000159705,0.502936141050654
9300.0000000163,6.82624899585022,1.00000000161754,0.486492987850685
9400.00000001667,6.98744568151875,1.00000000179981,0.486823998188484
9500.00000001703,7.18309797235812,1.00000000241919,0.514561855669565
9600.00000001739,7.38586741504353,1.00000000250099,0.530999083872849
9700.00000001776,7.57038594168148,1.00000000243489,0.548788730178302
9800.00000001812,7.74598925962057,1.00000000257688,0.569044161585642
9900.00000001848,7.90109846060214,1.00000000237654,0.575000821167987
10000.0000000188,8.04454352759674,1.00000000268422,0.593591462535197
10100.0000000192,8.16373757306979,1.00000000252335,0.613552858085771
10200.0000000196,8.26592788637357,1.0000000025927,0.626309744787913
10300.0000000199,8.34928804464207,1.00000000260258,0.6072329373738
10400.0000000203,8.41430534285828,1.00000000251479,0.633437187156889
10500.0000000207,8.46027097599787,1.00000000267299,0.659560021475748
10600.000000021,8.49417046300653,1.00000000258265,0.651309039853123
10700.0000000214,8.5208745904379,1.00000000233322,0.643802417191276
10800.0000000218,8.54868699108836,1.000000002541,0.646108993640934
10900.0000000221,8.56161466601549,1.00000000256152,0.649205687023791
11000.0000000225,8.57270271944461,1.00000000225679,0.653663740998439
11100.0000000229,8.57585431777279,1.00000000242874,0.645200054422657
11200.0000000232,8.56834200784155,1.00000000273192,0.655296278738087
11300.0000000236,8.55782894150063,1.00000000247949,0.653867629739818
11400.0000000239,8.54086242279557,1.00000000239,0.647693357540383
11500.0000000243,8.52132762910083,1.00000000254436,0.655451655698733
11600.0000000247,8.4955508964498,1.00000000250689,0.664382231391862
11700.000000025,8.4689434964398,1.00000000257246,0.654793613493069
11800.0000000254,8.44168676951804,1.00000000263556,0.651289729412016
11900.0000000258,8.41410474212899,1.00000000235503,0.640690432246785
12000.0000000261,8.39173134721699,1.00000000236024,0.61576534329732
12100.0000000265,8.37960188341885,1.00000000237973,0.607558321754612
12200.0000000269,8.37815925305097,1.00000000246584,0.634336763709612
12300.0000000272,8.38332655226222,1.00000000248142,0.641496640427421
12400.0000000276,8.38638386822706,1.00000000243032,0.639200196294765
12500.0000000279,8.38180224398174,1.00000000264482,0.630705861980863
12600.0000000283,8.38122409311413,1.0000000024198,0.620778656820679
12700.0000000287,8.38102655888106,1.00000000274699,0.626297817536593
12800.000000029,8.3761582013344,1.00000000269642,0.629373537655366
12900.0000000294,8.37376119409878,1.00000000240334,0.633511899628019
13000.0000000298,8.37470787874382,1.00000000260578,0.645068967784472
13100.0000000301,8.37001856026047,1.00000000278089,0.642832964818572
13200.0000000305,8.36097306882621,1.00000000249191,0.64183319237306
13300.0000000309,8.35687850825764,1.00000000245411,0.642151967802104
13400.0000000312,8.35541583809159,1.00000000264266,0.649668681972443
13500.0000000316,8.35992840960341,1.00000000248248,0.644037593620011
13600.0000000319,8.36560579171662,1.00000000264008,0.649768644507734
13700.0000000323,8.36550149506193,1.00000000285105,0.650903270720331
13800.0000000327,8.3595034988786,1.00000000274375,0.643523739763988
13900.000000033,8.35833872938556,1.0000000024892,0.655921179854773
14000.0000000334,8.35334512764792,1.00000000273622,0.666853343741223
14100.0000000338,8.34660063507788,1.00000000268052,0.65770270798776
14200.0000000341,8.33831105733787,1.00000000274477,0.677554402960591
14300.0000000345,8.32548686694877,1.00000000263843,0.668357653277517
14400.0000000349,8.31675116048586,1.00000000254842,0.659684697441626
14500.0000000352,8.3072175920535,1.00000000265932,0.662562563361259
14600.0000000356,8.29763235461857,1.00000000263935,0.665271624565539
14700.0000000359,8.28910986248895,1.00000000250646,0.658992192015565
14800.0000000363,8.27900949863036,1.00000000284453,0.657171894280713
14900.0000000367,8.26318536356987,1.00000000297592,0.656356105083361
15000.000000037,8.24418749472356,1.00000000264289,0.657901429778255
15100.0000000374,8.22629205766982,1.00000000262975,0.649362301996832
15200.0000000378,8.20862910714373,1.00000000278703,0.663349216013336
15300.0000000381,8.19304881763874,1.0000000025805,0.651769485706705
15400.0000000385,8.17865059338554,1.00000000281546,0.665946845420257
15500.0000000389,8.15484533498431,1.00000000291953,0.68176206153829
15600.0000000392,8.13021708238441,1.00000000265016,0.655534737132863
15700.0000000396,8.10880169420746,1.00000000286029,0.65198084743315
15800.0000000399,8.08557972036231,1.00000000270558,0.665713641358421
15900.0000000403,8.05992111911329,1.0000000029471,0.672537917048338
16000.0000000407,8.0290508884988,1.00000000294393,0.684885428470664
16100.000000041,7.99455936435818,1.00000000270564,0.668841937724144
16200.0000000414,7.96043116846162,1.00000000280781,0.667099002319762
16300.0000000418,7.92324608174891,1.00000000298869,0.671518877493404
16400.0000000418,7.88292023429407,1.00000000310824,0.671049826729239
16500.0000000404,7.84040707510423,1.00000000337627,0.668175112680263
16600.0000000389,7.79687082226908,1.00000000268545,0.670035074878289
16700.0000000375,7.75357878748507,1.00000000270331,0.659111823220754
16800.000000036,7.70997294676594,1.00000000263255,0.666431995302725
16900.0000000346,7.66776511330816,1.00000000263897,0.65324511862331
17000.0000000331,7.6269347883392,1.00000000267631,0.652521762785618
17100.0000000317,7.58942205791602,1.00000000291346,0.655366218278213
17200.0000000302,7.55525816824465,1.00000000320041,0.648430760730309
17300.0000000287,7.52535849584558,1.00000000311052,0.665962001189847
17400.0000000273,7.50203884029354,1.00000000288055,0.673207700945849
17500.0000000258,7.48149568089993,1.00000000351343,0.676902390473304
17600.0000000244,7.46709234246639,1.00000000333952,0.679141849781047
17700.0000000229,7.44827669356438,1.00000000323897,0.675077224880551
17800.0000000215,7.42972863991713,1.0000000030777,0.664380648911906
17900.00000002,7.40003155548144,1.00000000320281,0.647560815335699
18000.0000000186,7.36359786469375,1.00000000288419,0.624163428755183
18100.0000000171,7.32501769430288,1.00000000280459,0.60294145098331
18200.0000000156,7.29471611443333,1.00000000252688,0.585718917188029
18300.0000000142,7.29228345196601,1.00000000234383,0.567534882592434
18400.0000000127,7.3362341621936,1.00000000215448,0.546265196801496
18500.0000000113,7.44698834900882,1.00000000241334,0.532247333053425
18600.0000000098,7.62659326240223,1.00000000234527,0.52688843155167
18700.0000000084,7.88888528470033,1.00000000252431,0.532423998958436
18800.0000000069,8.19997079768221,1.00000000262878,0.534814114690721
18900.0000000055,8.57021239395771,1.00000000284521,0.543260896062093
19000.000000004,8.94233067227164,1.00000000298613,0.542004636388607
19100.0000000026,9.34697933015545,1.00000000286211,0.5539415814922
19200.0000000011,9.72647596615842,1.00000000309259,0.562018252788271
19299.9999999996,10.114062722686,1.00000000360281,0.567363485644638
19399.9999999982,10.4799438588249,1.00000000303032,0.579922566065303
19499.9999999967,10.8374780781818,1.0000000032283,0.578655705697059
19599.9999999953,11.1912289460519,1.00000000299631,0.58672445704242
19699.9999999938,11.5326273915853,1.00000000307653,0.587355044774056
19799.9999999924,11.8772860003402,1.00000000291428,0.60034070606072
19899.9999999909,12.2087034609278,1.00000000297681,0.607360453507675
19999.9999999895,12.5365850877275,1.00000000313792,0.622508077678512
20099.999999988,12.8500738809627,1.00000000315126,0.628127011738913
20199.9999999865,13.1476408884362,1.00000000312441,0.632799022717025
20299.9999999851,13.4362752582661,1.00000000316226,0.64650627568483
20399.9999999836,13.6969709086049,1.00000000335066,0.647396048316246
20499.9999999822,13.9505533983964,1.00000000333648,0.651242332848564
20599.9999999807,14.1746507958552,1.0000000033066,0.656162712349747
20699.9999999793,14.3833047863539,1.00000000323182,0.65734636500438
20799.9999999778,14.5684354801311,1.00000000320033,0.670467047840608
20899.9999999764,14.7467002426914,1.00000000294205,0.660668643752844
20999.9999999749,14.9270546341691,1.0000000032393,0.674116676673885
21099.9999999734,15.0888434673764,1.00000000324451,0.668847202700168
21199.999999972,15.2405697845902,1.00000000286575,0.660220771567342
21299.9999999705,15.3785051309353,1.00000000340091,0.686565006167535
21399.9999999691,15.5145339995016,1.00000000329572,0.681601525444599
21499.9999999676,15.6418412338598,1.00000000303122,0.68276594212091
21599.9999999662,15.7695389393752,1.00000000340092,0.689607334451995
21699.9999999647,15.8874267095015,1.00000000349083,0.69702429606852
21799.9999999633,15.984350864529,1.00000000341243,0.691868534077013
21899.9999999618,16.0787685498577,1.00000000301468,0.696170743131978
21999.9999999603,16.1723333888786,1.00000000301668,0.695220919296871
22099.9999999589,16.2810687742992,1.00000000325928,0.687855543316897
22199.9999999574,16.3877422130684,1.00000000334037,0.691047008383131
22299.999999956,16.4831465015682,1.00000000330155,0.683532575448486
22399.9999999545,16.5650831792409,1.00000000362332,0.690531949213479
22499.9999999531,16.6432178471697,1.00000000315964,0.684270846318323
22599.9999999516,16.7309405430723,1.00000000306861,0.674693132126807
22699.9999999502,16.8276784317801,1.0000000029244,0.687104006192442
22799.9999999487,16.9323713527306,1.00000000440445,0.691549911327643
22899.9999999473,17.0198167180868,1.00000000378625,0.677893295912236
22999.9999999458,17.0948789754198,1.00000000350788,0.675157779901334
23099.9999999443,17.1702516262821,1.00000000309162,0.681252853514265
23199.9999999429,17.2470080740724,1.00000000325373,0.687276091584018
23299.9999999414,17.3289997611288,1.00000000310007,0.683686310238501
23399.99999994,17.4058274575164,1.00000000374619,0.67970587583034
23499.9999999385,17.4749875282993,1.0000000031355,0.684065536131582
23599.9999999371,17.5343661270513,1.00000000337177,0.695218088985664
23699.9999999356,17.5972981236697,1.00000000353598,0.671243999158798
23799.9999999342,17.6730697284515,1.00000000312357,0.668959892206322
23899.9999999327,17.7508862081235,1.00000000324351,0.698431424831957
23999.9999999312,17.8332574764966,1.00000000340064,0.687139835594997
24099.9999999298,17.9191509025559,1.00000000357666,0.687073500755878
24199.9999999283,18.0070041472912,1.0000000035642,0.69520178120508
24299.9999999269,18.0881947059344,1.00000000315624,0.679567902806968
24399.9999999254,18.1703412863893,1.00000000322514,0.687465792499001
24499.999999924,18.253966496055,1.00000000351452,0.676111362778853
24599.9999999225,18.3454808606439,1.00000000355009,0.688137361373682
24699.9999999211,18.4362721645869,1.0000000038366,0.670746196087294
24799.9999999196,18.5246125220791,1.00000000319885,0.667609388409253
24899.9999999181,18.6140706465924,1.00000000323478,0.672586916758881
24999.9999999167,18.708603186459,1.00000000330281,0.667895873565405
25099.9999999152,18.8171371207784,1.00000000321481,0.676361072266469
25199.9999999138,18.9191482711578,1.00000000388036,0.682035394761549
25299.9999999123,19.0115560613301,1.00000000352808,0.685785282433774
25399.9999999109,19.1033097923363,1.00000000352757,0.689256982040969
25499.9999999094,19.1939054816978,1.00000000355275,0.694319210018594
25599.999999908,19.2828794521359,1.00000000352913,0.667823203423675
25699.9999999065,19.369827251857,1.00000000407016,0.68780147258115
25799.9999999051,19.4546808806498,1.00000000339122,0.687575843981569
25899.9999999036,19.5422934483732,1.00000000341314,0.681355088334693
25999.9999999021,19.6406810006682,1.00000000405396,0.684284509394926
26099.9999999007,19.740505121574,1.00000000377982,0.687192160731106
26199.9999998992,19.8334596787509,1.00000000413173,0.703897209385712
26299.9999998978,19.925623315942,1.00000000389165,0.697558503877217
26399.9999998963,20.0160737641245,1.00000000374233,0.703187536357913
26499.9999998949,20.100917432217,1.00000000424214,0.694948267399266
26599.9999998934,20.1875622044179,1.0000000035328,0.696980148000289
26699.999999892,20.2790659023972,1.00000000340569,0.69595940727575
26799.9999998905,20.3784175467735,1.00000000353301,0.687248562596713
26899.999999889,20.4936561272482,1.00000000361039,0.675660840039786
26999.9999998876,20.6292565033296,1.00000000379607,0.677143203448235
27099.9999998861,20.7724506673832,1.00000000417752,0.695212018496207
27199.9999998847,20.9247551918871,1.0000000040213,0.699118764435345
27299.9999998832,21.0830230111693,1.00000000385318,0.688051041329262
27399.9999998818,21.2445003566241,1.00000000400107,0.691337308566507
27499.9999998803,21.402211109549,1.0000000037921,0.686277708698129
27599.9999998789,21.5509013486372,1.00000000351379,0.690874837435278
27699.9999998774,21.6961616426992,1.00000000408025,0.691486149432826
27799.9999998759,21.8421186139358,1.00000000393038,0.688770800215282
27899.9999998745,21.9954538103523,1.0000000035955,0.680978189318261
27999.999999873,22.1551957289679,1.00000000393255,0.69635844789522
28099.9999998716,22.316072428434,1.00000000394587,0.700018868826774
28199.9999998701,22.4835625216476,1.00000000407748,0.687858523307635
28299.9999998687,22.6509158539205,1.00000000410167,0.697552362353514
28399.9999998672,22.8172197624264,1.00000000390947,0.698190990609193
28499.9999998658,22.9864026374086,1.00000000405521,0.704305928736976
28599.9999998643,23.1531063001104,1.00000000383089,0.701280399286075
28699.9999998629,23.3188133994811,1.00000000375066,0.69216882906079
28799.9999998614,23.4822728377112,1.00000000396623,0.696980973682796
28899.9999998599,23.6476215015381,1.00000000375353,0.68772255327137
28999.9999998585,23.8077776900862,1.00000000387567,0.687174676145591
