Time,AGPnorm,Energy,Entropy
0,0,1,-1.50160617366324e-17
99.9999999999986,4.28899509344847e-05,0.999999999998182,0.00168121098834226
199.999999999993,0.00394191830969275,0.999999999998912,0.00275176613574646
300,0.00956913453184381,0.999999999999717,0.00474963708078124
400.000000000022,0.0133050688218794,0.999999999997808,0.00810181886033134
500.000000000045,0.0162329788107832,0.999999999999795,0.0109122959251793
600.000000000068,0.0230159569193424,0.999999999998642,0.0149875423161985
700.000000000091,0.0283188825888529,0.999999999998387,0.0193046418547257
800.000000000113,0.0358846838294574,1.00000000000008,0.0236603567176434
900.000000000136,0.04506691392065,0.999999999997858,0.0290111965560846
1000.00000000016,0.0522797214411609,0.999999999999326,0.034211007923093
1100.0000000001,0.0618694217531255,0.999999999999196,0.0399216509712806
1200,0.0723399116093613,0.99999999999803,0.0462413320823725
1299.99999999991,0.0827854321393825,1.00000000000016,0.0525383090655214
1399.99999999982,0.0943017476178397,0.999999999998126,0.0595595274640669
1499.99999999973,0.1049465264585,0.99999999999876,0.0668227831817833
1599.99999999964,0.116754853179031,0.99999999999972,0.0743547766818237
1699.99999999955,0.13017613139699,0.99999999999787,0.0827384241629541
1799.99999999946,0.142502117880869,0.999999999999917,0.0912878285524642
1899.99999999937,0.15505631976206,0.999999999998547,0.100482987799304
1999.99999999928,0.167734736277272,0.999999999998316,0.110397103624813
2099.99999999919,0.18071973086424,1.00000000000011,0.120772399852256
2199.99999999909,0.194802451532867,0.999999999998069,0.13243577451618
2299.999999999,0.207683351765859,0.999999999999835,0.144945676536382
2399.99999999891,0.220347747400101,1.0000000000006,0.158725858546671
2499.99999999882,0.233217098006889,1.00000000000421,0.174544741504809
2599.99999999873,0.246856345596544,1.00000000001734,0.191857031992544
2699.99999999864,0.260254416265122,1.00000000003691,0.211214589580298
2799.99999999855,0.271139140692482,1.00000000007992,0.231459412566202
2899.99999999846,0.290516114402755,1.00000000013276,0.251910055296175
2999.99999999837,0.305132470186813,1.00000000019096,0.272785010574025
3099.99999999828,0.335100403579129,1.00000000027407,0.292850626787794
3199.99999999819,0.385989341371013,1.00000000034512,0.312655863086235
3299.99999999809,0.446389066074343,1.00000000043431,0.331950706567273
3399.999999998,0.56780253472699,1.00000000052268,0.350132864123275
3499.99999999791,0.731336559758295,1.00000000060555,0.368119714337914
3599.99999999782,0.96406272252296,1.0000000006838,0.38523524573137
3699.99999999773,1.31013281076696,1.0000000007911,0.401063138427221
3799.99999999764,1.74198366557045,1.00000000084484,0.416855930828126
3899.99999999755,2.32053334899848,1.00000000089263,0.431153587974763
3999.99999999746,3.05577977781468,1.00000000096002,0.444845787419863
4099.99999999738,3.93813184876482,1.00000000104499,0.457925032616315
4199.99999999775,5.0296537715053,1.00000000107904,0.469576828326264
4299.99999999811,6.30677192031527,1.00000000114246,0.48104264489184
4399.99999999848,7.78317199195812,1.00000000120116,0.491582566358603
4499.99999999884,9.50040809925269,1.00000000121991,0.501077564940767
4599.9999999992,11.4166150440497,1.00000000123015,0.510549545553992
4699.99999999957,13.5637218601989,1.00000000122976,0.51877624710381
4799.99999999993,15.9470721535386,1.00000000127447,0.526277931370435
4900.00000000029,18.5236952434454,1.0000000012924,0.533890288155941
5000.00000000066,21.3388255262465,1.00000000126392,0.540164353064594
5100.00000000102,24.3550360627351,1.000000001291,0.546387358726644
5200.00000000139,27.5519982870553,1.00000000129489,0.552060433735487
5300.00000000175,30.9627613084972,1.00000000133325,0.556634068046088
5400.00000000211,34.5203050099658,1.00000000131658,0.561935516520821
5500.00000000248,38.244591163803,1.00000000129421,0.566031858646198
5600.00000000284,42.1272067566412,1.00000000130787,0.569760527184553
5700.00000000321,46.1083645413903,1.0000000013221,0.573713722520968
5800.00000000357,50.2289559079802,1.00000000127787,0.576568178909705
5900.00000000393,54.4324909974066,1.00000000130274,0.579614795915388
6000.0000000043,58.7054406063885,1.00000000125829,0.582389473702258
6100.00000000466,63.0671059634477,1.00000000125984,0.584266706863297
6200.00000000502,67.4456104600908,1.00000000125518,0.586791541685217
6300.00000000539,71.8712498441907,1.00000000125457,0.588327536515864
6400.00000000575,76.3144401386585,1.00000000121894,0.589940022107089
6500.00000000612,80.7381212059192,1.00000000121287,0.591525382236208
6600.00000000648,85.1744953274857,1.00000000119172,0.592271079017824
6700.00000000684,89.5622295231829,1.00000000117978,0.59389120692478
6800.00000000721,93.9137670270004,1.0000000011974,0.594477283583194
6900.00000000757,98.2256917026925,1.00000000114839,0.594730568247886
7000.00000000793,102.452036550112,1.00000000114551,0.595918680576167
7100.0000000083,106.624916098773,1.00000000111322,0.595972633534197
7200.00000000866,110.702320630199,1.00000000112992,0.596344224773539
7300.00000000903,114.683643037887,1.00000000112649,0.596742962585001
7400.00000000939,118.579722671223,1.00000000110542,0.59638051324456
7500.00000000975,122.348180310418,1.00000000106634,0.597092953761024
7600.00000001012,126.016404343561,1.00000000102714,0.596493679475501
7700.00000001048,129.561067085084,1.00000000105566,0.596397133403538
7800.00000001084,132.971467006759,1.00000000101748,0.596809942566386
7900.00000001121,136.269249004825,1.00000000100881,0.595821711676005
8000.00000001157,139.417553971144,1.00000000099145,0.596175072594051
8100.00000001194,142.440725742179,1.00000000100557,0.595452339501721
8200.0000000123,145.324576801744,1.00000000092804,0.595279166341254
8300.00000001266,148.061585955257,1.00000000095484,0.595085877671229
8400.00000001303,150.669032470957,1.00000000094329,0.594421502388954
8500.00000001339,153.126191455526,1.00000000089841,0.594017059614887
8600.00000001376,155.443225403767,1.00000000093138,0.593765778502513
8700.00000001412,157.624185397864,1.00000000089015,0.592765360451021
8800.00000001448,159.651976534445,1.0000000008726,0.593112200879233
8900.00000001485,161.553004738126,1.00000000086026,0.592143861015956
9000.00000001521,163.305296553622,1.00000000086206,0.59139096543095
9100.00000001557,164.923137350526,1.00000000085254,0.591998514351568
9200.00000001594,166.408662341624,1.00000000082104,0.5900360677899
9300.0000000163,167.753356728863,1.00000000082037,0.591673022558259
9400.00000001667,168.975527732283,1.00000000080004,0.589302006750149
9500.00000001703,170.064370372719,1.00000000080527,0.589899841314954
9600.00000001739,171.028349702014,1.00000000076286,0.589932693157171
9700.00000001776,171.874267091137,1.00000000076058,0.588361737841328
9800.00000001812,172.595685476527,1.00000000075011,0.589553601771299
9900.00000001848,173.208837530452,1.00000000073185,0.588868940505021
10000.0000000188,173.708591322383,1.00000000072902,0.587033679281438
10100.0000000192,174.100092027005,1.00000000072278,0.588754433971591
10200.0000000196,174.396078807742,1.00000000072278,0.58799025748165
10300.0000000199,174.588704770716,1.00000000070037,0.584465183777549
10400.0000000203,174.690386907294,1.00000000072903,0.588071811431104
10500.0000000207,174.708078061899,1.00000000073215,0.588104290366724
10600.000000021,174.638883812043,1.00000000067928,0.580178962417037
10700.0000000214,174.489473059657,1.00000000073088,0.586544359799411
10800.0000000218,174.270606985604,1.00000000073204,0.588510708910117
10900.0000000221,173.985198327677,1.00000000066285,0.575774599752103
11000.0000000225,173.624234982829,1.00000000070018,0.582110233127744
11100.0000000229,173.210155737411,1.0000000007861,0.588463847098595
11200.0000000232,172.749644255534,1.00000000068576,0.575817153380054
11300.0000000236,172.222627666632,1.00000000065818,0.570404524710441
11400.0000000239,171.652508226994,1.00000000078215,0.587107863459023
11500.0000000243,171.051935971189,1.00000000075029,0.579953169227371
11600.0000000247,170.40622872674,1.00000000066822,0.564686293826438
11700.000000025,169.714695294805,1.00000000070067,0.572928613560003
11800.0000000254,168.99567333139,1.00000000079493,0.585119279578988
11900.0000000258,168.258382191535,1.000000000725,0.573748311565934
12000.0000000261,167.485122360301,1.00000000064073,0.558208907117382
12100.0000000265,166.676254341625,1.00000000073804,0.571629191711909
12200.0000000269,165.857755183173,1.00000000083605,0.582912145150355
12300.0000000272,165.027848732617,1.00000000073656,0.56843907878862
12400.0000000276,164.175556464531,1.00000000064722,0.555095770271438
12500.0000000279,163.294885615493,1.00000000069624,0.560555965669007
12600.0000000283,162.407130714539,1.00000000088436,0.584780006234128
12700.0000000287,161.522021453052,1.00000000075658,0.56466706917997
12800.000000029,160.622326958931,1.00000000070079,0.555158747595747
12900.0000000294,159.703533952734,1.00000000065071,0.547009525714986
13000.0000000298,158.776215802836,1.00000000086218,0.57794370321045
13100.0000000301,157.855216107249,1.00000000083114,0.569755670554774
13200.0000000305,156.935557788146,1.00000000076725,0.554385015894152
13300.0000000309,156.00402307993,1.00000000066912,0.545449884977526
13400.0000000312,155.061894752622,1.00000000073336,0.550993997018766
13500.0000000316,154.12359912769,1.00000000088811,0.577477342702458
13600.0000000319,153.192705099957,1.00000000081508,0.559078947143483
13700.0000000323,152.265854585843,1.00000000073637,0.546872609702369
13800.0000000327,151.3325827933,1.00000000069077,0.544991278343975
13900.000000033,150.395622188604,1.00000000076292,0.550329260968409
14000.0000000334,149.464579506063,1.00000000086212,0.567433957249407
14100.0000000338,148.54151280673,1.00000000084638,0.559619366385867
14200.0000000341,147.625093713521,1.00000000073446,0.539667086827984
14300.0000000345,146.70863178268,1.00000000071768,0.544755327063008
14400.0000000349,145.792672577658,1.00000000076137,0.550077319488307
14500.0000000352,144.88184249648,1.00000000080527,0.551948144063573
14600.0000000356,143.97813365956,1.00000000083511,0.559856250149542
14700.0000000359,143.083063522274,1.00000000077762,0.542126789122968
14800.0000000363,142.192924689095,1.00000000077423,0.536250691825924
14900.0000000367,141.307217412739,1.00000000073589,0.547859027036651
15000.000000037,140.426658679248,1.00000000077042,0.551492181513151
15100.0000000374,139.551717095518,1.00000000077332,0.545311552306505
15200.0000000378,138.684866177855,1.00000000074709,0.547500264550227
15300.0000000381,137.825714106168,1.00000000079101,0.541475982207606
15400.0000000385,136.972745637873,1.00000000077198,0.533520804022123
15500.0000000389,136.127195308429,1.00000000073073,0.544134958277646
15600.0000000392,135.287777265146,1.00000000078287,0.554426277283537
15700.0000000396,134.456214995704,1.00000000075184,0.544833076440208
15800.0000000399,133.631709632742,1.00000000075781,0.536391375423899
15900.0000000403,132.813980749308,1.00000000076799,0.540848848541428
16000.0000000407,132.004466404702,1.00000000079963,0.538891677425287
16100.000000041,131.202341458008,1.00000000072619,0.5356226217451
16200.0000000414,130.408521095056,1.00000000078744,0.548123877566706
16300.0000000418,129.622745209469,1.00000000076766,0.553032821040917
16400.0000000418,128.844423051484,1.00000000076173,0.543460202477285
16500.0000000404,128.074097400139,1.00000000072868,0.534029471226565
16600.0000000389,127.311162751771,1.00000000073967,0.532558433727319
16700.0000000375,126.556041113536,1.00000000075678,0.541144142696581
16800.000000036,125.809308912519,1.00000000077783,0.542940775828544
16900.0000000346,125.070659335922,1.00000000076176,0.542711398573811
17000.0000000331,124.34077148518,1.00000000075922,0.551865368036115
17100.0000000317,123.618960082457,1.00000000071551,0.549031006386569
17200.0000000302,122.905435919051,1.00000000070343,0.538701151661713
17300.0000000287,122.200255986451,1.0000000007238,0.531183095915382
17400.0000000273,121.503357566251,1.00000000072635,0.532223047519873
17500.0000000258,120.814942017482,1.00000000077565,0.542408835540302
17600.0000000244,120.134452365933,1.00000000079731,0.54971242490194
17700.0000000229,119.462002313191,1.00000000074502,0.543558753968635
17800.0000000215,118.797761536038,1.00000000077951,0.550498811320046
17900.00000002,118.141933985595,1.000000000749,0.550085988344656
18000.0000000186,117.49519471219,1.00000000069694,0.539679791002268
18100.0000000171,116.85761855428,1.00000000069112,0.531094893680614
18200.0000000156,116.228833610204,1.0000000007305,0.531609639786706
18300.0000000142,115.608619312917,1.00000000075773,0.535869827924846
18400.0000000127,114.996215695124,1.00000000077488,0.544501722404564
18500.0000000113,114.39097130785,1.0000000007978,0.55305535253344
18600.0000000098,113.793126861964,1.00000000075913,0.549964368102213
18700.0000000084,113.202341120515,1.00000000080587,0.549472884549995
18800.0000000069,112.619301728214,1.0000000007722,0.549209891154034
18900.0000000055,112.045844646959,1.00000000065785,0.538201292491809
19000.000000004,111.483212533401,1.00000000066993,0.527832889101938
19100.0000000026,110.93018280744,1.00000000071235,0.528768836144992
19200.0000000011,110.384430091182,1.00000000081134,0.536460345362802
19299.9999999996,109.846060098271,1.00000000074115,0.532854777557295
19399.9999999982,109.315007655792,1.00000000076054,0.541678727464771
19499.9999999967,108.7892711825,1.00000000082043,0.555519776729048
19599.9999999953,108.268838882251,1.00000000078579,0.556358023041943
19699.9999999938,107.754067774867,1.00000000080438,0.54923844062158
19799.9999999924,107.246378097071,1.00000000073554,0.545097899681059
19899.9999999909,106.748438848451,1.00000000069862,0.534654586384657
19999.9999999895,106.261833266466,1.00000000066692,0.533043077189603
20099.999999988,105.785361982474,1.00000000071052,0.527662551522084
20199.9999999865,105.316662432874,1.00000000076381,0.529871657135398
20299.9999999851,104.854030590384,1.0000000007999,0.530029551450016
20399.9999999836,104.397785667682,1.00000000070454,0.532104277406068
20499.9999999822,103.946872083822,1.00000000077257,0.537862836981698
20599.9999999807,103.498773388933,1.00000000084371,0.550399391438266
20699.9999999793,103.053020312173,1.00000000081996,0.560365428171927
20799.9999999778,102.61172933111,1.00000000079285,0.545196906828936
20899.9999999764,102.177057786588,1.00000000079063,0.540568515718248
20999.9999999749,101.750746175616,1.00000000072356,0.538037938627671
21099.9999999734,101.334861066826,1.00000000069723,0.532643941177474
21199.999999972,100.928979814428,1.00000000072219,0.533309356241805
21299.9999999705,100.531290658524,1.00000000072408,0.530067492734279
21399.9999999691,100.141240389836,1.00000000073673,0.5253704511735
21499.9999999676,99.7565321532503,1.00000000080983,0.527602825807468
21599.9999999662,99.3771479374241,1.00000000075311,0.528919687192716
21699.9999999647,99.0012848019074,1.00000000082639,0.536868894741267
21799.9999999633,98.6258865196922,1.00000000082328,0.540946853535011
21899.9999999618,98.2506096701306,1.00000000084989,0.551200076522929
21999.9999999603,97.8774016205423,1.00000000081016,0.555938325012556
22099.9999999589,97.50948683419,1.00000000075762,0.542162931215054
22199.9999999574,97.1487426408841,1.00000000076782,0.53626755914542
22299.999999956,96.795501120894,1.00000000072877,0.54038007752613
22399.9999999545,96.4512773072954,1.00000000070503,0.539957026220508
22499.9999999531,96.1157549525585,1.0000000007493,0.538765197845981
22599.9999999516,95.7881475326462,1.00000000071278,0.536780109762526
22699.9999999502,95.4680354580757,1.00000000072557,0.530637552291777
22799.9999999487,95.1538881971103,1.00000000075594,0.530508531049627
22899.9999999473,94.8448128295931,1.00000000074914,0.530949123548976
22999.9999999458,94.539296812749,1.00000000078183,0.533661522263546
23099.9999999443,94.235600619151,1.00000000078793,0.539643569630501
23199.9999999429,93.9317528495253,1.00000000082936,0.541626857261308
23299.9999999414,93.6265117956275,1.00000000086283,0.54679539100146
23399.99999994,93.321695354068,1.0000000008182,0.554842528619783
23499.9999999385,93.0203725485385,1.00000000075231,0.554037000883964
23599.9999999371,92.7248584135039,1.00000000073185,0.544653186335259
23699.9999999356,92.4368493269451,1.00000000071253,0.54166437303816
23799.9999999342,92.1559406176749,1.00000000075211,0.547863926376885
23899.9999999327,91.8824462741356,1.00000000074103,0.548344190893586
23999.9999999312,91.6171941801393,1.00000000071139,0.543173744025782
24099.9999999298,91.3593299977739,1.00000000071222,0.543406690354389
24199.9999999283,91.1076339631696,1.00000000077186,0.543262247725885
24299.9999999269,90.8607118209967,1.00000000073514,0.538134360615488
24399.9999999254,90.6193306536353,1.00000000074305,0.537287699622008
24499.999999924,90.382161533074,1.00000000075246,0.537185145947646
24599.9999999225,90.1485023389646,1.00000000074802,0.5393333735805
24699.9999999211,89.91680201575,1.00000000078474,0.546271763195405
24799.9999999196,89.6835083131416,1.00000000083694,0.546757325405203
24899.9999999181,89.4477381045314,1.00000000089297,0.548009176329164
24999.9999999167,89.2102376531798,1.00000000082284,0.556419505433105
25099.9999999152,88.9737519491741,1.00000000076111,0.560955647403106
25199.9999999138,88.7415852855623,1.00000000071296,0.555946500298231
25299.9999999123,88.5150514707388,1.00000000073284,0.55326931246029
25399.9999999109,88.2945135402534,1.00000000075862,0.551467956328502
25499.9999999094,88.0805029890962,1.00000000076095,0.551989281418899
25599.999999908,87.8727798088956,1.00000000071927,0.553000775356136
25699.9999999065,87.6725143612997,1.00000000072167,0.549488817748272
25799.9999999051,87.4787288704953,1.00000000073697,0.548349504161867
25899.9999999036,87.2898587491344,1.0000000007773,0.550696513522259
25999.9999999021,87.1040371310518,1.00000000079848,0.549541112903589
26099.9999999007,86.9214531260578,1.00000000074253,0.542019263331665
26199.9999998992,86.7444940275354,1.00000000071409,0.542040592020109
26299.9999998978,86.5717963359445,1.00000000074159,0.54331223682388
26399.9999998963,86.4017623773513,1.00000000076488,0.547991247090685
26499.9999998949,86.2328352457233,1.00000000079103,0.554283746190448
26599.9999998934,86.06233246583,1.00000000083136,0.552238026146901
26699.999999892,85.8891559336156,1.000000000814,0.551722669261276
26799.9999998905,85.7132010630306,1.00000000081033,0.555029548454058
26899.999999889,85.5358234182464,1.00000000079229,0.559562637001147
26999.9999998876,85.3588513461847,1.00000000080214,0.564651717768964
27099.9999998861,85.1837253481442,1.00000000077324,0.565637445734086
27199.9999998847,85.0127627582616,1.00000000075359,0.561760553760492
27299.9999998832,84.8460085646275,1.00000000075564,0.559127246903791
27399.9999998818,84.6842944171027,1.00000000074667,0.556029439598491
27499.9999998803,84.5283776770764,1.00000000076915,0.556219724270787
27599.9999998789,84.3776322033287,1.00000000072812,0.556124147962281
27699.9999998774,84.232560226137,1.00000000075152,0.555199977483972
27799.9999998759,84.0924302702776,1.00000000075141,0.554224112087686
27899.9999998745,83.9559230783219,1.00000000076972,0.554561417029963
27999.999999873,83.8228248654265,1.00000000078043,0.552310987175887
28099.9999998716,83.691861743556,1.00000000077319,0.549149635409294
28199.9999998701,83.564870253599,1.00000000075737,0.545937858352363
28299.9999998687,83.4416176237773,1.00000000073508,0.551343811885641
28399.9999998672,83.3201400222375,1.00000000077726,0.554602673861374
28499.9999998658,83.1986358025369,1.00000000080643,0.559997235323523
28599.9999998643,83.0760569513482,1.00000000079519,0.565354927923112
28699.9999998629,82.95307518863,1.00000000079438,0.564338296991195
28799.9999998614,82.8290378811995,1.00000000078646,0.559730035943675
28899.9999998599,82.7027064136257,1.00000000081713,0.561963469968115
