Time,AGPnorm,Energy,Entropy
0,0,1,-7.49601801892702e-17
99.9999999999986,0.00184717120409423,1.00000000000086,0.00570293071911279
199.999999999993,0.0126126478683297,1.00000000000202,0.0165992135297402
300,0.0249631269658102,1.00000000000182,0.0307241085758994
400.000000000022,0.0380398798312092,1.00000000000071,0.0484135000454679
500.000000000045,0.0529040492065592,0.999999999999776,0.0699209925200324
600.000000000068,0.0724290688261404,1.00000000000139,0.0954677016356025
700.000000000091,0.0900263909804662,1.0000000000022,0.125601817080067
800.000000000113,0.108309444971089,1.00000000000455,0.162202211600918
900.000000000136,0.125823404042417,1.00000000003936,0.209891987598025
1000.00000000016,0.140248032919859,1.00000000021127,0.26871005756911
1100.0000000001,0.174700072588975,1.00000000058371,0.33007905229027
1200,0.282431991010639,1.00000000108187,0.384251336213952
1299.99999999991,0.515531431635671,1.00000000151577,0.430854175346956
1399.99999999982,0.976022963848967,1.0000000019765,0.469252245475229
1499.99999999973,1.78499711453942,1.00000000225801,0.500682758156943
1599.99999999964,3.00385761778661,1.00000000237089,0.526373868244724
1699.99999999955,4.64435689535035,1.00000000247504,0.546815105617553
1799.99999999946,6.70263755481334,1.00000000256591,0.56205594760669
1899.99999999937,9.1182205631408,1.00000000263884,0.57346336246116
1999.99999999928,11.8005957773781,1.00000000257382,0.582317529585269
2099.99999999919,14.6849824870502,1.000000002565,0.588769776563209
2199.99999999909,17.7080363645471,1.00000000249204,0.592045824283395
2299.999999999,20.7677722574574,1.00000000249741,0.593192242249101
2399.99999999891,23.7597799374879,1.0000000022214,0.594374089262766
2499.99999999882,26.6284606993987,1.00000000219981,0.595234110916654
2599.99999999873,29.3450188018099,1.00000000221451,0.592981565885924
2699.99999999864,31.8685799402878,1.00000000203029,0.590751854746835
2799.99999999855,34.1495080073002,1.00000000200696,0.588996865800714
2899.99999999846,36.1577305548079,1.00000000190715,0.588404276020052
2999.99999999837,37.8942567566405,1.0000000018131,0.586741392670932
3099.99999999828,39.367790759533,1.00000000175139,0.582696796423583
3199.99999999819,40.5786659954858,1.00000000162517,0.579544438798441
3299.99999999809,41.5244736064931,1.00000000164335,0.57958716681265
3399.999999998,42.217574504048,1.00000000149369,0.5753083627585
3499.99999999791,42.6870302712705,1.0000000015141,0.577230256084314
3599.99999999782,42.9441514228607,1.00000000148685,0.578428640080893
3699.99999999773,43.0279958172142,1.00000000131052,0.565619374173753
3799.99999999764,42.943411367414,1.00000000152038,0.580200456850554
3899.99999999755,42.7307211646638,1.0000000013495,0.560536375603749
3999.99999999746,42.3971876077093,1.00000000160731,0.575549495846979
4099.99999999738,41.9967640711844,1.00000000132535,0.554877095679329
4199.99999999775,41.5034895959179,1.0000000015266,0.561978019800339
4299.99999999811,40.9852845150048,1.00000000147621,0.556851763185214
4399.99999999848,40.4029454009303,1.00000000125078,0.528060882464956
4499.99999999884,39.8060012692125,1.00000000184909,0.578220211145009
4599.9999999992,39.204706690659,1.00000000121585,0.526516153752085
4699.99999999957,38.5625144879919,1.00000000146385,0.536174641847593
4799.99999999993,37.9399439369965,1.00000000179795,0.557996904322276
4900.00000000029,37.3171656556115,1.00000000114267,0.507155572808395
5000.00000000066,36.6745054158408,1.00000000155339,0.526367641567489
5100.00000000102,36.056376850192,1.00000000189101,0.557745149792994
5200.00000000139,35.4523409777035,1.00000000126084,0.498174172345514
5300.00000000175,34.8417993430178,1.00000000138121,0.511533748517674
5400.00000000211,34.241406874757,1.00000000178108,0.545136517748114
5500.00000000248,33.6650479780485,1.00000000160007,0.514558019251927
5600.00000000284,33.099375304155,1.00000000132704,0.503183216815259
5700.00000000321,32.5411367317556,1.00000000145057,0.522419561374001
5800.00000000357,31.9960710323848,1.0000000015526,0.530866239537157
5900.00000000393,31.4692940481244,1.00000000162465,0.521812389336877
6000.0000000043,30.9581179553792,1.00000000129609,0.495317587836945
6100.00000000466,30.4623738527233,1.00000000141695,0.530558139924767
6200.00000000502,29.9801397430297,1.0000000014505,0.527928530094737
6300.00000000539,29.5143749954536,1.0000000015103,0.521626800042779
6400.00000000575,29.0630591448874,1.00000000164917,0.519080120213295
6500.00000000612,28.6284125657221,1.0000000013656,0.501094682429144
6600.00000000648,28.2128085387825,1.000000001534,0.529331351580342
6700.00000000684,27.808433977243,1.00000000161766,0.545415729052537
6800.00000000721,27.421311385664,1.00000000140335,0.505516303561995
6900.00000000757,27.0510953184077,1.00000000159913,0.521299899903718
7000.00000000793,26.6900386227881,1.00000000174013,0.509715948427079
7100.0000000083,26.3450250224036,1.00000000128046,0.503925186559371
7200.00000000866,26.0181441948987,1.00000000146219,0.524772251126974
7300.00000000903,25.6972100613505,1.00000000173636,0.539218849110446
7400.00000000939,25.3886242831073,1.00000000133793,0.522516222007953
7500.00000000975,25.0982749977274,1.00000000143088,0.5074616071456
7600.00000001012,24.8185082241214,1.00000000167503,0.528990727376238
7700.00000001048,24.5464570428552,1.00000000151984,0.510660566661703
7800.00000001084,24.2890248808338,1.00000000149246,0.510569240109587
7900.00000001121,24.043641456555,1.00000000152657,0.532066360462224
8000.00000001157,23.8066399167938,1.00000000160624,0.536515083890617
8100.00000001194,23.5732545205454,1.00000000161351,0.529284909093061
8200.0000000123,23.3508442617816,1.00000000143394,0.533932551696272
8300.00000001266,23.1391223456236,1.0000000015517,0.526614760825125
8400.00000001303,22.9367421315936,1.00000000157189,0.524131207131972
8500.00000001339,22.7442556097416,1.00000000162677,0.529396548180789
8600.00000001376,22.5616682575941,1.0000000014498,0.524824495732013
8700.00000001412,22.3928740987748,1.00000000141505,0.524638187301761
8800.00000001448,22.2286333502779,1.00000000171089,0.55011991466313
8900.00000001485,22.0687243767652,1.00000000143991,0.540450018744339
9000.00000001521,21.9204662456642,1.00000000149998,0.531029413738801
9100.00000001557,21.7765268344728,1.00000000165398,0.53857146634296
9200.00000001594,21.6296900224049,1.00000000168507,0.563375902807685
9300.0000000163,21.4855369918832,1.00000000147697,0.542806409671965
9400.00000001667,21.3519929289577,1.00000000151604,0.531404883174261
9500.00000001703,21.227461832721,1.00000000160828,0.544888727488476
9600.00000001739,21.1115952076826,1.00000000160627,0.5394485980466
9700.00000001776,21.0037911423207,1.00000000146992,0.539103396096218
9800.00000001812,20.9057079412977,1.00000000157274,0.543167267095149
9900.00000001848,20.8101506669757,1.00000000171967,0.551444076763756
10000.0000000188,20.7110448937777,1.00000000161447,0.555133760564023
10100.0000000192,20.6217269997647,1.00000000136358,0.533865419374936
10200.0000000196,20.5478712957548,1.00000000149032,0.54042947229357
10300.0000000199,20.4713690961865,1.00000000164827,0.557822664857115
10400.0000000203,20.3863273028318,1.00000000169056,0.557634604719451
10500.0000000207,20.2963242007796,1.00000000164298,0.567506973098732
10600.000000021,20.206782760938,1.00000000156993,0.568047091019435
10700.0000000214,20.1229147402833,1.00000000157769,0.561684291276476
10800.0000000218,20.0448178615859,1.00000000152391,0.56526761542835
10900.0000000221,19.9744403008117,1.00000000160586,0.560593747612845
11000.0000000225,19.9132829582303,1.00000000154787,0.544342787495901
11100.0000000229,19.861552860939,1.00000000154714,0.547798754426167
11200.0000000232,19.8155404120703,1.00000000169475,0.564494594013942
11300.0000000236,19.7698089708675,1.00000000169137,0.572342601015349
11400.0000000239,19.7256293007959,1.00000000155978,0.558922888378938
11500.0000000243,19.6877375484725,1.00000000162557,0.562972322650863
11600.0000000247,19.6527966055517,1.00000000160794,0.56834096539432
11700.000000025,19.621161965842,1.00000000152864,0.561274578131412
11800.0000000254,19.5927952912666,1.00000000157935,0.570457130022414
11900.0000000258,19.5592985776184,1.0000000016422,0.581148846081959
12000.0000000261,19.5226114622511,1.00000000160494,0.582488588383222
12100.0000000265,19.4849303495792,1.00000000166167,0.583279461425473
12200.0000000269,19.4440845577764,1.00000000165048,0.588824834429254
12300.0000000272,19.3961416882757,1.00000000173522,0.606103743100021
12400.0000000276,19.3424654631075,1.00000000167371,0.611836375371242
12500.0000000279,19.2887586427188,1.00000000156917,0.601924186893216
12600.0000000283,19.240672008862,1.00000000154221,0.598456174420456
12700.0000000287,19.2006213821388,1.00000000159657,0.591669400856556
12800.000000029,19.170983732127,1.00000000156005,0.575734767534459
12900.0000000294,19.1517703417961,1.00000000156468,0.567901712863699
13000.0000000298,19.1386031732809,1.0000000016207,0.578198913547185
13100.0000000301,19.1284799500721,1.00000000162251,0.586448973724698
13200.0000000305,19.1186554642771,1.00000000155632,0.589797003838803
13300.0000000309,19.1085352763503,1.00000000174867,0.593517813138687
13400.0000000312,19.0993959092393,1.00000000163511,0.588257582032426
13500.0000000316,19.0983733087875,1.00000000148219,0.580711903427562
13600.0000000319,19.1011635693332,1.00000000177524,0.589688822375578
13700.0000000323,19.098200190056,1.00000000179644,0.595175156006495
13800.0000000327,19.0963447256491,1.00000000154785,0.598460852729811
13900.000000033,19.0989368934055,1.00000000159491,0.604756898533438
14000.0000000334,19.099172500874,1.00000000172158,0.616043365672672
14100.0000000338,19.0905671794631,1.00000000180541,0.624250424336953
14200.0000000341,19.0749665640961,1.00000000180984,0.615973442129717
14300.0000000345,19.0593512739551,1.00000000154178,0.610869915618322
14400.0000000349,19.046420122336,1.00000000159346,0.608028302604575
14500.0000000352,19.0306524038893,1.00000000172629,0.617835616339149
14600.0000000356,19.0109017904225,1.00000000167918,0.621031500853212
14700.0000000359,18.9831341545686,1.00000000179642,0.620952000201008
14800.0000000363,18.9476808030762,1.00000000180873,0.618891731447682
14900.0000000367,18.9056783503803,1.00000000168785,0.623099851785152
15000.000000037,18.8639163770607,1.00000000162953,0.61996950122198
15100.0000000374,18.8287497902704,1.00000000166443,0.609856107425816
15200.0000000378,18.801808266568,1.00000000159032,0.600115518770606
15300.0000000381,18.7838891821992,1.00000000164327,0.595579566882613
15400.0000000385,18.7754387294823,1.00000000152422,0.589117834206963
15500.0000000389,18.7772139881539,1.00000000164299,0.586038149228049
15600.0000000392,18.7840220234493,1.00000000176866,0.59405635983189
15700.0000000396,18.7922626480626,1.00000000181585,0.600728347775105
15800.0000000399,18.8027964649755,1.00000000173859,0.597420192373941
15900.0000000403,18.8115791114102,1.00000000189257,0.605025996766618
16000.0000000407,18.821698644706,1.00000000167885,0.595986724106686
16100.000000041,18.8386542948081,1.00000000156931,0.590266495491833
16200.0000000414,18.8604093307486,1.00000000173246,0.592749777478436
16300.0000000418,18.8796404697722,1.00000000171687,0.6052943263562
16400.0000000418,18.8969837582355,1.00000000178395,0.614502523758978
16500.0000000404,18.9153029803581,1.00000000172893,0.615854723289908
16600.0000000389,18.930968329978,1.00000000178255,0.612141484792347
16700.0000000375,18.9414782371206,1.00000000180528,0.607248834296436
16800.000000036,18.951451367682,1.00000000173013,0.599328817720092
16900.0000000346,18.9591960062836,1.00000000177966,0.612354763981681
17000.0000000331,18.9680900090268,1.00000000171274,0.629950508208291
17100.0000000317,18.9775132672537,1.00000000176108,0.628410383912129
17200.0000000302,18.9819182911123,1.00000000171461,0.633113152539631
17300.0000000287,18.9833291285129,1.00000000181409,0.636409937109215
17400.0000000273,18.9815902708074,1.00000000174754,0.633988508197148
17500.0000000258,18.9776776780555,1.00000000181677,0.634763677460374
17600.0000000244,18.9717729060247,1.00000000170762,0.641783991836317
17700.0000000229,18.9656535631549,1.00000000179178,0.641192256939642
17800.0000000215,18.9563239472379,1.00000000179848,0.647622569374804
17900.00000002,18.9435404894368,1.00000000177515,0.649996553256938
18000.0000000186,18.9286062748748,1.0000000017361,0.645992686156613
18100.0000000171,18.910915522541,1.00000000176757,0.647921920596837
18200.0000000156,18.8882016356803,1.00000000189948,0.643922670531394
18300.0000000142,18.8627398542154,1.00000000176926,0.636704513150013
18400.0000000127,18.833090495143,1.00000000187266,0.64020423631178
18500.0000000113,18.7980224460756,1.000000001784,0.631388270180029
18600.0000000098,18.7595475049737,1.00000000178879,0.637166661973617
18700.0000000084,18.7213112969118,1.00000000176733,0.629869030602178
18800.0000000069,18.6870426516194,1.00000000174022,0.625387780054693
18900.0000000055,18.6588714464629,1.00000000181146,0.632234065955045
19000.000000004,18.6361383660818,1.00000000177155,0.632183849731338
19100.0000000026,18.6211303751626,1.0000000017639,0.629349411508606
19200.0000000011,18.6131095974396,1.0000000016892,0.618663152052461
19299.9999999996,18.6153032322706,1.00000000166354,0.612137320212277
19399.9999999982,18.626371955291,1.00000000170959,0.603525302061038
19499.9999999967,18.6411270443665,1.00000000176089,0.604998183351331
19599.9999999953,18.6584407287217,1.00000000193752,0.610786914523912
19699.9999999938,18.6759639204617,1.000000001847,0.610287893672323
19799.9999999924,18.6958238599994,1.00000000183931,0.610575291227684
19899.9999999909,18.7173890234907,1.00000000193844,0.609888067097073
19999.9999999895,18.740560642063,1.00000000175644,0.606461354669953
20099.999999988,18.7670616514991,1.0000000017701,0.604600364102592
20199.9999999865,18.7967043318752,1.00000000180676,0.594631932060384
20299.9999999851,18.8270515602618,1.00000000176113,0.606376817847109
20399.9999999836,18.8617265903244,1.00000000182529,0.608072511252659
20499.9999999822,18.8959884195205,1.00000000198216,0.613599220227644
20599.9999999807,18.9259824915425,1.00000000195406,0.617932088816206
20699.9999999793,18.9527999029733,1.00000000190802,0.618488555518113
20799.9999999778,18.9811311338863,1.00000000176344,0.614475224945287
20899.9999999764,19.0097077583389,1.00000000194468,0.617231607789814
20999.9999999749,19.0313730369249,1.00000000208177,0.619909865617093
21099.9999999734,19.0458025012272,1.0000000020391,0.62491117549998
21199.999999972,19.0562528995423,1.00000000190275,0.626742782465329
21299.9999999705,19.0681259278923,1.00000000178836,0.634864682644758
21399.9999999691,19.0843459814752,1.00000000180176,0.640532568111737
21499.9999999676,19.1016292937615,1.00000000194554,0.637995100405242
21599.9999999662,19.1153980890805,1.0000000020177,0.640671369331571
21699.9999999647,19.1273275274122,1.00000000195502,0.633735501625378
21799.9999999633,19.1371242741891,1.00000000195912,0.64229212390552
21899.9999999618,19.1460983718703,1.00000000196361,0.647229568530985
21999.9999999603,19.1550614786923,1.00000000193398,0.64526002092989
22099.9999999589,19.1627717816117,1.00000000192229,0.644356580728899
22199.9999999574,19.1705051051508,1.00000000201909,0.635132578583896
22299.999999956,19.1756347553271,1.00000000204001,0.636789529539706
22399.9999999545,19.178333337074,1.00000000195344,0.63909773887373
22499.9999999531,19.1792153113682,1.00000000197388,0.635160988614997
22599.9999999516,19.1788925504814,1.00000000196578,0.646531479418077
22699.9999999502,19.1777604015351,1.00000000198266,0.646184672689395
22799.9999999487,19.1796866372556,1.00000000189006,0.654695527153061
22899.9999999473,19.1852537390754,1.00000000175719,0.649218059137552
22999.9999999458,19.1912960363555,1.00000000207872,0.65238108380365
23099.9999999443,19.1933193785392,1.00000000197234,0.657010207153128
23199.9999999429,19.1921008630417,1.00000000195731,0.654972806983672
23299.9999999414,19.1863466199561,1.00000000201071,0.645142372003344
23399.99999994,19.1764127626762,1.00000000201056,0.651606880974471
23499.9999999385,19.1661132434095,1.00000000201276,0.662185659377396
23599.9999999371,19.1559899467455,1.00000000197426,0.657261861295567
23699.9999999356,19.1450071937537,1.00000000202437,0.653111810097884
23799.9999999342,19.1302035251101,1.0000000020258,0.661376687208
23899.9999999327,19.1132418416278,1.00000000196799,0.656986677007106
23999.9999999312,19.0952239856279,1.00000000205036,0.65702614465329
24099.9999999298,19.0767677714636,1.00000000192596,0.657361308446866
24199.9999999283,19.0572472268584,1.00000000193025,0.660521421689415
24299.9999999269,19.0350177582248,1.00000000200741,0.670167626463827
24399.9999999254,19.0121283299137,1.00000000199397,0.671721512590262
24499.999999924,18.9878459985473,1.00000000206666,0.668566596681472
24599.9999999225,18.9627011758382,1.00000000195027,0.666102934612564
24699.9999999211,18.9354911530017,1.00000000212653,0.679525241069356
24799.9999999196,18.9049885022111,1.0000000020727,0.674918564125659
24899.9999999181,18.8723217900111,1.00000000210761,0.667244614809675
24999.9999999167,18.8397230023084,1.00000000198525,0.665192233716482
25099.9999999152,18.8094315151315,1.00000000203339,0.653105646260475
25199.9999999138,18.7829911260323,1.00000000195865,0.645565603406273
25299.9999999123,18.7615719893934,1.00000000198376,0.643432188325735
25399.9999999109,18.7460986562776,1.00000000186056,0.644534596869502
25499.9999999094,18.7364473599408,1.00000000199968,0.651217638915645
25599.999999908,18.7329805536139,1.00000000199958,0.64757107023227
25699.9999999065,18.7374227420137,1.00000000193023,0.640095158017798
25799.9999999051,18.7504876771205,1.00000000191884,0.63330681548076
25899.9999999036,18.7719709591918,1.00000000209617,0.636811407685456
25999.9999999021,18.7967986079061,1.00000000198345,0.63611134784353
26099.9999999007,18.8243146547752,1.0000000021593,0.637744952739061
26199.9999998992,18.8539334927809,1.00000000205415,0.63446654512762
26299.9999998978,18.8854745472252,1.00000000209837,0.637581448648779
26399.9999998963,18.9189861047245,1.00000000206231,0.639061021534036
26499.9999998949,18.9550168163834,1.00000000206991,0.63168690167832
26599.9999998934,18.9935727929642,1.00000000201868,0.630625552742098
26699.999999892,19.0363873545269,1.00000000205331,0.631483112454381
26799.9999998905,19.0822285502886,1.00000000208744,0.625656005735379
26899.999999889,19.1295953143556,1.00000000210258,0.626578066421669
26999.9999998876,19.1800210247222,1.00000000224611,0.626545997374462
27099.9999998861,19.2321425256914,1.00000000203505,0.625801391709847
27199.9999998847,19.2863827941599,1.00000000206555,0.631538607576298
27299.9999998832,19.3413317445234,1.00000000214309,0.63549491897015
27399.9999998818,19.3931576092788,1.00000000222091,0.645867437351906
27499.9999998803,19.4438255616892,1.00000000213563,0.645118676342442
27599.9999998789,19.4937869393377,1.00000000207343,0.648480296767592
27699.9999998774,19.5414467633697,1.00000000218607,0.637378423341081
27799.9999998759,19.5907317940743,1.00000000209504,0.632965960163008
27899.9999998745,19.6371334821405,1.00000000227738,0.646973394285364
27999.999999873,19.6774939650689,1.00000000229407,0.646818016066344
28099.9999998716,19.7144822413667,1.00000000217517,0.647194309313431
28199.9999998701,19.7469350067193,1.0000000021407,0.643597452604145
28299.9999998687,19.7802523716297,1.00000000208069,0.644135194774849
28399.9999998672,19.8155275603513,1.00000000205375,0.648579816011177
28499.9999998658,19.8494965160264,1.00000000215168,0.658859274632676
28599.9999998643,19.8831112821982,1.00000000222915,0.654911724033739
28699.9999998629,19.914829433654,1.00000000220788,0.656027737073538
28799.9999998614,19.9440456748813,1.00000000217663,0.662839606074414
28899.9999998599,19.9731785357611,1.00000000212342,0.66004570263916
28999.9999998585,20.0007979163317,1.00000000222753,0.662663423266687
