Time,AGPnorm,Energy,Entropy
0,0,1,-1.43953978515182e-17
99.9999999999986,6.20686793284945e-06,1.00000000000065,0.000326069125567521
199.999999999993,0.000590807289012228,0.999999999998233,0.000530517805442483
300,0.00142676270181374,1.00000000000131,0.000944076772485678
400.000000000022,0.00204065962470287,0.999999999999021,0.00161408392607952
500.000000000045,0.00253755396456992,0.999999999999431,0.00219759320662286
600.000000000068,0.00350373882469545,1.00000000000108,0.00307907236603142
700.000000000091,0.00427938290861362,0.999999999998141,0.00398473469916762
800.000000000113,0.00558661718752668,1.00000000000104,0.00493650559375943
900.000000000136,0.00714084984076922,0.999999999999556,0.00606926545285087
1000.00000000016,0.00832147587690723,0.999999999998877,0.00719787864355236
1100.0000000001,0.00987139093345442,1.00000000000135,0.00846709254230126
1200,0.0116638145729069,0.999999999998268,0.00980349096083272
1299.99999999991,0.0136233816662252,1.00000000000061,0.0111643629907627
1399.99999999982,0.0156591812579882,1.0000000000001,0.0126449005581855
1499.99999999973,0.0175047353417537,0.999999999998416,0.0141784171684701
1599.99999999964,0.0198345952337102,1.00000000000147,0.0157704978741101
1699.99999999955,0.0225682438026807,0.999999999998599,0.0174344547267231
1799.99999999946,0.0251203555984371,1.00000000000005,0.0191486508528618
1899.99999999937,0.0275347771617277,1.00000000000059,0.0209236358360217
1999.99999999928,0.0300449158097657,0.999999999998142,0.0227838229749266
2099.99999999919,0.0331289219666834,1.00000000000142,0.0246755030759529
2199.99999999909,0.0365864865825741,0.999999999999062,0.0266225343216679
2299.999999999,0.0396517030021254,0.999999999999405,0.0286537984970495
2399.99999999891,0.0425445687071479,1.00000000000099,0.0306972529970593
2499.99999999882,0.0458068237104806,0.99999999999812,0.0328389702095399
2599.99999999873,0.0494959383598941,1.00000000000118,0.035029094142564
2699.99999999864,0.0533240271496112,0.999999999999569,0.0372442551888694
2799.99999999855,0.0568019678943085,0.999999999998773,0.0395673882308898
2899.99999999846,0.0603329119604537,1.00000000000127,0.041878093343349
2999.99999999837,0.0644202686388834,0.999999999998336,0.0442840911932085
3099.99999999828,0.0685612453594897,1.00000000000076,0.0467787391662084
3199.99999999819,0.0724819368729931,1.00000000000006,0.0492594416990208
3299.99999999809,0.0763075920357373,0.999999999998293,0.0518636472413395
3399.999999998,0.0805124727855122,1.00000000000144,0.0544646699984276
3499.99999999791,0.0853187520015773,0.999999999998713,0.0571458215371853
3599.99999999782,0.0897771651528392,1.00000000000013,0.059951579125193
3699.99999999773,0.0937612303920406,1.00000000000048,0.0627073005589853
3799.99999999764,0.0979777197967482,0.999999999998092,0.0656008690178293
3899.99999999755,0.102736320965791,1.00000000000147,0.0685328999069627
3999.99999999746,0.107923334367442,0.99999999999915,0.0715208096975712
4099.99999999738,0.11255664851085,0.999999999999384,0.0746523071593588
4199.99999999775,0.116773526398266,1.00000000000082,0.0777189386926094
4299.99999999811,0.121503038864803,0.999999999998194,0.0809363641290933
4399.99999999848,0.126633949416534,1.00000000000131,0.0842554656449581
4499.99999999884,0.131792564858677,0.999999999999599,0.0875908574474552
4599.9999999992,0.136478508267606,0.999999999998676,0.0910838822306649
4699.99999999957,0.141091763404942,1.00000000000108,0.0945407361127754
4799.99999999993,0.146384121717969,0.999999999998492,0.0981516140728871
4900.00000000029,0.151695594274486,1.00000000000091,0.1019275459566
5000.00000000066,0.156592482571411,1.00000000000003,0.105681158978777
5100.00000000102,0.161305995957289,0.999999999998225,0.109614302039217
5200.00000000139,0.166338416853634,1.0000000000013,0.113583225120059
5300.00000000175,0.172019778865268,0.999999999998864,0.117716275793421
5400.00000000211,0.177314790585872,1.00000000000025,0.122062536911583
5500.00000000248,0.181988838728321,1.00000000000044,0.126372193261904
5600.00000000284,0.186830904626659,0.999999999998183,0.130903192544578
5700.00000000321,0.192216093910323,1.00000000000149,0.135586491494631
5800.00000000357,0.197928739865471,0.999999999999341,0.14044646740819
5900.00000000393,0.203018108154191,0.999999999999588,0.1455767154866
6000.0000000043,0.207705407035784,1.00000000000094,0.150714279560863
6100.00000000466,0.212797379537742,0.999999999998804,0.156148715553742
6200.00000000502,0.2184550794932,1.00000000000198,0.161865427772251
6300.00000000539,0.223935050735886,1.00000000000059,0.167757400434941
6400.00000000575,0.228765406419569,1.00000000000013,0.17398305190432
6500.00000000612,0.233932340980576,1.00000000000287,0.180303415235016
6600.00000000648,0.239422157865448,1.00000000000159,0.186961632151076
6700.00000000684,0.24558600539693,1.00000000000485,0.193950110017704
6800.00000000721,0.251526134117853,1.00000000000529,0.201005176458885
6900.00000000757,0.256969268173528,1.00000000000529,0.208347965277229
7000.00000000793,0.264603424890688,1.00000000001022,0.215776370652628
7100.0000000083,0.272671398112718,1.00000000001085,0.223416544547731
7200.00000000866,0.282539980925504,1.00000000001468,0.231253726189613
7300.00000000903,0.294721315863212,1.00000000001831,0.238920039430918
7400.00000000939,0.30820420594999,1.00000000001895,0.246712364082709
7500.00000000975,0.328602037052429,1.00000000002603,0.254512406969009
7600.00000001012,0.35340455737792,1.00000000002821,0.262277154745509
7700.00000001048,0.384985967054227,1.00000000003422,0.270091122866903
7800.00000001084,0.427852403061469,1.00000000003784,0.277608538236281
7900.00000001121,0.480372781144243,1.00000000004285,0.285078438583302
8000.00000001157,0.550583906482582,1.00000000004807,0.292549921587303
8100.00000001194,0.639049679654875,1.00000000005218,0.299796521242163
8200.0000000123,0.748275077724637,1.00000000005492,0.307064938656115
8300.00000001266,0.887153651921738,1.00000000006445,0.31394106320353
8400.00000001303,1.05616295465225,1.00000000006805,0.320848596894689
8500.00000001339,1.26305771749163,1.00000000007832,0.327676655194823
8600.00000001376,1.51473317499321,1.00000000008082,0.334200901389731
8700.00000001412,1.81398728834936,1.00000000008447,0.340721786424498
8800.00000001448,2.17044847250061,1.00000000009035,0.346997452131925
8900.00000001485,2.59116060293433,1.0000000000939,0.353222542514837
9000.00000001521,3.08070719326316,1.0000000000979,0.359455349861338
9100.00000001557,3.65101950817705,1.00000000010667,0.365206833833355
9200.00000001594,4.30775315040831,1.00000000010977,0.371012507279068
9300.0000000163,5.0557558754445,1.00000000011817,0.376665401186792
9400.00000001667,5.91158172470744,1.00000000012433,0.382140998627372
9500.00000001703,6.87613392408943,1.00000000012577,0.387697124162365
9600.00000001739,7.96013214882394,1.00000000013348,0.392774344527711
9700.00000001776,9.17652907589885,1.00000000013343,0.397943138672678
9800.00000001812,10.5210605332822,1.00000000013839,0.403047698966567
9900.00000001848,12.0182419534694,1.00000000014601,0.407728887796894
10000.0000000188,13.668472893967,1.00000000014776,0.41258269795064
10100.0000000192,15.472844607616,1.00000000015907,0.417075292839662
10200.0000000196,17.4560278875836,1.00000000015444,0.421595431377621
10300.0000000199,19.603843650137,1.00000000016532,0.426056866627669
10400.0000000203,21.9416892979801,1.0000000001655,0.430163080609166
10500.0000000207,24.4753253041518,1.00000000016972,0.434322594969933
10600.000000021,27.1901457585054,1.00000000017798,0.438303223614196
10700.0000000214,30.1234199732626,1.00000000017056,0.442187136772684
10800.0000000218,33.2549655624831,1.00000000018292,0.446063351265012
10900.0000000221,36.6000659497961,1.00000000017959,0.449629813451429
11000.0000000225,40.1765081762334,1.00000000018775,0.453208439024854
11100.0000000229,43.9529409780783,1.00000000019524,0.456684032787783
11200.0000000232,47.9741401414327,1.00000000018766,0.459963837471459
11300.0000000236,52.2213087347275,1.00000000018899,0.463343157796699
11400.0000000239,56.6907866598436,1.00000000019281,0.466334270196164
11500.0000000243,61.4156740931482,1.00000000020019,0.469416693244271
11600.0000000247,66.3520841166139,1.00000000019381,0.47259655022781
11700.000000025,71.5421322519018,1.00000000020093,0.475182313112111
11800.0000000254,76.9772916420915,1.00000000019887,0.478079665851373
11900.0000000258,82.6301977216976,1.00000000019694,0.480798772124658
12000.0000000261,88.548723520895,1.00000000020713,0.483227182767487
12100.0000000265,94.6832684948593,1.00000000020426,0.486039145315191
12200.0000000269,101.063788249957,1.00000000020531,0.488181299077452
12300.0000000272,107.697589243666,1.00000000021043,0.490547847737568
12400.0000000276,114.535073954719,1.0000000002047,0.493024806590511
12500.0000000279,121.633736510372,1.00000000021294,0.494856796569372
12600.0000000283,128.947639585628,1.00000000021517,0.49714113362741
12700.0000000287,136.48408545053,1.00000000020637,0.499210861628184
12800.000000029,144.270852899247,1.00000000020997,0.500993283756111
12900.0000000294,152.241132184044,1.00000000021087,0.5031490054127
13000.0000000298,160.454024023929,1.000000000215,0.504675507526622
13100.0000000301,168.876238385643,1.00000000021462,0.506408340600609
13200.0000000305,177.486865590128,1.00000000021599,0.508156389191903
13300.0000000309,186.333125644292,1.00000000021609,0.509621447082207
13400.0000000312,195.342705786964,1.00000000022225,0.511316013794575
13500.0000000316,204.561557778733,1.00000000020682,0.512824755652564
13600.0000000319,213.978264020476,1.00000000021426,0.514010443901223
13700.0000000323,223.544926310321,1.00000000021219,0.515602500638483
13800.0000000327,233.321394283801,1.00000000021288,0.516695966179594
13900.000000033,243.240610685653,1.00000000021242,0.518076408983268
14000.0000000334,253.32669934776,1.00000000020945,0.519214410027859
14100.0000000338,263.591994228668,1.0000000002136,0.520181422581008
14200.0000000341,273.970202172049,1.00000000022211,0.521420404153646
14300.0000000345,284.52256799742,1.0000000002092,0.522351201859858
14400.0000000349,295.196580431307,1.00000000021672,0.52321658776868
14500.0000000352,305.991606693763,1.00000000020444,0.524345620523861
14600.0000000356,316.940801662764,1.00000000021773,0.52502910792823
14700.0000000359,327.967511307949,1.00000000021137,0.526096184205943
14800.0000000363,339.126128252341,1.00000000021138,0.526751792480317
14900.0000000367,350.386655281126,1.00000000020713,0.527364102556925
15000.000000037,361.719585574505,1.00000000021241,0.528074649207266
15100.0000000374,373.175968747545,1.00000000021074,0.528820551932419
15200.0000000378,384.6805432847,1.00000000021107,0.529530203285903
15300.0000000381,396.272901433431,1.00000000021608,0.529914879828739
15400.0000000385,407.943648864407,1.00000000020977,0.530460025233704
15500.0000000389,419.646185005624,1.00000000020654,0.53107480223467
15600.0000000392,431.434771247251,1.00000000020417,0.531426764011769
15700.0000000396,443.245470494393,1.00000000020631,0.532060642237756
15800.0000000399,455.099387919407,1.00000000019603,0.532603428591406
15900.0000000403,467.007848525511,1.00000000020057,0.532585281570347
16000.0000000407,478.909424596825,1.00000000020029,0.533059832028072
16100.000000041,490.858822413818,1.00000000020915,0.533310615138321
16200.0000000414,502.809394771319,1.00000000019856,0.533726662657854
16300.0000000418,514.759077313303,1.0000000002048,0.53411873299231
16400.0000000418,526.737827517766,1.00000000020604,0.534158036747699
16500.0000000404,538.680615549729,1.00000000019685,0.534531172993764
16600.0000000389,550.631872066544,1.00000000020242,0.534205976313311
16700.0000000375,562.565099457245,1.00000000020137,0.534643086211422
16800.000000036,574.460026641486,1.00000000019281,0.535178588393994
16900.0000000346,586.356621413318,1.00000000020078,0.535199138018606
17000.0000000331,598.193314495642,1.00000000019921,0.535364618762351
17100.0000000317,610.001925678879,1.00000000019158,0.535137784259629
17200.0000000302,621.776458272835,1.00000000018713,0.535201727816184
17300.0000000287,633.478836307414,1.00000000019106,0.535057729391037
17400.0000000273,645.155841201453,1.00000000019128,0.535415841466646
17500.0000000258,656.753291472617,1.00000000018602,0.535326528477688
17600.0000000244,668.290289326334,1.00000000019723,0.535569154316236
17700.0000000229,679.775265418998,1.00000000018619,0.535050336433436
17800.0000000215,691.162809337887,1.00000000018646,0.535256497278828
17900.00000002,702.495633025699,1.00000000018786,0.534680285310139
18000.0000000186,713.735088706813,1.00000000018085,0.534876045516648
18100.0000000171,724.884610802257,1.00000000018206,0.534785216897458
18200.0000000156,735.965232096984,1.00000000017947,0.534826693734219
18300.0000000142,746.928694684828,1.00000000018061,0.534814559254176
18400.0000000127,757.811323784967,1.00000000017848,0.534618895869301
18500.0000000113,768.589826372204,1.00000000017683,0.534269389694715
18600.0000000098,779.253227019914,1.00000000017601,0.534078068898954
18700.0000000084,789.83156967236,1.00000000018155,0.533665929537823
18800.0000000069,800.277458318564,1.00000000018039,0.533621000547765
18900.0000000055,810.61942797816,1.00000000017543,0.533492260167628
19000.000000004,820.848506004917,1.00000000017598,0.53330099302186
19100.0000000026,830.943274063318,1.00000000017485,0.533461945396932
19200.0000000011,840.937036081372,1.00000000017422,0.533049512491463
19299.9999999996,850.788755597977,1.00000000016778,0.532836926557486
19399.9999999982,860.517229170873,1.00000000016344,0.532463620167917
19499.9999999967,870.125782002343,1.0000000001701,0.531896256469865
19599.9999999953,879.585931288352,1.00000000017181,0.531934368264577
19699.9999999938,888.930310347946,1.00000000016858,0.53144081885353
19799.9999999924,898.127365681683,1.00000000016552,0.531608325832587
19899.9999999909,907.186261713192,1.00000000016295,0.531468240665199
19999.9999999895,916.118453378155,1.00000000016806,0.531083309634126
20099.999999988,924.893049954497,1.0000000001603,0.53098756823493
20199.9999999865,933.538595429537,1.0000000001578,0.530389351216502
20299.9999999851,942.035778349892,1.0000000001617,0.530145273007536
20399.9999999836,950.382733022214,1.000000000163,0.529665665340794
20499.9999999822,958.59806607453,1.00000000016408,0.529386264555091
20599.9999999807,966.651034816598,1.00000000015485,0.529285056484334
20699.9999999793,974.564400855808,1.00000000015296,0.529136012626355
20799.9999999778,982.329335274178,1.00000000015845,0.528912571471732
20899.9999999764,989.935409252426,1.00000000015437,0.528759627778228
20999.9999999749,997.406209435203,1.00000000015267,0.528377047884024
21099.9999999734,1004.71359801608,1.00000000015079,0.527982828830196
21199.999999972,1011.87389245866,1.00000000015261,0.527627856922801
21299.9999999705,1018.88672208517,1.0000000001524,0.527120880293044
21399.9999999691,1025.73672942243,1.00000000014397,0.527050028766329
21499.9999999676,1032.4486676579,1.00000000014857,0.526820424257857
21599.9999999662,1038.99808955384,1.0000000001463,0.526499042445903
21699.9999999647,1045.39617575515,1.00000000014576,0.526517202289
21799.9999999633,1051.64876214419,1.00000000014129,0.525940023241099
21899.9999999618,1057.73810095167,1.00000000014117,0.525789580853609
21999.9999999603,1063.68639518384,1.00000000014455,0.525295056327794
22099.9999999589,1069.47586798597,1.0000000001412,0.524763968768047
22199.9999999574,1075.11254285269,1.00000000013881,0.524891494873616
22299.999999956,1080.60730186169,1.0000000001414,0.524486205524091
22399.9999999545,1085.94060912425,1.00000000014064,0.524651083119938
22499.9999999531,1091.13316233414,1.00000000013759,0.524731437620774
22599.9999999516,1096.17339905743,1.00000000013825,0.52427987308108
22699.9999999502,1101.06193145997,1.00000000014077,0.524120435131773
22799.9999999487,1105.81205868754,1.00000000013555,0.523103962742403
22899.9999999473,1110.40414935948,1.00000000013702,0.522600040711973
22999.9999999458,1114.8551953048,1.00000000013928,0.52183537998601
23099.9999999443,1119.15861352983,1.00000000013337,0.521245057042768
23199.9999999429,1123.31109216409,1.00000000013573,0.521672333149902
23299.9999999414,1127.32836246115,1.00000000013543,0.521917086551907
23399.99999994,1131.19428532724,1.00000000013514,0.522898327016885
23499.9999999385,1134.92285011431,1.00000000013481,0.523611738714719
23599.9999999371,1138.51469364318,1.00000000013156,0.523675076598134
23699.9999999356,1141.96270311146,1.00000000012918,0.523396632858392
23799.9999999342,1145.28196624621,1.00000000012979,0.521861408736951
23899.9999999327,1148.45720501152,1.00000000012849,0.520202702423843
23999.9999999312,1151.49583268769,1.00000000012422,0.518361852067248
24099.9999999298,1154.39938519323,1.00000000012626,0.516562323936685
24199.9999999283,1157.15745545955,1.00000000012278,0.51654728442906
24299.9999999269,1159.78462116428,1.00000000012287,0.517275636860748
24399.9999999254,1162.27283656547,1.00000000012297,0.519341418172434
24499.999999924,1164.6304177551,1.00000000012672,0.522075424706523
24599.9999999225,1166.86770807575,1.00000000012476,0.524279979886196
24699.9999999211,1168.97806816511,1.00000000012951,0.525740482541721
24799.9999999196,1170.97576505213,1.00000000012762,0.525446812283743
24899.9999999181,1172.8552933483,1.00000000011882,0.523410771974114
24999.9999999167,1174.61491651557,1.00000000012236,0.519914113705287
25099.9999999152,1176.25909074483,1.00000000011763,0.515287514661769
25199.9999999138,1177.77142479284,1.00000000011435,0.511466672496948
25299.9999999123,1179.15767570862,1.0000000001127,0.509013595344973
25399.9999999109,1180.41359170993,1.00000000011219,0.509030650749751
25499.9999999094,1181.53910263387,1.00000000011155,0.512393650031762
25599.999999908,1182.549777485,1.00000000011242,0.517168377304408
25699.9999999065,1183.44430409921,1.00000000011442,0.522914012703956
25799.9999999051,1184.24024533634,1.00000000011928,0.527703297162623
25899.9999999036,1184.94637070083,1.00000000012581,0.530521111424207
25999.9999999021,1185.56404569781,1.00000000013139,0.530804236800319
26099.9999999007,1186.10333563233,1.00000000012681,0.527814027945319
26199.9999998992,1186.55135883167,1.00000000012216,0.522004263642944
26299.9999998978,1186.90494433307,1.00000000011354,0.5140487966
26399.9999998963,1187.15530354465,1.00000000010709,0.505532204401255
26499.9999998949,1187.28704464526,1.00000000009804,0.499286459180233
26599.9999998934,1187.30313470155,1.00000000009255,0.496967278771019
26699.999999892,1187.19658397413,1.00000000009497,0.499442360210997
26799.9999998905,1186.97842492792,1.00000000009979,0.506596224927946
26899.999999889,1186.66422906528,1.00000000010829,0.515571295867817
26999.9999998876,1186.26492246509,1.00000000011976,0.525037010515447
27099.9999998861,1185.80324923509,1.00000000012566,0.532457750195305
27199.9999998847,1185.28795473571,1.00000000013387,0.536932501238399
27299.9999998832,1184.72760785572,1.00000000013242,0.537535362191393
27399.9999998818,1184.12637059238,1.00000000013354,0.533379219182668
27499.9999998803,1183.47259365429,1.0000000001277,0.525519579239482
27599.9999998789,1182.75898101432,1.0000000001139,0.513626492776911
27699.9999998774,1181.9675029288,1.00000000010548,0.500478924574569
27799.9999998759,1181.08174729366,1.00000000008797,0.488372533093223
27899.9999998745,1180.09495967081,1.00000000008349,0.480768984285306
27999.999999873,1178.99703357091,1.00000000007899,0.480310273954652
28099.9999998716,1177.79857567001,1.00000000008441,0.487714807033945
28199.9999998701,1176.5117267748,1.0000000000943,0.499713025676901
28299.9999998687,1175.15349488257,1.00000000010988,0.514576466301759
28399.9999998672,1173.75073966796,1.00000000012291,0.526899076272538
28499.9999998658,1172.31558850754,1.00000000013812,0.537280791199231
28599.9999998643,1170.86779693353,1.00000000014095,0.542624875835407
28699.9999998629,1169.41377020734,1.0000000001495,0.543603838213163
