Time,AGPnorm,Energy,Entropy
0,0,1,-7.2969479433328e-17
99.9999999999986,0.00186347429317871,1.00000000000029,0.00548981766673062
199.999999999993,0.0121161944298318,0.999999999999445,0.015968345745178
300,0.0242997542327575,0.999999999999341,0.0293382735590996
400.000000000022,0.036146422192039,0.999999999999931,0.0462561008067468
500.000000000045,0.0504519247977359,0.999999999999847,0.0669622379620763
600.000000000068,0.0692373431563729,0.999999999999482,0.0914104041554298
700.000000000091,0.0862849374588444,0.999999999999619,0.119552314532959
800.000000000113,0.104204798902774,1.00000000000177,0.153704030386932
900.000000000136,0.120697757677182,1.00000000002238,0.197404681914841
1000.00000000016,0.136276047264845,1.00000000014378,0.252934924894681
1100.0000000001,0.164387662867126,1.00000000043942,0.312703068274688
1200,0.24931545910208,1.00000000085048,0.367791054010659
1299.99999999991,0.423487923820135,1.00000000138495,0.415479523342293
1399.99999999982,0.788151562029875,1.00000000169352,0.455915372799584
1499.99999999973,1.48455299415591,1.00000000195754,0.488724063501741
1599.99999999964,2.57611002619356,1.00000000220208,0.515372688376053
1699.99999999955,4.06980507926573,1.00000000230728,0.537474029178719
1799.99999999946,5.98423810692166,1.00000000246587,0.554402999021795
1899.99999999937,8.30197453323738,1.00000000242422,0.567030113012134
1999.99999999928,10.9396464121276,1.00000000241324,0.576954633621662
2099.99999999919,13.8109459539096,1.00000000244753,0.584469876122249
2199.99999999909,16.8573866224069,1.0000000023218,0.588873714201074
2299.999999999,19.9954059434666,1.00000000235826,0.591332511046992
2399.99999999891,23.1227180709495,1.00000000222774,0.591984535087137
2499.99999999882,26.1618125944737,1.00000000223845,0.593475857632411
2599.99999999873,29.074184379216,1.00000000214607,0.592498695605415
2699.99999999864,31.81899328882,1.00000000207546,0.590677287837848
2799.99999999855,34.3433066592546,1.00000000206046,0.588697319848489
2899.99999999846,36.6117920777805,1.00000000190548,0.587801567509692
2999.99999999837,38.6116568290658,1.00000000186035,0.585506424734529
3099.99999999828,40.3481910578967,1.00000000174953,0.581697878124132
3199.99999999819,41.8179365353775,1.00000000164942,0.579437341449309
3299.99999999809,43.0140419965558,1.00000000164888,0.57913052488463
3399.999999998,43.9469080074116,1.00000000154012,0.575064078005059
3499.99999999791,44.6348320604023,1.00000000143409,0.57842338462645
3599.99999999782,45.0937373227639,1.00000000146074,0.571806015663036
3699.99999999773,45.3535535726913,1.00000000139533,0.572946057110992
3799.99999999764,45.4191137658654,1.0000000012812,0.567939736065853
3899.99999999755,45.3318287590766,1.00000000139412,0.574619139847642
3999.99999999746,45.0970119727031,1.00000000123955,0.55341100548872
4099.99999999738,44.7727664403957,1.00000000153022,0.575572605465488
4199.99999999775,44.3460511166338,1.00000000113667,0.536258917002483
4299.99999999811,43.8517103261463,1.00000000159842,0.58325013856838
4399.99999999848,43.3171622594543,1.00000000112026,0.53364139462394
4499.99999999884,42.7114864563412,1.00000000154888,0.56320781433687
4599.9999999992,42.1178648394091,1.00000000163632,0.560704436932894
4699.99999999957,41.4849887188051,1.0000000011776,0.510267009477356
4799.99999999993,40.8284538310427,1.00000000172369,0.573851532065468
4900.00000000029,40.1987797206214,1.0000000014174,0.533618591739721
5000.00000000066,39.5451487706494,1.00000000121233,0.501292302789201
5100.00000000102,38.8835574756985,1.00000000166378,0.553400675505661
5200.00000000139,38.2532197700204,1.00000000167469,0.540012553385411
5300.00000000175,37.6249407137541,1.00000000115366,0.494160847996045
5400.00000000211,36.9865378696704,1.00000000140079,0.51617956823177
5500.00000000248,36.3675591889732,1.00000000178264,0.551826029839686
5600.00000000284,35.7716783453805,1.00000000146294,0.509847971753756
5700.00000000321,35.1831874965816,1.00000000121436,0.49815357234051
5800.00000000357,34.5994618090448,1.00000000145652,0.515761240923753
5900.00000000393,34.0313804594025,1.00000000154312,0.535852424912779
6000.0000000043,33.4825973882146,1.00000000163867,0.521321079773136
6100.00000000466,32.9496749653908,1.00000000119969,0.496332056813674
6200.00000000502,32.4309250256403,1.00000000136726,0.528660449963999
6300.00000000539,31.9258063590252,1.00000000142185,0.514993368953022
6400.00000000575,31.4364211228291,1.00000000159153,0.529786065656864
6500.00000000612,30.9615165721379,1.00000000151367,0.517721353643551
6600.00000000648,30.5052173922471,1.00000000119482,0.500683176760433
6700.00000000684,30.066734274968,1.00000000150457,0.530992202941255
6800.00000000721,29.6409207599691,1.00000000144205,0.532579037662989
6900.00000000757,29.233586747239,1.0000000012798,0.501433342535969
7000.00000000793,28.8405795681245,1.00000000156901,0.523327716020824
7100.0000000083,28.4563843034815,1.00000000156409,0.515706677984956
7200.00000000866,28.0908832342906,1.00000000125031,0.50713077646607
7300.00000000903,27.7422817338917,1.00000000145219,0.526142827462608
7400.00000000939,27.4010194018076,1.00000000163976,0.53616221879369
7500.00000000975,27.0740930194959,1.00000000126489,0.516046832951043
7600.00000001012,26.7667112703927,1.00000000136236,0.501527644637609
7700.00000001048,26.4699174760581,1.00000000165557,0.528699978518173
7800.00000001084,26.1789523686331,1.00000000163486,0.519405210886664
7900.00000001121,25.9016145339894,1.00000000131168,0.513171589536368
8000.00000001157,25.6387604302586,1.00000000140795,0.528094189207413
8100.00000001194,25.3848840726927,1.00000000154962,0.530792736052192
8200.0000000123,25.1343473168552,1.00000000155651,0.528492865204988
8300.00000001266,24.8946810144997,1.00000000136391,0.529900515549626
8400.00000001303,24.6705171168737,1.0000000013003,0.507460980325083
8500.00000001339,24.4585001991521,1.00000000145564,0.525870841544099
8600.00000001376,24.2536919529141,1.00000000163129,0.535526333309886
8700.00000001412,24.0540427673113,1.00000000148336,0.530542186142659
8800.00000001448,23.8662292407842,1.00000000136325,0.524745419900282
8900.00000001485,23.687979469808,1.00000000145295,0.5366902057599
9000.00000001521,23.5172853159893,1.00000000139698,0.537232160442899
9100.00000001557,23.3554528331246,1.00000000147542,0.531103483971595
9200.00000001594,23.1964407332181,1.00000000155134,0.529272509852269
9300.0000000163,23.0371765579036,1.00000000153245,0.547502601189326
9400.00000001667,22.8835782024906,1.00000000144357,0.539006657037634
9500.00000001703,22.7440836905054,1.00000000132674,0.525916575891584
9600.00000001739,22.6148477855053,1.00000000152146,0.546151352019761
9700.00000001776,22.4874853838989,1.00000000162424,0.545970892429223
9800.00000001812,22.3645709823492,1.00000000147347,0.538447567381173
9900.00000001848,22.2507272837064,1.00000000139532,0.537797287823613
10000.0000000188,22.1464860508584,1.00000000143336,0.53919526246973
10100.0000000192,22.0405523786778,1.00000000158935,0.551107913231539
10200.0000000196,21.9376043451146,1.00000000141341,0.538981037090763
10300.0000000199,21.8485883686132,1.00000000135217,0.531546671757109
10400.0000000203,21.7638536346785,1.00000000156819,0.544024911935154
10500.0000000207,21.6737589882636,1.00000000160104,0.543523620004876
10600.000000021,21.5773629581592,1.0000000015816,0.560012806164651
10700.0000000214,21.4833449012994,1.0000000014189,0.560227535988455
10800.0000000218,21.3943849055275,1.00000000142382,0.558227775595803
10900.0000000221,21.3108361463979,1.00000000144252,0.563548903202707
11000.0000000225,21.2325713140596,1.00000000154077,0.553208039780414
11100.0000000229,21.160507509032,1.00000000153556,0.549523766177646
11200.0000000232,21.0947147695901,1.00000000146396,0.542541376068906
11300.0000000236,21.0375375059377,1.00000000143691,0.548942629406252
11400.0000000239,20.983494500497,1.00000000151968,0.564667881192413
11500.0000000243,20.9326244271416,1.00000000154719,0.557285940436508
11600.0000000247,20.8824464634998,1.0000000016128,0.556382454036347
11700.000000025,20.8332795071355,1.00000000153318,0.559088275359787
11800.0000000254,20.789077570935,1.0000000015372,0.552957805905175
11900.0000000258,20.7512894565339,1.00000000160533,0.555818088955947
12000.0000000261,20.7151411053252,1.00000000151817,0.565731301112446
12100.0000000265,20.6794767484723,1.00000000148658,0.561832850176271
12200.0000000269,20.6431678751093,1.00000000154496,0.569406348371431
12300.0000000272,20.599871322195,1.00000000164229,0.580552473880075
12400.0000000276,20.5469939296558,1.00000000163124,0.595266691244167
12500.0000000279,20.4871022909715,1.00000000158234,0.600042059457836
12600.0000000283,20.427151525235,1.00000000149105,0.593461292157414
12700.0000000287,20.3746259432043,1.00000000143855,0.581173560759192
12800.000000029,20.3300994002225,1.00000000147783,0.576410712579145
12900.0000000294,20.2925846033288,1.00000000156754,0.567435992709599
13000.0000000298,20.2623021301864,1.00000000159046,0.560854752253782
13100.0000000301,20.2369974432381,1.00000000147973,0.565598209932118
13200.0000000305,20.2166595265867,1.00000000152117,0.572562748437028
13300.0000000309,20.1993088820296,1.0000000014862,0.575925273604386
13400.0000000312,20.1804735245334,1.00000000164368,0.581351872356383
13500.0000000316,20.1636451611695,1.00000000157928,0.578932829506717
13600.0000000319,20.1527313041402,1.00000000147939,0.567914187720491
13700.0000000323,20.1448769686654,1.00000000149891,0.561989177474441
13800.0000000327,20.1354118349291,1.0000000016429,0.566371111793691
13900.000000033,20.1249201323733,1.00000000152851,0.575959880592128
14000.0000000334,20.1193506976784,1.00000000151877,0.577969177108423
14100.0000000338,20.117090716436,1.00000000148789,0.582809547459947
14200.0000000341,20.1131193842998,1.00000000162856,0.598322154280811
14300.0000000345,20.1057673431474,1.00000000162372,0.606374594999825
14400.0000000349,20.0932889131895,1.0000000015721,0.609367712899555
14500.0000000352,20.0773146060419,1.0000000015108,0.606885659765598
14600.0000000356,20.0589513259365,1.00000000166769,0.603290381120802
14700.0000000359,20.0339744069506,1.00000000159709,0.606080081868666
14800.0000000363,20.0003257267961,1.00000000172775,0.604711519341523
14900.0000000367,19.9593682824241,1.00000000164026,0.601855097547256
15000.000000037,19.9129867753339,1.00000000162471,0.607858817985629
15100.0000000374,19.8677890400107,1.0000000015026,0.61018711404345
15200.0000000378,19.8281241057702,1.00000000148113,0.600141439013032
15300.0000000381,19.7949721764999,1.00000000161649,0.594484949255918
15400.0000000385,19.7691389549139,1.00000000161499,0.590397748634907
15500.0000000389,19.7500031298377,1.00000000150141,0.580081234330613
15600.0000000392,19.7363694666186,1.00000000158944,0.578873882572425
15700.0000000396,19.7304914526064,1.00000000162495,0.578962804194086
15800.0000000399,19.7290339328216,1.00000000163706,0.585430330870619
15900.0000000403,19.7306788423659,1.00000000160747,0.592843763473017
16000.0000000407,19.732995756044,1.00000000167493,0.595421534941857
16100.000000041,19.7380094608857,1.00000000167562,0.590856808045653
16200.0000000414,19.7418247791629,1.00000000158334,0.586112688666674
16300.0000000418,19.748866726682,1.00000000158889,0.581864740559867
16400.0000000418,19.7570131450376,1.00000000162653,0.583586374430313
16500.0000000404,19.7662541178297,1.00000000167138,0.592538553666561
16600.0000000389,19.7756358026328,1.00000000157224,0.59251335203695
16700.0000000375,19.7845970006902,1.00000000168973,0.588929509471308
16800.000000036,19.7937235312444,1.00000000174288,0.5902644540863
16900.0000000346,19.8029912381117,1.00000000160667,0.581969797560511
17000.0000000331,19.8140388551428,1.00000000167449,0.583409226503759
17100.0000000317,19.8264311861344,1.00000000166491,0.592494056674456
17200.0000000302,19.8396920643583,1.0000000015535,0.602790444682944
17300.0000000287,19.8514252995948,1.00000000170013,0.609809836175222
17400.0000000273,19.8602750268077,1.0000000015593,0.616393729188654
17500.0000000258,19.8636028105947,1.00000000174339,0.626371893529719
17600.0000000244,19.8625718098767,1.00000000175171,0.629560238120555
17700.0000000229,19.8577328187583,1.00000000168102,0.624742152045495
17800.0000000215,19.8492949414586,1.00000000175809,0.634445814370598
17900.00000002,19.8377283456736,1.00000000166583,0.631243916593284
18000.0000000186,19.8236579179693,1.00000000159398,0.630908284268
18100.0000000171,19.8067980395209,1.00000000152252,0.631157044257154
18200.0000000156,19.7899192792308,1.00000000159602,0.630752412200853
18300.0000000142,19.769824052941,1.00000000173725,0.635032065881353
18400.0000000127,19.7442182637607,1.00000000179504,0.632085193397805
18500.0000000113,19.7098575239077,1.00000000185803,0.631397532150573
18600.0000000098,19.6709235605587,1.0000000017408,0.627556395255654
18700.0000000084,19.6284355912796,1.00000000173756,0.625241522188381
18800.0000000069,19.5856959902282,1.00000000156401,0.619417268376857
18900.0000000055,19.5466755370211,1.00000000156853,0.617000457090311
19000.000000004,19.512206380135,1.00000000163875,0.619583088505417
19100.0000000026,19.4838977739663,1.00000000160619,0.616251547229383
19200.0000000011,19.4617339921619,1.00000000169092,0.614512831879171
19299.9999999996,19.4461933979889,1.00000000166597,0.612916669171431
19399.9999999982,19.4359190935273,1.00000000164657,0.611763645713068
19499.9999999967,19.4308919469681,1.00000000165395,0.604268261009689
19599.9999999953,19.4312312274924,1.00000000160846,0.59119291366696
19699.9999999938,19.4366816638023,1.00000000171369,0.591080346571394
19799.9999999924,19.4468698634996,1.00000000173648,0.602451815334973
19899.9999999909,19.4586814922524,1.00000000177073,0.604167880087699
19999.9999999895,19.4714237167078,1.00000000177239,0.611519557607912
20099.999999988,19.4854974544661,1.00000000162134,0.606911302658686
20199.9999999865,19.5015200262722,1.00000000172051,0.605942032784614
20299.9999999851,19.5188477374231,1.00000000169967,0.607313181097042
20399.9999999836,19.5385157692766,1.00000000168208,0.600667923905024
20499.9999999822,19.5589270541579,1.00000000171237,0.596365208040758
20599.9999999807,19.5815526180903,1.00000000164757,0.598520549032687
20699.9999999793,19.604957492977,1.00000000171847,0.600636411706123
20799.9999999778,19.6273317369085,1.00000000180281,0.60300285535665
20899.9999999764,19.647261675874,1.00000000172796,0.604235373476796
20999.9999999749,19.6679823449121,1.00000000173485,0.605470648270531
21099.9999999734,19.6883716364425,1.000000001743,0.6086026118779
21199.999999972,19.7101281391947,1.000000001758,0.608070303408102
21299.9999999705,19.7321869461116,1.00000000179026,0.611876646171094
21399.9999999691,19.7534560879031,1.00000000171968,0.618197513101545
21499.9999999676,19.7741684580388,1.00000000182341,0.634253403384823
21599.9999999662,19.7922591027791,1.00000000175911,0.643791512445463
21699.9999999647,19.8062096953041,1.00000000184151,0.650575078061647
21799.9999999633,19.8180002729403,1.00000000173538,0.646363005779519
21899.9999999618,19.8275436088489,1.00000000183573,0.649728784589369
21999.9999999603,19.8353780540071,1.0000000018186,0.644769653372886
22099.9999999589,19.8452031282483,1.00000000177382,0.644106496070796
22199.9999999574,19.8554176066484,1.00000000181409,0.651002357291018
22299.999999956,19.8656336264845,1.00000000175993,0.653463430846842
22399.9999999545,19.8759568555982,1.0000000018269,0.653526878389905
22499.9999999531,19.8812627924562,1.00000000194503,0.648912439760945
22599.9999999516,19.8850528921674,1.00000000176792,0.654148979182215
22699.9999999502,19.8872850458671,1.00000000189316,0.65617694073191
22799.9999999487,19.8885402212488,1.00000000188239,0.655982714253034
22899.9999999473,19.8886449105236,1.00000000188309,0.655534707732237
22999.9999999458,19.8870884073844,1.00000000183331,0.653437653126791
23099.9999999443,19.8836512693587,1.00000000187159,0.641484114352741
23199.9999999429,19.8784581695728,1.00000000181384,0.645984206366845
23299.9999999414,19.8707494312066,1.00000000180105,0.648802329066493
23399.99999994,19.86264250202,1.00000000170724,0.647711185374892
23499.9999999385,19.8543167570677,1.0000000019359,0.652933587818249
23599.9999999371,19.842912699809,1.00000000195837,0.661399877617226
23699.9999999356,19.8292827841115,1.00000000177623,0.660077491058454
23799.9999999342,19.8137941386823,1.00000000186116,0.659229449210204
23899.9999999327,19.7972187072247,1.00000000182659,0.662826236418046
23999.9999999312,19.7803541504709,1.00000000190668,0.664942942792109
24099.9999999298,19.7602964554072,1.00000000189239,0.664388654663927
24199.9999999283,19.73721965372,1.00000000186438,0.653577847693131
24299.9999999269,19.7138759551091,1.00000000179802,0.65678689180577
24399.9999999254,19.6893657856438,1.00000000180624,0.660350528227097
24499.999999924,19.6645424777841,1.00000000183997,0.653387735593396
24599.9999999225,19.6378424490443,1.00000000195587,0.660983224900284
24699.9999999211,19.608116162927,1.00000000194098,0.664890878088742
24799.9999999196,19.5748371954953,1.00000000204716,0.669155272610142
24899.9999999181,19.5385335087488,1.00000000187645,0.666562401795631
24999.9999999167,19.5013741199194,1.00000000193819,0.662884555194106
25099.9999999152,19.4645720799626,1.00000000181488,0.662809028115645
25199.9999999138,19.4298566723347,1.00000000179462,0.664755756840848
25299.9999999123,19.3985467839132,1.00000000179642,0.657240924956437
25399.9999999109,19.3706474728639,1.00000000185078,0.649396679470134
25499.9999999094,19.3470383921293,1.00000000169933,0.644627929178564
25599.999999908,19.328811567514,1.00000000183768,0.643013118691218
25699.9999999065,19.3164984514422,1.00000000188575,0.65134202601104
25799.9999999051,19.3085459540064,1.00000000201309,0.655415519793468
25899.9999999036,19.3049240955034,1.00000000182088,0.648745734950623
25999.9999999021,19.3064290342443,1.00000000185722,0.648149619031034
26099.9999999007,19.3118673470859,1.00000000185471,0.641545083501021
26199.9999998992,19.3226894551635,1.00000000182812,0.634457264033383
26299.9999998978,19.339554740796,1.00000000180752,0.627585008755867
26399.9999998963,19.3588380068796,1.00000000198054,0.626765142906642
26499.9999998949,19.3816211023733,1.00000000191235,0.625121853617148
26599.9999998934,19.4079596536739,1.0000000019096,0.632079333054763
26699.999999892,19.4329659282478,1.00000000209109,0.633476623705205
26799.9999998905,19.4601688446809,1.00000000177014,0.616593249366755
26899.999999889,19.4900951319709,1.00000000204516,0.621118346078895
26999.9999998876,19.5188248308451,1.0000000019739,0.617041549722083
27099.9999998861,19.5513079079599,1.00000000183733,0.609986731409621
27199.9999998847,19.5874306291849,1.00000000191997,0.619293035059316
27299.9999998832,19.6246108288945,1.00000000201614,0.618234713528694
27399.9999998818,19.6627419277492,1.00000000189576,0.613148388842461
27499.9999998803,19.7019941241251,1.00000000192252,0.618912512294136
27599.9999998789,19.7432433667501,1.00000000193095,0.618563776197789
27699.9999998774,19.7819217761473,1.00000000206204,0.624766872684188
27799.9999998759,19.8193450488982,1.00000000192368,0.6226457282834
27899.9999998745,19.8592052655989,1.00000000190683,0.619846573639442
27999.999999873,19.8986232261749,1.00000000198126,0.621308032179911
28099.9999998716,19.939012211036,1.00000000199499,0.618316149540034
28199.9999998701,19.9790047427975,1.00000000199896,0.622718030968485
28299.9999998687,20.0195210391346,1.00000000198693,0.624254937945136
28399.9999998672,20.0610051416056,1.00000000209604,0.631725154193554
28499.9999998658,20.1012260229576,1.00000000217024,0.637845147445183
28599.9999998643,20.1415998730544,1.00000000207571,0.641351361262174
28699.9999998629,20.1824846316638,1.00000000199788,0.643483337506851
28799.9999998614,20.2203729660357,1.00000000202771,0.643031859121738
28899.9999998599,20.2592608168273,1.00000000202176,0.649471556135251
28999.9999998585,20.2981655819164,1.00000000218843,0.66053834908689
