Time,AGPnorm,Energy,Entropy
0,0,1,-1.25334061961758e-17
99.9999999999986,5.09520724490976e-05,0.999999999999182,0.00190097243936013
199.999999999993,0.00443834556571137,0.999999999999804,0.00305595607123406
300,0.0109294979214939,0.999999999999786,0.00533086632884833
400.000000000022,0.014907892644856,0.999999999999244,0.00906862067031944
500.000000000045,0.0182188911793005,0.999999999999963,0.0121800470254367
600.000000000068,0.0262903525170344,0.999999999999415,0.0167702449968283
700.000000000091,0.032448099297845,0.999999999999466,0.0215037301692736
800.000000000113,0.0407927718378905,1.00000000000004,0.0264150507571509
900.000000000136,0.0509439445503122,0.999999999999231,0.03238489214344
1000.00000000016,0.0593886793059124,0.999999999999748,0.0381300680340639
1100.0000000001,0.0702770744683205,0.999999999999737,0.0446111034233252
1200,0.0815679862265619,0.999999999999195,0.0516187752018768
1299.99999999991,0.0930733583414391,1.00000000000011,0.0587064498673564
1399.99999999982,0.106293149045885,0.999999999999403,0.0666495821914937
1499.99999999973,0.118672588923239,0.999999999999425,0.0748037127361052
1599.99999999964,0.131320067474384,1.00000000000002,0.0834667360962182
1699.99999999955,0.145207670291567,0.999999999999096,0.0929723570327339
1799.99999999946,0.158749418195546,1.00000000000007,0.102801499554352
1899.99999999937,0.17313144300653,0.999999999999687,0.113620881092599
1999.99999999928,0.187177103916918,0.999999999999108,0.125264108994854
2099.99999999919,0.20056611311257,1.00000000000031,0.137803154990575
2199.99999999909,0.215105198257237,1.0000000000001,0.152083881044249
2299.999999999,0.229275691283199,1.00000000000405,0.167886781913101
2399.99999999891,0.243711642821819,1.00000000001316,0.185884275948887
2499.99999999882,0.255697969515552,1.00000000003508,0.206042597573044
2599.99999999873,0.271102197343722,1.00000000007702,0.22729157005156
2699.99999999864,0.287382713327122,1.00000000013614,0.249586900481698
2799.99999999855,0.302164975284206,1.00000000021538,0.271613732401503
2899.99999999846,0.339063616388786,1.00000000030375,0.293232841029734
2999.99999999837,0.374948902572889,1.00000000041405,0.314542481715368
3099.99999999828,0.448706418280419,1.00000000050808,0.334883273168605
3199.99999999819,0.571623600998739,1.00000000061353,0.354748466014492
3299.99999999809,0.730752246873155,1.00000000072321,0.373866362744068
3399.999999998,0.994280392308689,1.00000000082242,0.391619773403704
3499.99999999791,1.340556498881,1.00000000089962,0.408815432902711
3599.99999999782,1.80338588454563,1.00000000098617,0.425075624744537
3699.99999999773,2.42870749234437,1.00000000109295,0.439994562087078
3799.99999999764,3.18849329793523,1.00000000114462,0.454511606528672
3899.99999999755,4.13999441094178,1.00000000120173,0.467687580564502
3999.99999999746,5.28778167353255,1.00000000125118,0.479987600857676
4099.99999999738,6.62302088160628,1.00000000130672,0.491805779059114
4199.99999999775,8.19106942280467,1.00000000137201,0.502142002051077
4299.99999999811,9.97153648306397,1.00000000140301,0.512006424894385
4399.99999999848,11.9657155257469,1.00000000144662,0.521187054863089
4499.99999999884,14.1967749873659,1.00000000146038,0.529263971239338
4599.9999999992,16.6337087680626,1.00000000143979,0.53728401164753
4699.99999999957,19.2824850409318,1.00000000149623,0.544251795501601
4799.99999999993,22.1472318818925,1.00000000151379,0.550304815063237
4900.00000000029,25.1856230458181,1.00000000146893,0.556884397083472
5000.00000000066,28.4128545431266,1.00000000150687,0.561829897102413
5100.00000000102,31.8102889067323,1.00000000147709,0.56687458100304
5200.00000000139,35.3405914206018,1.00000000151102,0.571488459326726
5300.00000000175,39.0242759599978,1.00000000147152,0.575203878443202
5400.00000000211,42.8119940923315,1.00000000148131,0.579203551766306
5500.00000000248,46.6945629594537,1.00000000146682,0.582466466984055
5600.00000000284,50.6777112359878,1.00000000149589,0.584832884933494
5700.00000000321,54.7025983137428,1.00000000146874,0.587868474949734
5800.00000000357,58.7890756366969,1.00000000146458,0.589869680962008
5900.00000000393,62.9050554554357,1.00000000141103,0.592172815554894
6000.0000000043,67.0203027006642,1.0000000014034,0.594072698908875
6100.00000000466,71.1566010441072,1.00000000135257,0.595031747416137
6200.00000000502,75.2585859380221,1.00000000140086,0.596736997011878
6300.00000000539,79.3341553471916,1.00000000140093,0.597701508699124
6400.00000000575,83.3738052722438,1.00000000137091,0.598459798048897
6500.00000000612,87.3389202574966,1.00000000129496,0.599554451737897
6600.00000000648,91.2552442562335,1.00000000129172,0.599489258336518
6700.00000000684,95.0822167700899,1.000000001265,0.600480920031502
6800.00000000721,98.8179048386901,1.00000000126397,0.60079826937162
6900.00000000757,102.468225904618,1.00000000125947,0.60055388122618
7000.00000000793,105.996202263997,1.00000000119589,0.60122610709811
7100.0000000083,109.42640537163,1.00000000124643,0.600343727509397
7200.00000000866,112.732813797149,1.00000000116657,0.601202769738263
7300.00000000903,115.908501182764,1.00000000118468,0.600751315831411
7400.00000000939,118.968317268693,1.00000000115942,0.600472093950042
7500.00000000975,121.882179967314,1.0000000011891,0.600046928622877
7600.00000001012,124.670837359097,1.00000000111172,0.600133239894005
7700.00000001048,127.319073521459,1.00000000110277,0.599514859164195
7800.00000001084,129.821778841551,1.00000000107217,0.59931400089888
7900.00000001121,132.19355308682,1.00000000106448,0.599029347851174
8000.00000001157,134.416773611829,1.00000000105667,0.598095174440372
8100.00000001194,136.502741792261,1.00000000105232,0.598612551795246
8200.0000000123,138.452098309394,1.00000000099601,0.596623134039056
8300.00000001266,140.251937389152,1.00000000100598,0.598327508925033
8400.00000001303,141.925817451746,1.0000000009649,0.595621206874142
8500.00000001339,143.453870917675,1.00000000097593,0.596870683997832
8600.00000001376,144.851760827575,1.00000000093787,0.595262120074985
8700.00000001412,146.117834420737,1.00000000092937,0.595120263392817
8800.00000001448,147.248772123107,1.00000000091759,0.595177400820939
8900.00000001485,148.259337073858,1.00000000090125,0.593879223863491
9000.00000001521,149.142696524284,1.00000000089659,0.594308607397478
9100.00000001557,149.905593192281,1.00000000087661,0.59384238513062
9200.00000001594,150.554536616254,1.00000000085488,0.593014830301509
9300.0000000163,151.084933460733,1.00000000082048,0.594743055340565
9400.00000001667,151.513578440561,1.00000000082274,0.591381171276042
9500.00000001703,151.832784750016,1.00000000081919,0.592608964007816
9600.00000001739,152.055050779682,1.000000000829,0.594446330545295
9700.00000001776,152.184909373948,1.00000000079339,0.587976568689614
9800.00000001812,152.218853789666,1.00000000079974,0.592282420589041
9900.00000001848,152.178984629891,1.00000000079067,0.590746250193115
10000.0000000188,152.055063687892,1.00000000074614,0.584119720915403
10100.0000000192,151.856278482306,1.00000000081679,0.591007167410646
10200.0000000196,151.599061038358,1.0000000007991,0.588130934896732
10300.0000000199,151.270929656704,1.00000000075749,0.579382771650507
10400.0000000203,150.885343897196,1.00000000085017,0.589221782530541
10500.0000000207,150.453384337074,1.00000000083951,0.58808723142978
10600.000000021,149.967258730295,1.00000000074227,0.57360098882705
10700.0000000214,149.430537348992,1.00000000084194,0.5855842076291
10800.0000000218,148.859632573326,1.00000000089388,0.590027170747571
10900.0000000221,148.253099752815,1.00000000075264,0.570100775782421
11000.0000000225,147.597393998639,1.00000000081239,0.577970136064051
11100.0000000229,146.917886007403,1.00000000093015,0.589284139958559
11200.0000000232,146.220202955335,1.00000000081237,0.57526627481712
11300.0000000236,145.482872493579,1.00000000074267,0.561949783168642
11400.0000000239,144.723658934192,1.00000000095752,0.586619556932201
11500.0000000243,143.956967220488,1.00000000088691,0.580061782571927
11600.0000000247,143.171097600708,1.00000000075636,0.563581175488254
11700.000000025,142.358973248282,1.00000000077547,0.565153164052273
11800.0000000254,141.536359842824,1.0000000009632,0.585397018419946
11900.0000000258,140.712915561341,1.00000000088518,0.571557190342542
12000.0000000261,139.875492932371,1.0000000007822,0.560143838610946
12100.0000000265,139.020784488368,1.0000000008431,0.563604323879129
12200.0000000269,138.164869629084,1.00000000096519,0.579633332769561
12300.0000000272,137.309120859286,1.00000000088948,0.564951292878252
12400.0000000276,136.44946448981,1.00000000083394,0.561375942125951
12500.0000000279,135.579944090391,1.00000000084129,0.556779515850961
12600.0000000283,134.707685509048,1.00000000092255,0.573015703443396
12700.0000000287,133.842021445884,1.00000000095926,0.564205982934849
12800.000000029,132.976066898557,1.00000000080085,0.554068674078852
12900.0000000294,132.108836855385,1.00000000089276,0.560915631226478
13000.0000000298,131.240516592255,1.00000000087363,0.555797032288934
13100.0000000301,130.37486337814,1.00000000096376,0.570019619692992
13200.0000000305,129.51770052386,1.00000000086589,0.549917380015056
13300.0000000309,128.661197466507,1.00000000082544,0.552747563653231
13400.0000000312,127.80891641476,1.00000000097251,0.562891162326426
13500.0000000316,126.959508219127,1.00000000082389,0.550286934708776
13600.0000000319,126.114629392205,1.00000000096453,0.56229075946794
13700.0000000323,125.278397988635,1.00000000086048,0.545176775722154
13800.0000000327,124.445708244173,1.00000000088345,0.547677087558437
13900.000000033,123.620035659922,1.00000000093377,0.565338731495775
14000.0000000334,122.799983912048,1.00000000085718,0.550355974842846
14100.0000000338,121.984311584068,1.00000000089337,0.549658421721328
14200.0000000341,121.176577803581,1.00000000087619,0.549659909228652
14300.0000000345,120.374886685832,1.00000000086599,0.539287619968934
14400.0000000349,119.580774717181,1.00000000091549,0.556470764556683
14500.0000000352,118.7946529173,1.00000000095323,0.563472873102302
14600.0000000356,118.014521132478,1.00000000084428,0.545653037909793
14700.0000000359,117.240909474482,1.00000000085199,0.541266035236008
14800.0000000363,116.473734733559,1.00000000090409,0.546829049928851
14900.0000000367,115.714486747569,1.00000000085495,0.542377225463588
15000.000000037,114.963561164304,1.00000000088046,0.553144184057564
15100.0000000374,114.220588340728,1.00000000091886,0.563327292538703
15200.0000000378,113.485789916706,1.0000000008519,0.550648576355574
15300.0000000381,112.757166011747,1.00000000082665,0.537561346208894
15400.0000000385,112.035381647231,1.00000000086285,0.544568935985526
15500.0000000389,111.321689053587,1.00000000087057,0.548667273666759
15600.0000000392,110.616092306916,1.00000000088212,0.548647834281285
15700.0000000396,109.919613296445,1.00000000088308,0.558418853592962
15800.0000000399,109.231176740759,1.0000000008541,0.559547870711445
15900.0000000403,108.550524526241,1.00000000085167,0.547885310533411
16000.0000000407,107.877573164146,1.0000000008148,0.538923840240315
16100.000000041,107.212302850942,1.00000000082694,0.543281836758276
16200.0000000414,106.555313072295,1.00000000089962,0.556557242177555
16300.0000000418,105.906445935615,1.00000000085113,0.5542138980021
16400.0000000418,105.266223502953,1.00000000083619,0.553153073650361
16500.0000000404,104.634711284642,1.00000000086274,0.561659277399771
16600.0000000389,104.011536105648,1.00000000085029,0.551875733386851
16700.0000000375,103.396982765508,1.00000000078653,0.541870046055733
16800.000000036,102.79061850096,1.00000000083855,0.541255203717473
16900.0000000346,102.192517577643,1.00000000087699,0.550679985541903
17000.0000000331,101.602424899564,1.00000000085785,0.558120798233057
17100.0000000317,101.020103730258,1.00000000085693,0.554269340051596
17200.0000000302,100.445857678688,1.00000000092142,0.5545987215396
17300.0000000287,99.8794768395207,1.0000000008928,0.55779763863049
17400.0000000273,99.3223806013986,1.00000000080228,0.550318246257916
17500.0000000258,98.774780155255,1.00000000080301,0.537792559854984
17600.0000000244,98.2355968783928,1.00000000084657,0.539906499509522
17700.0000000229,97.7034676799159,1.00000000091624,0.547357392072822
17800.0000000215,97.1789463414098,1.00000000085565,0.548593980278116
17900.00000002,96.6617609821315,1.00000000085533,0.558130958342817
18000.0000000186,96.1515376869788,1.00000000091815,0.559027815578405
18100.0000000171,95.6475001863145,1.00000000094121,0.555956426882935
18200.0000000156,95.1507736944313,1.00000000087105,0.554969510134595
18300.0000000142,94.6638003324838,1.00000000078726,0.544796566334067
18400.0000000127,94.187447044676,1.00000000076929,0.535259732993561
18500.0000000113,93.7192013899313,1.00000000088153,0.537582218950625
18600.0000000098,93.2568383330442,1.00000000093532,0.543092133592488
18700.0000000084,92.8009238456046,1.00000000083686,0.541656254190409
18800.0000000069,92.3524258832006,1.00000000084128,0.548908315078309
18900.0000000055,91.9088650249321,1.00000000092358,0.564865793406158
19000.000000004,91.4696120388475,1.00000000092211,0.564024964140577
19100.0000000026,91.035630665166,1.00000000093192,0.553406422061115
19200.0000000011,90.6091885156269,1.00000000085949,0.549034015494767
19299.9999999996,90.1930422749245,1.00000000079285,0.542887744696358
19399.9999999982,89.7871571904498,1.00000000079391,0.540865266622073
19499.9999999967,89.3887351162048,1.00000000086205,0.535802150139732
19599.9999999953,88.9964717041267,1.00000000089688,0.536344845703704
19699.9999999938,88.6096858762839,1.00000000086095,0.535839193469796
19799.9999999924,88.2290571378055,1.00000000084062,0.541634811881948
19899.9999999909,87.8521134954271,1.00000000093147,0.555792571697551
19999.9999999895,87.4769727231526,1.00000000093183,0.564673693380486
20099.999999988,87.1047361436696,1.00000000093523,0.563005704638774
20199.9999999865,86.7380635355852,1.0000000008596,0.547187951537229
20299.9999999851,86.3783276230492,1.00000000088753,0.5478463828942
20399.9999999836,86.0277151338965,1.00000000083072,0.546435835568995
20499.9999999822,85.6861488013272,1.00000000083173,0.545703925051224
20599.9999999807,85.352240883248,1.0000000008549,0.535627509141808
20699.9999999793,85.0255927080062,1.00000000084831,0.53052296797278
20799.9999999778,84.7047644006626,1.00000000088752,0.530722050623664
20899.9999999764,84.3887086233144,1.00000000089628,0.536830991203714
20999.9999999749,84.0756274834806,1.00000000089409,0.545267339730396
21099.9999999734,83.7645945663533,1.00000000091857,0.551726606603028
21199.999999972,83.4531560853122,1.00000000093749,0.558479560193085
21299.9999999705,83.1433848591395,1.00000000089662,0.560030945642434
21399.9999999691,82.8377525766345,1.00000000086123,0.553232624579085
21499.9999999676,82.5381196544818,1.00000000085092,0.544088515977952
21599.9999999662,82.2451050433895,1.00000000085828,0.550240991610575
21699.9999999647,81.9599107552527,1.00000000081385,0.551463215920626
21799.9999999633,81.6826838890082,1.00000000086118,0.545089637347592
21899.9999999618,81.4133335987167,1.00000000084729,0.538181108671898
21999.9999999603,81.1511283369943,1.00000000082538,0.531965971730119
22099.9999999589,80.8953644440599,1.00000000087852,0.534257107118173
22199.9999999574,80.6431175336561,1.00000000092235,0.539911380017683
22299.999999956,80.3934005703121,1.00000000090445,0.545628049933544
22399.9999999545,80.1452779726054,1.00000000090363,0.554585604662832
22499.9999999531,79.8974124825096,1.0000000009135,0.555163923945328
22599.9999999516,79.648512269604,1.00000000094403,0.557641320645204
22699.9999999502,79.4003929182754,1.00000000088777,0.559307653479827
22799.9999999487,79.1558523171464,1.00000000084997,0.554167865102942
22899.9999999473,78.9163542175245,1.00000000085465,0.549622178237631
22999.9999999458,78.6825606761113,1.00000000086999,0.554283734500258
23099.9999999443,78.454299771636,1.00000000086458,0.558998910776458
23199.9999999429,78.2339893189219,1.00000000079424,0.550364805250611
23299.9999999414,78.0224743989115,1.0000000008014,0.540676016379598
23399.99999994,77.8187784992586,1.00000000084165,0.539493107282473
23499.9999999385,77.6203627907418,1.00000000088446,0.540413761881752
23599.9999999371,77.426975536876,1.00000000083177,0.536964703316863
23699.9999999356,77.237646421892,1.00000000086086,0.543626451252525
23799.9999999342,77.0498903928071,1.00000000088965,0.550013895158205
23899.9999999327,76.8632487639613,1.00000000090645,0.558453365538726
23999.9999999312,76.6763809711626,1.00000000096104,0.562275139515731
24099.9999999298,76.4872685010038,1.00000000095741,0.561778959534193
24199.9999999283,76.2971015330453,1.00000000089508,0.556290991611972
24299.9999999269,76.1083721226666,1.00000000087688,0.555529277601364
24399.9999999254,75.9229711709137,1.00000000088256,0.558138920840322
24499.999999924,75.7406886923978,1.00000000086665,0.555564140563871
24599.9999999225,75.5613963052534,1.00000000090413,0.557138936403135
24699.9999999211,75.3858183932741,1.00000000090948,0.560354553349331
24799.9999999196,75.215842427075,1.00000000084921,0.555400085695828
24899.9999999181,75.0543238970408,1.00000000080948,0.543654141230845
24999.9999999167,74.9021014408392,1.00000000080141,0.540509355575748
25099.9999999152,74.7555849522275,1.00000000087905,0.543749020151564
25199.9999999138,74.6134693855395,1.00000000087025,0.545227331968703
25299.9999999123,74.4757746549206,1.00000000088446,0.543452869995954
25399.9999999109,74.3417074655199,1.00000000086176,0.549767872575654
25499.9999999094,74.2078578116639,1.00000000091729,0.559541173156931
25599.999999908,74.0720269465832,1.00000000095668,0.567785091602458
25699.9999999065,73.934150796724,1.00000000093538,0.57135242933784
25799.9999999051,73.7946246197957,1.00000000088756,0.568338188636373
25899.9999999036,73.6547674983115,1.00000000089668,0.563629870302754
25999.9999999021,73.5157835447686,1.00000000089726,0.562673738498791
26099.9999999007,73.3775940429988,1.00000000085474,0.563562352657165
26199.9999998992,73.2408980550287,1.00000000090302,0.566067173687923
26299.9999998978,73.1050075063343,1.00000000089348,0.569745820166638
26399.9999998963,72.9702899127042,1.00000000091766,0.564081423077415
26499.9999998949,72.8379382297213,1.00000000088923,0.559591025923394
26599.9999998934,72.7094556508282,1.00000000091478,0.561385088585317
26699.999999892,72.5858696466262,1.00000000087342,0.558728137866263
26799.9999998905,72.4687242983723,1.00000000083777,0.548639238231443
26899.999999889,72.3596023417144,1.00000000082689,0.544569146945854
26999.9999998876,72.2579199933147,1.00000000084239,0.545107870445286
27099.9999998861,72.1613758040755,1.00000000089115,0.549923951334198
27199.9999998847,72.0677701991662,1.00000000092183,0.553460704027816
27299.9999998832,71.9754623745911,1.00000000090481,0.558234644959351
27399.9999998818,71.8837895127915,1.00000000091376,0.567749682654743
27499.9999998803,71.7901455513504,1.00000000095743,0.575125327083
27599.9999998789,71.6925899943622,1.00000000096455,0.574505835641869
27699.9999998774,71.591479724677,1.00000000092731,0.577864113549975
27799.9999998759,71.4897896934058,1.00000000085739,0.574086866002404
27899.9999998745,71.3898452042978,1.00000000091613,0.575005150003411
27999.999999873,71.2902111781494,1.00000000092511,0.575171200835082
28099.9999998716,71.191178591893,1.00000000088754,0.575394438522864
28199.9999998701,71.092541751568,1.00000000094349,0.578045045479627
28299.9999998687,70.9933885965819,1.00000000091553,0.58173356338229
28399.9999998672,70.8946495402246,1.00000000091124,0.584919335346758
28499.9999998658,70.7967721858609,1.00000000092839,0.582882756403123
28599.9999998643,70.7007116549275,1.00000000089448,0.5760234252524
28699.9999998629,70.6079113242283,1.00000000088232,0.56967091345978
28799.9999998614,70.518472548397,1.00000000090822,0.566729099171922
28899.9999998599,70.4328613212492,1.00000000088468,0.56523074974469
