Time,AGPnorm,Energy,Entropy
0,0,1,-7.4250850034854e-17
99.9999999999986,0.00030202095653742,1.00000000000226,0.0011453469140777
199.999999999993,0.00190021343515067,1.00000000000163,0.00352402094003741
300,0.00405836582498289,0.999999999999244,0.00657114981263078
400.000000000022,0.00626867499884668,0.999999999999112,0.0103066964809354
500.000000000045,0.00894683414338633,1.00000000000137,0.0149413489476543
600.000000000068,0.0124443075038859,1.00000000000223,0.0203664390822434
700.000000000091,0.0164112534892558,1.00000000000029,0.0262475960277254
800.000000000113,0.0209852125439009,0.999999999998886,0.0324627479047159
900.000000000136,0.0257369000718617,1.00000000000027,0.0392656934102317
1000.00000000016,0.0308848160775815,1.00000000000211,0.0467717882018452
1100.0000000001,0.0365417092482572,1.00000000000128,0.0548364240809912
1200,0.0428211071294043,0.999999999999377,0.0632188342893434
1299.99999999991,0.0488950268634945,0.999999999999458,0.0721021951329399
1399.99999999982,0.0555337517352967,1.00000000000146,0.08170948674272
1499.99999999973,0.0622365116011431,1.00000000000177,0.0920664630353525
1599.99999999964,0.0693317356489897,1.00000000000035,0.102987661496885
1699.99999999955,0.0764750710106885,0.999999999999247,0.114551587436285
1799.99999999946,0.0838033573225705,1.00000000000064,0.127015615004152
1899.99999999937,0.0909486246613709,1.00000000000215,0.140713044383294
1999.99999999928,0.0983338631788056,1.0000000000018,0.15553743734438
2099.99999999919,0.106498414869848,1.00000000000154,0.171670984156292
2199.99999999909,0.114161623149429,1.00000000000436,0.189287883117728
2299.999999999,0.121429492826111,1.0000000000103,0.208798776640913
2399.99999999891,0.129667673126005,1.00000000001893,0.229995646399856
2499.99999999882,0.145348115708223,1.00000000003173,0.252308797165066
2599.99999999873,0.169138248336948,1.00000000005137,0.275099475442599
2699.99999999864,0.202260243047813,1.00000000007461,0.298049626814396
2799.99999999855,0.259719983615266,1.00000000010382,0.320678802786893
2899.99999999846,0.375586911152078,1.00000000012906,0.342106682828765
2999.99999999837,0.575077516472358,1.00000000015855,0.362173676640336
3099.99999999828,0.871657492959676,1.00000000019641,0.380639796957275
3199.99999999819,1.2998051544692,1.00000000023543,0.397892109251934
3299.99999999809,1.92605958410466,1.00000000024442,0.413637702707052
3399.999999998,2.80655016959098,1.0000000002742,0.427803591422364
3499.99999999791,3.96170363614568,1.00000000028895,0.440569090624482
3599.99999999782,5.41421655646169,1.00000000031946,0.452339513004737
3699.99999999773,7.22414624234206,1.00000000036624,0.462813125182885
3799.99999999764,9.44870180177074,1.00000000036412,0.472236050936677
3899.99999999755,12.104153735991,1.00000000037734,0.48072693771796
3999.99999999746,15.178986791034,1.00000000040183,0.488386320086765
4099.99999999738,18.6900737200599,1.00000000038494,0.495262093633085
4199.99999999775,22.6734180084518,1.00000000041251,0.500989808073212
4299.99999999811,27.1303133593685,1.0000000004236,0.506360334892491
4399.99999999848,32.0273153006235,1.00000000041623,0.51106263168553
4499.99999999884,37.3354015002098,1.00000000041434,0.514968268096434
4599.9999999992,43.0593291367974,1.00000000042922,0.518371472928915
4699.99999999957,49.185370815459,1.00000000042862,0.5213289534207
4799.99999999993,55.6780600281877,1.00000000040895,0.523656477117748
4900.00000000029,62.4830725237701,1.0000000004486,0.525699755528305
5000.00000000066,69.5726852764439,1.000000000418,0.527478593122543
5100.00000000102,76.9278368192597,1.00000000042446,0.528629767030965
5200.00000000139,84.5132553147904,1.00000000040824,0.529529858264431
5300.00000000175,92.2788045308263,1.00000000044,0.530391419393
5400.00000000211,100.177370591422,1.00000000040101,0.530968652031946
5500.00000000248,108.183378782897,1.00000000042293,0.530780281286383
5600.00000000284,116.268697962333,1.00000000041197,0.531467085576894
5700.00000000321,124.395926830607,1.00000000040418,0.531133453045371
5800.00000000357,132.517266502569,1.00000000039351,0.530345303604148
5900.00000000393,140.599983595263,1.00000000038727,0.530000212758275
6000.0000000043,148.62477054859,1.00000000040159,0.529873530435416
6100.00000000466,156.564384971424,1.00000000037443,0.528194623494643
6200.00000000502,164.38638443475,1.00000000037823,0.526931524269785
6300.00000000539,172.056433149032,1.00000000036863,0.526628198504025
6400.00000000575,179.556301319603,1.00000000038282,0.525985831174598
6500.00000000612,186.872231905653,1.00000000036864,0.524268414821179
6600.00000000648,193.98502447835,1.00000000036453,0.522337153868078
6700.00000000684,200.871082223584,1.00000000034738,0.521484874118232
6800.00000000721,207.511734808444,1.00000000032984,0.520809801851997
6900.00000000757,213.902680582476,1.00000000033846,0.519605177574526
7000.00000000793,220.032871760997,1.00000000032591,0.517612484523877
7100.0000000083,225.89354643608,1.00000000033721,0.516339824282041
7200.00000000866,231.472343923298,1.00000000032461,0.515575568910561
7300.00000000903,236.764160909622,1.00000000031986,0.514491522844241
7400.00000000939,241.76872171392,1.00000000031034,0.51263224420408
7500.00000000975,246.483677746608,1.00000000029535,0.51043928206456
7600.00000001012,250.905221169812,1.00000000030637,0.509538289931578
7700.00000001048,255.031960050338,1.00000000030283,0.510366793527626
7800.00000001084,258.870977803123,1.00000000028136,0.510636646309292
7900.00000001121,262.422686989024,1.00000000028935,0.507901335617476
8000.00000001157,265.685733928814,1.000000000273,0.502998208741568
8100.00000001194,268.654139904706,1.00000000027183,0.499020547376618
8200.0000000123,271.333373719678,1.00000000025945,0.500943940757181
8300.00000001266,273.742524282535,1.00000000026303,0.507512547062645
8400.00000001303,275.901603234895,1.00000000026703,0.511634937664988
8500.00000001339,277.819912576066,1.00000000025969,0.50870093475961
8600.00000001376,279.48627240888,1.00000000023895,0.497715931486686
8700.00000001412,280.883994657777,1.00000000023505,0.485397830478607
8800.00000001448,282.008915398182,1.00000000022906,0.483794737753139
8900.00000001485,282.885407839309,1.00000000023434,0.496127751829661
9000.00000001521,283.558044744069,1.0000000002406,0.512918921684855
9100.00000001557,284.071723277749,1.00000000027471,0.522467990328127
9200.00000001594,284.442476317373,1.00000000025782,0.517072047920901
9300.0000000163,284.649040710803,1.00000000023997,0.496236110361783
9400.00000001667,284.646537679994,1.00000000018817,0.46995609385437
9500.00000001703,284.4007875649,1.00000000016663,0.457231490724105
9600.00000001739,283.930208618114,1.00000000018594,0.472276019821276
9700.00000001776,283.299904485046,1.0000000002219,0.502171554890097
9800.00000001812,282.587328325334,1.00000000027534,0.526902551597155
9900.00000001848,281.84475350408,1.00000000029439,0.537088990186274
10000.0000000188,281.077966729576,1.00000000029474,0.527953170965576
10100.0000000192,280.246042530362,1.0000000002431,0.496978183443434
10200.0000000196,279.28140171629,1.00000000017675,0.453569033245642
10300.0000000199,278.131458905676,1.00000000012749,0.421591713846993
10400.0000000203,276.79471606173,1.00000000013072,0.427602851288308
10500.0000000207,275.327061527075,1.00000000019178,0.467021964981411
10600.000000021,273.807585329134,1.0000000002716,0.50841940326386
10700.0000000214,272.305033114064,1.00000000031947,0.535154197820577
10800.0000000218,270.858530543146,1.00000000033857,0.545690964480265
10900.0000000221,269.467238674209,1.00000000031855,0.538857178612602
11000.0000000225,268.095780232137,1.0000000002777,0.50823625230113
11100.0000000229,266.68079651761,1.00000000020525,0.455944649065267
11200.0000000232,265.159834720275,1.00000000012941,0.398581853100708
11300.0000000236,263.503807093151,1.00000000009245,0.367578087814234
11400.0000000239,261.731610728451,1.00000000012108,0.388497870737487
11500.0000000243,259.895357959267,1.0000000001935,0.442886642811468
11600.0000000247,258.053263314511,1.00000000027328,0.493900091537941
11700.000000025,256.252310444534,1.000000000336,0.526336770362218
11800.0000000254,254.521321284016,1.00000000037621,0.54184294583547
11900.0000000258,252.870476302972,1.0000000003774,0.545504976582273
12000.0000000261,251.28995864,1.00000000033311,0.535025647630402
12100.0000000265,249.748536754907,1.00000000029893,0.503393916296681
12200.0000000269,248.200915763855,1.00000000023106,0.449676570814975
12300.0000000272,246.602787794338,1.00000000015351,0.383971401024235
12400.0000000276,244.928768640368,1.0000000000929,0.332295847410422
12500.0000000279,243.182753789838,1.00000000008338,0.323635096928887
12600.0000000283,241.392860267975,1.00000000013561,0.361620358722282
12700.0000000287,239.592417776523,1.00000000020696,0.421434046235386
12800.000000029,237.807603320564,1.00000000027244,0.47467751082771
12900.0000000294,236.057761331334,1.00000000032016,0.508404256109929
13000.0000000298,234.357790172089,1.00000000036348,0.524803227043486
13100.0000000301,232.716978402595,1.00000000036605,0.532435388326205
13200.0000000305,231.136711153747,1.00000000035748,0.534766441904836
13300.0000000309,229.609659957901,1.00000000033143,0.528202629414502
13400.0000000312,228.119365187309,1.00000000029341,0.50652681482365
13500.0000000316,226.643558126514,1.00000000024711,0.467439170155451
13600.0000000319,225.15946759439,1.00000000020225,0.414851419222452
13700.0000000323,223.651522389823,1.00000000014305,0.359549291984166
13800.0000000327,222.116867085242,1.00000000010994,0.319489873999506
13900.000000033,220.565349251691,1.00000000009448,0.310488997977016
14000.0000000334,219.013672224961,1.0000000001207,0.331754083040435
14100.0000000338,217.475464777687,1.00000000016754,0.376783520298748
14200.0000000341,215.956284575791,1.00000000023299,0.430841465418528
14300.0000000345,214.456526756883,1.00000000026749,0.474215403186511
14400.0000000349,212.976416379779,1.00000000030988,0.497437945213373
14500.0000000352,211.517639686742,1.0000000003322,0.504321994152882
14600.0000000356,210.083119997068,1.00000000035334,0.505414630578411
14700.0000000359,208.676508521432,1.00000000034494,0.51134888711228
14800.0000000363,207.300517352756,1.00000000033861,0.521761681739378
14900.0000000367,205.954628402095,1.00000000032918,0.527346419592757
15000.000000037,204.633921008972,1.00000000028168,0.519501247538443
15100.0000000374,203.330502436083,1.00000000026462,0.494608753264019
15200.0000000378,202.036049794974,1.00000000021777,0.455593568507143
15300.0000000381,200.745418089024,1.00000000016699,0.411332775945996
15400.0000000385,199.45977184485,1.00000000014523,0.371142015490947
15500.0000000389,198.185880007191,1.00000000013653,0.341387621554967
15600.0000000392,196.932890587273,1.00000000013448,0.327156401032169
15700.0000000396,195.709107386391,1.00000000014242,0.335320761789261
15800.0000000399,194.519624893984,1.00000000015597,0.358266747815903
15900.0000000403,193.363830143096,1.00000000018087,0.386559472157355
16000.0000000407,192.234654723841,1.00000000021662,0.418886041256626
16100.000000041,191.121866026338,1.00000000025988,0.45543573166529
16200.0000000414,190.017433720179,1.00000000026567,0.486385189846992
16300.0000000418,188.917881524528,1.0000000002728,0.501798707709135
16400.0000000418,187.823644883572,1.00000000025974,0.498461486484821
16500.0000000404,186.73596894666,1.00000000024404,0.484087066399434
16600.0000000389,185.654811864484,1.00000000026053,0.473246468688513
16700.0000000375,184.57858922656,1.00000000029931,0.477137631450396
16800.000000036,183.505748317167,1.00000000031526,0.494342844654861
16900.0000000346,182.436690373142,1.00000000035242,0.516897183511989
17000.0000000331,181.374091508984,1.00000000034153,0.531933432077984
17100.0000000317,180.321036329519,1.00000000032094,0.53263907097589
17200.0000000302,179.279578453125,1.00000000028039,0.518073059955437
17300.0000000287,178.25073364595,1.00000000024872,0.489319059095092
17400.0000000273,177.236929663982,1.00000000018611,0.450211870092948
17500.0000000258,176.243866869908,1.00000000014284,0.406845073753837
17600.0000000244,175.28063094767,1.0000000001232,0.369795632772255
17700.0000000229,174.357038382431,1.00000000010932,0.344894908533154
17800.0000000215,173.478726871661,1.0000000001372,0.335052278496275
17900.00000002,172.645928560721,1.00000000016836,0.337818563189859
18000.0000000186,171.855011744918,1.00000000019231,0.35338941398755
18100.0000000171,171.101502592688,1.00000000020489,0.378449301146742
18200.0000000156,170.378688562828,1.00000000022296,0.405867667255494
18300.0000000142,169.678522850053,1.00000000023112,0.429974729567623
18400.0000000127,168.98868130988,1.00000000026461,0.449615333347686
18500.0000000113,168.298460409626,1.00000000028989,0.468091819943157
18600.0000000098,167.599585568708,1.00000000029404,0.484464028542701
18700.0000000084,166.890074038214,1.00000000028915,0.498294859988997
18800.0000000069,166.173548806989,1.00000000026175,0.503949518495099
18900.0000000055,165.456821546942,1.00000000022676,0.497640033532676
19000.000000004,164.74784821763,1.00000000020208,0.481592560807597
19100.0000000026,164.050481363066,1.0000000001844,0.464608707715693
19200.0000000011,163.363530672877,1.00000000021375,0.45296630552799
19299.9999999996,162.679053788141,1.00000000024502,0.451213159293203
19399.9999999982,161.98730729843,1.00000000029212,0.461811362522554
19499.9999999967,161.280052463649,1.00000000032378,0.47826851408814
19599.9999999953,160.554222788789,1.00000000034539,0.497243904969914
19699.9999999938,159.811829926002,1.00000000034692,0.515854960194743
19799.9999999924,159.058364809123,1.00000000035423,0.528860015229618
19899.9999999909,158.300320056435,1.00000000032995,0.532585651574526
19999.9999999895,157.543496645264,1.00000000029162,0.526029324129674
20099.999999988,156.793365292446,1.00000000025055,0.509192130461215
20199.9999999865,156.055242643966,1.000000000231,0.48343062025823
20299.9999999851,155.336104487973,1.00000000018889,0.452878817877523
20399.9999999836,154.644328551743,1.00000000016458,0.422250780927572
20499.9999999822,153.98968218282,1.00000000013448,0.395146018742162
20599.9999999807,153.382609142916,1.00000000012009,0.371026277126965
20699.9999999793,152.831262207864,1.0000000001202,0.351829902001208
20799.9999999778,152.338992638412,1.00000000012649,0.341383064247874
20899.9999999764,151.902724704277,1.00000000015842,0.343213875559986
20999.9999999749,151.513659260996,1.00000000018356,0.358352361611427
21099.9999999734,151.159214455347,1.00000000022437,0.381937531686317
21199.999999972,150.827256138831,1.00000000023307,0.405778962551334
21299.9999999705,150.509500402681,1.00000000024379,0.42611506451962
21399.9999999691,150.200257383547,1.00000000025391,0.443003978254346
21499.9999999676,149.895974290529,1.00000000024789,0.456413935613795
21599.9999999662,149.593669903053,1.00000000024848,0.465754702358898
21699.9999999647,149.288942736306,1.00000000024499,0.472721020888034
21799.9999999633,148.977055092707,1.00000000025134,0.47841844312487
21899.9999999618,148.653687450184,1.0000000002655,0.484806420027292
21999.9999999603,148.314213261322,1.00000000028017,0.49261277421462
22099.9999999589,147.955440906391,1.00000000028575,0.501389896235336
22199.9999999574,147.577982967753,1.00000000028289,0.510440068146409
22299.999999956,147.184494262132,1.00000000027822,0.517290239988451
22399.9999999545,146.780714441753,1.00000000025327,0.518485613078078
22499.9999999531,146.374106216665,1.00000000022325,0.511832232678692
22599.9999999516,145.971214708711,1.00000000020746,0.501298250032086
22699.9999999502,145.576211282356,1.00000000019485,0.492273478393426
22799.9999999487,145.189083128903,1.00000000020578,0.48707112599989
22899.9999999473,144.806082122695,1.00000000021337,0.484686708345554
22999.9999999458,144.421016739669,1.00000000022952,0.481158047499863
23099.9999999443,144.029035908544,1.00000000024355,0.477065047751633
23199.9999999429,143.626575774684,1.0000000002626,0.475890995403215
23299.9999999414,143.21093162378,1.00000000027619,0.478201508753123
23399.99999994,142.779826564263,1.00000000030192,0.484108468440808
23499.9999999385,142.330561623904,1.00000000031262,0.495893554107126
23599.9999999371,141.862219794886,1.00000000033033,0.510844605323459
23699.9999999356,141.375891410387,1.00000000033185,0.524992053143601
23799.9999999342,140.87519210728,1.00000000032172,0.535295497215865
23899.9999999327,140.365141440309,1.00000000032768,0.539347205875917
23999.9999999312,139.851661605003,1.00000000030791,0.535171295282639
24099.9999999298,139.340881403943,1.00000000026824,0.522659638568586
24199.9999999283,138.839261309241,1.00000000022657,0.503353494262247
24299.9999999269,138.354554161003,1.00000000019937,0.479536294567749
24399.9999999254,137.895751597764,1.00000000017235,0.453120595691142
24499.999999924,137.472684707371,1.00000000013687,0.427075370378157
24599.9999999225,137.09439175407,1.00000000012765,0.406162543322423
24699.9999999211,136.7678003123,1.0000000001241,0.390115312767789
24799.9999999196,136.496205065354,1.00000000014114,0.37771605852269
24899.9999999181,136.279555722422,1.00000000014897,0.369528611021828
24999.9999999167,136.116306740297,1.00000000016285,0.365215568799804
25099.9999999152,136.004220989656,1.00000000017773,0.36558381999775
25199.9999999138,135.939146020772,1.00000000017268,0.370068946018606
25299.9999999123,135.913745526157,1.00000000019534,0.378914353594131
25399.9999999109,135.917032125104,1.00000000021177,0.393563900438962
25499.9999999094,135.935862841456,1.00000000023807,0.411111948645512
25599.999999908,135.957154956217,1.00000000027077,0.429175277768243
25699.9999999065,135.970839594559,1.00000000028349,0.444935528501513
25799.9999999051,135.970775659475,1.00000000027877,0.458185923630354
25899.9999999036,135.955413235277,1.00000000027434,0.47002322170792
25999.9999999021,135.926604623442,1.00000000027225,0.480753874077763
26099.9999999007,135.88844108963,1.00000000025698,0.4891552963123
26199.9999998992,135.845636194622,1.0000000002413,0.494272398231353
26299.9999998978,135.802933043704,1.0000000002205,0.496438964488392
26399.9999998963,135.763967380657,1.00000000021333,0.496410141855446
26499.9999998949,135.730269678248,1.00000000020201,0.496113669064438
26599.9999998934,135.700305386848,1.00000000021508,0.496392782074332
26699.999999892,135.669119173531,1.00000000022099,0.497336341036864
26799.9999998905,135.629550037478,1.00000000024501,0.500212579835727
26899.999999889,135.574054024598,1.0000000002638,0.505821044761461
26999.9999998876,135.496595763037,1.00000000027447,0.51270203171054
27099.9999998861,135.393729757538,1.0000000002772,0.516360800131431
27199.9999998847,135.264687368512,1.00000000028105,0.515907012866277
27299.9999998832,135.110330886729,1.00000000028711,0.512274280645841
27399.9999998818,134.932370548852,1.00000000028456,0.509016648686968
27499.9999998803,134.733202146568,1.00000000027892,0.510501929679121
27599.9999998789,134.516046044272,1.00000000028019,0.517991572841482
27699.9999998774,134.285271196099,1.00000000026958,0.524382794148678
27799.9999998759,134.045976355674,1.00000000024995,0.523639421761695
27899.9999998745,133.803985876046,1.00000000023643,0.51699005594489
27999.999999873,133.564719956694,1.00000000021332,0.508319545504957
28099.9999998716,133.332040852407,1.00000000019741,0.501450099330385
28199.9999998701,133.107854464127,1.00000000019826,0.499187604332383
28299.9999998687,132.892244924758,1.00000000019738,0.500004648418983
28399.9999998672,132.683864651499,1.0000000001945,0.502110260629901
28499.9999998658,132.479874204476,1.00000000020655,0.504122247085629
28599.9999998643,132.276664731122,1.00000000022289,0.505573780388888
28699.9999998629,132.070683271739,1.00000000023689,0.507080220451235
28799.9999998614,131.858315772181,1.00000000024435,0.510146830886482
28899.9999998599,131.636447739809,1.0000000002437,0.513206743702158
28999.9999998585,131.402405718731,1.00000000026535,0.512274733670603
