Time,AGPnorm,Energy,Entropy
0,0,1,-7.17338720675707e-17
99.9999999999986,0.0017279190559678,1.00000000000062,0.00529878974496275
199.999999999993,0.0114580528416094,1.00000000000153,0.01569968853042
300,0.0238769140125491,1.00000000000149,0.0290087837587458
400.000000000022,0.0351274582053137,1.00000000000052,0.0457333062229306
500.000000000045,0.0501208941470859,0.999999999999951,0.0660951957119615
600.000000000068,0.0675845525234664,1.0000000000006,0.0900843704300028
700.000000000091,0.0858474057737263,1.00000000000213,0.11812397560933
800.000000000113,0.10198573769482,1.00000000000246,0.151692900080604
900.000000000136,0.12030080439674,1.0000000000191,0.194316349659093
1000.00000000016,0.134757466540849,1.00000000012986,0.248867166895193
1100.0000000001,0.161796676344222,1.00000000042501,0.308260829632653
1200,0.238018187459592,1.00000000083965,0.363986809825645
1299.99999999991,0.402775643719836,1.00000000126899,0.41170201737744
1399.99999999982,0.752147972085131,1.00000000159298,0.452671703922368
1499.99999999973,1.41337845458682,1.00000000198993,0.485285408905351
1599.99999999964,2.46001624773029,1.0000000020784,0.5131362303454
1699.99999999955,3.91988951090526,1.0000000022402,0.535199440592638
1799.99999999946,5.80775069586615,1.0000000023221,0.552676519089419
1899.99999999937,8.0950888151546,1.0000000024666,0.565037003360554
1999.99999999928,10.6981535609469,1.00000000246641,0.575828204826259
2099.99999999919,13.5579510728007,1.00000000242377,0.583149923820891
2199.99999999909,16.613050906144,1.00000000231239,0.588114087878323
2299.999999999,19.7660056017892,1.00000000227171,0.590327721578642
2399.99999999891,22.9111755123756,1.00000000226089,0.592085448155033
2499.99999999882,25.9779933802602,1.00000000215683,0.59309022806968
2599.99999999873,28.9370892446521,1.00000000207375,0.592791618080443
2699.99999999864,31.7357283447418,1.00000000205103,0.590504320223949
2799.99999999855,34.3158399160724,1.00000000200821,0.588913849801759
2899.99999999846,36.6402844384843,1.00000000192137,0.58829670900412
2999.99999999837,38.7001504824697,1.00000000179238,0.585938833836739
3099.99999999828,40.5029141392126,1.00000000171817,0.581683707626291
3199.99999999819,42.0367114184362,1.00000000160244,0.579513702161454
3299.99999999809,43.2945266284627,1.00000000164828,0.579242695083472
3399.999999998,44.2837876961944,1.00000000149865,0.575972568012183
3499.99999999791,45.0272402294802,1.0000000014957,0.577861529995767
3599.99999999782,45.5405670619826,1.00000000142665,0.571406219278205
3699.99999999773,45.8461134314969,1.0000000014315,0.574513470391943
3799.99999999764,45.9532375914064,1.00000000129727,0.565922480420735
3899.99999999755,45.8975975788578,1.00000000145463,0.577574042052967
3999.99999999746,45.694205398274,1.00000000112976,0.55110295435565
4099.99999999738,45.3900175749885,1.00000000153823,0.57981387097206
4199.99999999775,44.9856284579993,1.00000000108928,0.536607658818783
4299.99999999811,44.4995301516671,1.0000000015227,0.583592506317924
4399.99999999848,43.9773118895387,1.00000000118864,0.538898186974151
4499.99999999884,43.3769277079451,1.00000000149937,0.553189190087764
4599.9999999992,42.7834742025931,1.00000000176396,0.569970409143675
4699.99999999957,42.1567437907911,1.00000000113887,0.51237514690945
4799.99999999993,41.4956957733597,1.00000000164158,0.566282917695846
4900.00000000029,40.8621687239959,1.00000000162298,0.544844616551329
5000.00000000066,40.2093726530325,1.00000000115499,0.501139098089463
5100.00000000102,39.5407389562344,1.00000000163158,0.544107608830681
5200.00000000139,38.9027199385424,1.00000000169125,0.551096305725943
5300.00000000175,38.2708217426924,1.00000000111001,0.494149881722575
5400.00000000211,37.6261985269089,1.00000000131803,0.510910428081389
5500.00000000248,36.9977335988929,1.00000000182474,0.551927070703566
5600.00000000284,36.3947521620811,1.00000000157881,0.516888300116222
5700.00000000321,35.7995854657642,1.00000000113435,0.493717915994069
5800.00000000357,35.2078593348556,1.00000000140255,0.514238800724254
5900.00000000393,34.6306661291771,1.00000000157035,0.534565538591412
6000.0000000043,34.073690106034,1.00000000164926,0.524779316578457
6100.00000000466,33.5323606677662,1.00000000118932,0.490176865280925
6200.00000000502,33.0050326666784,1.00000000139583,0.523517079654062
6300.00000000539,32.4908202501036,1.00000000140812,0.51879698714322
6400.00000000575,31.9923635781913,1.00000000159886,0.528250731069958
6500.00000000612,31.5088890606991,1.00000000143076,0.518003256345231
6600.00000000648,31.0428446674425,1.00000000122541,0.498093649101093
6700.00000000684,30.5958270772658,1.00000000136747,0.524105361385722
6800.00000000721,30.1613002910622,1.00000000147013,0.537404472627732
6900.00000000757,29.7438406356943,1.00000000129095,0.504291957513077
7000.00000000793,29.3423888292001,1.00000000153774,0.521211022520162
7100.0000000083,28.9499052278113,1.00000000155996,0.517183448035953
7200.00000000866,28.574626577247,1.00000000124589,0.503698681379049
7300.00000000903,28.2186470902571,1.00000000130762,0.518550539837898
7400.00000000939,27.8713220813407,1.00000000163438,0.537103507015775
7500.00000000975,27.5349261250959,1.00000000124553,0.52513265134396
7600.00000001012,27.218554580826,1.00000000127995,0.499070965528586
7700.00000001048,26.9146712571837,1.00000000160508,0.528004795491424
7800.00000001084,26.6164679025838,1.00000000154312,0.522013616394747
7900.00000001121,26.3306814353459,1.00000000132562,0.507678615873988
8000.00000001157,26.0606238810485,1.0000000013861,0.521315690149841
8100.00000001194,25.8021771431744,1.00000000157857,0.529083272985653
8200.0000000123,25.5464056863508,1.00000000158459,0.529996468986066
8300.00000001266,25.2995286840718,1.0000000013953,0.530511961498297
8400.00000001303,25.0681151813914,1.00000000133216,0.51179359987159
8500.00000001339,24.8485260439431,1.00000000148878,0.522447366787009
8600.00000001376,24.6367370807589,1.00000000159512,0.536332585321087
8700.00000001412,24.4303179601772,1.00000000150948,0.529133935454961
8800.00000001448,24.2357207412539,1.00000000137306,0.517142452424292
8900.00000001485,24.0533924665682,1.00000000146671,0.530473311441959
9000.00000001521,23.8775724497948,1.00000000146875,0.540392226951515
9100.00000001557,23.7101535653158,1.00000000141246,0.532178338384272
9200.00000001594,23.5472718125273,1.00000000141891,0.525973266346916
9300.0000000163,23.3850532243802,1.00000000157657,0.543926242477338
9400.00000001667,23.2264296725079,1.00000000144017,0.545724861040546
9500.00000001703,23.0795089177552,1.00000000131844,0.526912911481679
9600.00000001739,22.9435943881719,1.00000000153178,0.543082124097941
9700.00000001776,22.8107182247234,1.00000000162792,0.548147158503352
9800.00000001812,22.6824693572394,1.00000000151109,0.531881524969495
9900.00000001848,22.5635337969187,1.00000000133007,0.532702892475459
10000.0000000188,22.4569572625453,1.00000000143198,0.536819653211139
10100.0000000192,22.3503921980465,1.000000001627,0.54918251591524
10200.0000000196,22.2429263554884,1.00000000144801,0.54643301583086
10300.0000000199,22.1479584197169,1.0000000012683,0.527574060212061
10400.0000000203,22.0618631347851,1.00000000150878,0.542209583354168
10500.0000000207,21.971648157473,1.00000000156998,0.541527818430776
10600.000000021,21.8746842089742,1.00000000157401,0.556605235720201
10700.0000000214,21.7773339435897,1.00000000141709,0.561695665334269
10800.0000000218,21.6843827630246,1.00000000136429,0.557079781031584
10900.0000000221,21.5962842551386,1.00000000154224,0.561923020010361
11000.0000000225,21.5125189880736,1.00000000147617,0.557403416609194
11100.0000000229,21.4348456797802,1.00000000151625,0.550657502067769
11200.0000000232,21.3650264068536,1.00000000143434,0.537158966115993
11300.0000000236,21.3043552880954,1.0000000014502,0.540554308420761
11400.0000000239,21.2500198723219,1.00000000155265,0.55777503582421
11500.0000000243,21.198424060971,1.00000000152561,0.559148096321986
11600.0000000247,21.1474653325956,1.00000000161793,0.55559695607982
11700.000000025,21.0961872670106,1.0000000015124,0.55555959836336
11800.0000000254,21.0493416452123,1.00000000149804,0.553968128719407
11900.0000000258,21.0099263348937,1.00000000151347,0.550441011047543
12000.0000000261,20.9743969400267,1.00000000150729,0.560486984596537
12100.0000000265,20.9385810438338,1.00000000148777,0.565789360508143
12200.0000000269,20.9015979965279,1.0000000015644,0.565426748498644
12300.0000000272,20.8585110063059,1.00000000159339,0.576956712352613
12400.0000000276,20.8067848056779,1.00000000162165,0.585659238690942
12500.0000000279,20.7478050659957,1.00000000158458,0.59344401827162
12600.0000000283,20.6865570029305,1.00000000153519,0.593267708850043
12700.0000000287,20.6303724021886,1.00000000143367,0.58135772419408
12800.000000029,20.5811596367738,1.0000000015055,0.578149021814693
12900.0000000294,20.5391077748406,1.00000000159086,0.571228809427087
13000.0000000298,20.5052353733005,1.00000000156341,0.556949195965963
13100.0000000301,20.4780602956766,1.00000000149132,0.554083391598913
13200.0000000305,20.4573951788231,1.00000000153152,0.559717338772096
13300.0000000309,20.4407450419428,1.00000000152037,0.56770259377878
13400.0000000312,20.424103262122,1.00000000166775,0.57952574319191
13500.0000000316,20.4082295719757,1.00000000161529,0.57521223277126
13600.0000000319,20.3951836992107,1.00000000147664,0.567619992535979
13700.0000000323,20.3859099737215,1.00000000154211,0.559868490914299
13800.0000000327,20.3777461114577,1.00000000159516,0.559613366570704
13900.000000033,20.3675501686893,1.00000000152334,0.572680430416139
14000.0000000334,20.3607421411694,1.00000000142786,0.573502630416044
14100.0000000338,20.3586080130488,1.00000000154681,0.579099108710252
14200.0000000341,20.3579713403547,1.00000000159885,0.591207896287961
14300.0000000345,20.354425034545,1.00000000170627,0.60205007058744
14400.0000000349,20.3431242484842,1.00000000162464,0.604177530068475
14500.0000000352,20.3258313438792,1.00000000153598,0.607949022920606
14600.0000000356,20.3068491847459,1.00000000162235,0.597936142078683
14700.0000000359,20.2833696033583,1.00000000155963,0.597701458069882
14800.0000000363,20.2525827836583,1.00000000170775,0.603448920612301
14900.0000000367,20.215140218914,1.00000000163247,0.597194502513967
15000.000000037,20.1717462770717,1.00000000157257,0.602441823434942
15100.0000000374,20.1275034980896,1.00000000155245,0.606311060739638
15200.0000000378,20.085393161443,1.00000000151604,0.598167013263631
15300.0000000381,20.0484407787169,1.00000000154761,0.593569332333983
15400.0000000385,20.0183214009002,1.00000000156628,0.589192807489234
15500.0000000389,19.9944795374882,1.00000000156066,0.577619269169281
15600.0000000392,19.9775802920938,1.00000000163933,0.573840055929248
15700.0000000396,19.9692912257227,1.00000000152468,0.568273065628956
15800.0000000399,19.9680049508563,1.00000000163086,0.569609206334184
15900.0000000403,19.9715673453451,1.00000000160001,0.577454975406741
16000.0000000407,19.9760136041245,1.00000000163486,0.591210737997904
16100.000000041,19.982647633449,1.00000000161265,0.58445091133667
16200.0000000414,19.9869678795377,1.0000000016825,0.585217620260916
16300.0000000418,19.9924904435052,1.00000000150339,0.575952602432293
16400.0000000418,20.0007569798395,1.00000000163583,0.575788377393466
16500.0000000404,20.0109944752982,1.00000000164833,0.584060883756316
16600.0000000389,20.0209261287224,1.00000000163518,0.590073631030206
16700.0000000375,20.0312141180588,1.00000000157092,0.588157352286779
16800.000000036,20.0430225068304,1.00000000161844,0.588709393427053
16900.0000000346,20.0536894355632,1.00000000165042,0.584982819284445
17000.0000000331,20.0659109684793,1.0000000016291,0.583062813959847
17100.0000000317,20.0791928113498,1.00000000168868,0.581837171347439
17200.0000000302,20.0940515438107,1.0000000015866,0.598402147169818
17300.0000000287,20.1084379078875,1.00000000165245,0.607453968050012
17400.0000000273,20.1196709102625,1.00000000164853,0.61505699959543
17500.0000000258,20.12539450143,1.00000000172867,0.630412275811104
17600.0000000244,20.1263303764827,1.00000000168159,0.629468197374649
17700.0000000229,20.1226765905686,1.00000000166213,0.625055827642481
17800.0000000215,20.1159542575796,1.00000000166424,0.624979661939213
17900.00000002,20.1053147928404,1.00000000164061,0.627148290168567
18000.0000000186,20.0919704824311,1.00000000160483,0.627549420009966
18100.0000000171,20.0757412216438,1.00000000168622,0.633195193752692
18200.0000000156,20.0587097361827,1.00000000161615,0.632020213234221
18300.0000000142,20.0397354726609,1.00000000176253,0.637599251893034
18400.0000000127,20.0157171021023,1.00000000178162,0.638756410837516
18500.0000000113,19.9837142002378,1.00000000184377,0.638549345342064
18600.0000000098,19.9459870600682,1.00000000167839,0.629649553492536
18700.0000000084,19.9050538728544,1.00000000172036,0.630626533115594
18800.0000000069,19.8616801462377,1.00000000162836,0.623505538106283
18900.0000000055,19.8206732408188,1.00000000161579,0.621190722278962
19000.000000004,19.782821188299,1.00000000167529,0.621071562533788
19100.0000000026,19.7492124272525,1.00000000165902,0.619234906853338
19200.0000000011,19.7216459669382,1.00000000162428,0.615705849219961
19299.9999999996,19.6998840625604,1.00000000158863,0.612167123460843
19399.9999999982,19.683126639986,1.00000000165653,0.615663886320534
19499.9999999967,19.6724051654015,1.0000000016994,0.609470523169273
19599.9999999953,19.6674333934986,1.00000000163318,0.597624237797191
19699.9999999938,19.6703060177406,1.00000000156285,0.587016475592371
19799.9999999924,19.6789650826038,1.00000000162378,0.592708336852869
19899.9999999909,19.6911211148857,1.0000000016834,0.599166962172899
19999.9999999895,19.7041956250605,1.00000000171918,0.603283683075816
20099.999999988,19.7176866697012,1.000000001748,0.60752744028677
20199.9999999865,19.7329397878296,1.00000000169335,0.606857840481004
20299.9999999851,19.7495864248688,1.00000000173189,0.604533183802966
20399.9999999836,19.7667587979443,1.0000000016215,0.603315969573857
20499.9999999822,19.7852657327345,1.00000000174931,0.595124775305138
20599.9999999807,19.8049648221259,1.0000000016274,0.592937691173012
20699.9999999793,19.8268152327303,1.00000000171184,0.598868268181759
20799.9999999778,19.8487718582019,1.00000000168486,0.602932393697001
20899.9999999764,19.8696231970877,1.00000000175927,0.608673504641885
20999.9999999749,19.8894983365185,1.00000000169696,0.606672428281105
21099.9999999734,19.9089361743509,1.00000000175026,0.606142415344362
21199.999999972,19.9293012402279,1.0000000016463,0.611179119706247
21299.9999999705,19.9524777868413,1.00000000162864,0.614937023250699
21399.9999999691,19.9749620230326,1.00000000175049,0.618874844284178
21499.9999999676,19.9960307263245,1.00000000179977,0.631077980395791
21599.9999999662,20.0132511619989,1.00000000172712,0.638599104002762
21699.9999999647,20.0263008907764,1.00000000184716,0.652813867535061
21799.9999999633,20.0351743398763,1.00000000177281,0.65184848338818
21899.9999999618,20.0430212137902,1.00000000181357,0.649302798002792
21999.9999999603,20.0491215067856,1.00000000171233,0.641085479938848
22099.9999999589,20.0556966920332,1.00000000171128,0.638594470037298
22199.9999999574,20.0651201143248,1.0000000017476,0.651325077610998
22299.999999956,20.0747102891462,1.00000000177359,0.655816343883542
22399.9999999545,20.0840064552835,1.00000000175958,0.653307818240575
22499.9999999531,20.0894010909547,1.00000000191595,0.652116386689558
22599.9999999516,20.091220190024,1.00000000176368,0.651963970517558
22699.9999999502,20.0916421349017,1.00000000187302,0.654913115192344
22799.9999999487,20.0894657716313,1.00000000177849,0.652253853365948
22899.9999999473,20.0867027522062,1.00000000181044,0.654979733487178
22999.9999999458,20.0830971883959,1.00000000180464,0.64622701193387
23099.9999999443,20.0780741353938,1.00000000182558,0.645829416839253
23199.9999999429,20.0708334613846,1.00000000177239,0.637459662208769
23299.9999999414,20.061632916229,1.00000000178184,0.645813270049973
23399.99999994,20.0512031352278,1.00000000177922,0.64316735114638
23499.9999999385,20.0418250939267,1.00000000181053,0.653220757442414
23599.9999999371,20.0306350540578,1.00000000190806,0.653143425401528
23699.9999999356,20.0163233616358,1.00000000178639,0.660869999508097
23799.9999999342,20.0013911328317,1.00000000188451,0.664737585756341
23899.9999999327,19.9847384524268,1.00000000187405,0.659319675035141
23999.9999999312,19.9663297852756,1.00000000175041,0.664188080827865
24099.9999999298,19.9472144549358,1.00000000178317,0.659527571753988
24199.9999999283,19.9237356136071,1.00000000189051,0.655928649814445
24299.9999999269,19.897749323775,1.00000000174271,0.652863343411578
24399.9999999254,19.8706862391091,1.00000000177979,0.657538052377857
24499.999999924,19.842259328611,1.00000000183755,0.652841835383693
24599.9999999225,19.8130708795548,1.00000000192352,0.659810039134472
24699.9999999211,19.7818621410834,1.00000000191641,0.666115827685622
24799.9999999196,19.7476191615019,1.00000000192567,0.670109115257654
24899.9999999181,19.7098697239343,1.00000000187897,0.664371522155818
24999.9999999167,19.6704821796049,1.00000000184465,0.664674296875039
25099.9999999152,19.6308537777206,1.00000000188632,0.662929578268335
25199.9999999138,19.5930649005936,1.00000000179305,0.664387676895785
25299.9999999123,19.5577572920836,1.00000000171608,0.66312014992306
25399.9999999109,19.5253860060535,1.00000000176736,0.656556899400782
25499.9999999094,19.4959697044988,1.00000000183415,0.647009496059648
25599.999999908,19.4698189804167,1.0000000017976,0.642030328528959
25699.9999999065,19.4486638693777,1.00000000172785,0.641923895595888
25799.9999999051,19.4330834039393,1.00000000182988,0.647123964547508
25899.9999999036,19.4213117858356,1.00000000176989,0.647531849600053
25999.9999999021,19.4146257269436,1.00000000173721,0.647146949562291
26099.9999999007,19.4142589904127,1.00000000182369,0.642935452635011
26199.9999998992,19.4191249075668,1.00000000176731,0.638148367665453
26299.9999998978,19.431708008396,1.00000000175268,0.628629213468851
26399.9999998963,19.4505495944532,1.00000000188994,0.623391418072338
26499.9999998949,19.4724361705557,1.00000000192455,0.627459419400054
26599.9999998934,19.4979827910199,1.00000000178359,0.618594816674486
26699.999999892,19.5249751629694,1.0000000019489,0.630468457709663
26799.9999998905,19.550464095891,1.0000000019552,0.624264393043906
26899.999999889,19.5788522690817,1.00000000172991,0.610466561781176
26999.9999998876,19.6082735733366,1.00000000191415,0.617982153444031
27099.9999998861,19.6378896464307,1.00000000181995,0.611001077109083
27199.9999998847,19.6703924894734,1.00000000181477,0.607806271207364
27299.9999998832,19.7056150178134,1.00000000191705,0.621014057337714
27399.9999998818,19.7414968952026,1.00000000194988,0.614120285929635
27499.9999998803,19.7776520476007,1.00000000190256,0.610791933309312
27599.9999998789,19.815675076873,1.00000000188004,0.612613764824536
27699.9999998774,19.8545120817287,1.00000000196579,0.615316259239156
27799.9999998759,19.8906637208989,1.00000000199544,0.622159330202816
27899.9999998745,19.9283030507897,1.00000000194049,0.617604338775908
27999.999999873,19.9667959928666,1.00000000193753,0.617754073829735
28099.9999998716,20.0044005371696,1.00000000185816,0.617728225813892
28199.9999998701,20.0437119540991,1.00000000197993,0.620952628493489
28299.9999998687,20.0815067183532,1.00000000187989,0.620158313001797
28399.9999998672,20.1218564948368,1.00000000193998,0.624775980704741
28499.9999998658,20.1632245266624,1.0000000020567,0.631090440709474
28599.9999998643,20.2023719261694,1.00000000200554,0.639464239195281
28699.9999998629,20.2427276113301,1.00000000195061,0.641494210962626
28799.9999998614,20.2801614797184,1.0000000020863,0.646130808980009
28899.9999998599,20.3145247200515,1.00000000202094,0.646038114453749
28999.9999998585,20.3505587015889,1.00000000198721,0.656671353594962
