Time,AGPnorm,Energy,Entropy
0,0,1,-1.22731277927408e-17
99.9999999999986,4.65309558459838e-05,1.00000000000491,0.0019119820247707
199.999999999993,0.00409728016342516,1.00000000000147,0.00295902530815604
300,0.0107239080785786,1.00000000000197,0.00537171792087738
400.000000000022,0.015032678837502,1.00000000000468,0.00888015106326705
500.000000000045,0.0181234359609426,0.999999999999868,0.0120316936352726
600.000000000068,0.0252972075001397,1.0000000000045,0.0167269593219412
700.000000000091,0.031623299333251,1.00000000000224,0.0211104807468935
800.000000000113,0.0407897136327754,1.00000000000132,0.0262890098810502
900.000000000136,0.0501239565297338,1.00000000000493,0.0320419076847327
1000.00000000016,0.0581698042182771,0.999999999999979,0.0376610117146267
1100.0000000001,0.0692365126523802,1.000000000004,0.0443408908802575
1200,0.0810853926120531,1.00000000000305,0.0509254910728763
1299.99999999991,0.0925511706635702,1.0000000000007,0.0582627673292249
1399.99999999982,0.104027185722694,1.00000000000494,0.0660491156480431
1499.99999999973,0.116414902447367,1.00000000000045,0.0738636760636558
1599.99999999964,0.130382332660528,1.0000000000034,0.0828455824250307
1699.99999999955,0.144622941694514,1.00000000000362,0.0919425464773488
1799.99999999946,0.15724861619273,1.00000000000026,0.101807932524652
1899.99999999937,0.170138949514541,1.00000000000488,0.112495415439959
1999.99999999928,0.18486512291759,1.0000000000013,0.123614184202369
2099.99999999919,0.199530573629162,1.00000000000283,0.136479384862779
2199.99999999909,0.213469489340482,1.00000000000468,0.150253569620949
2299.999999999,0.226419458250658,1.00000000000361,0.165646854733437
2399.99999999891,0.240542667677218,1.00000000001595,0.18347964390236
2499.99999999882,0.25391688609466,1.00000000003533,0.202877242438582
2599.99999999873,0.270006348919966,1.00000000007195,0.224360983714483
2699.99999999864,0.283435900053775,1.000000000131,0.246239451780643
2799.99999999855,0.298442315970451,1.0000000002076,0.267829650631743
2899.99999999846,0.333328760459748,1.00000000029302,0.289988294835911
2999.99999999837,0.365223321477517,1.00000000040001,0.310872030231443
3099.99999999828,0.438731700606253,1.00000000049641,0.331539683391306
3199.99999999819,0.54508258070216,1.00000000058044,0.351270166552976
3299.99999999809,0.699001898823201,1.00000000067262,0.369953905192836
3399.999999998,0.948515734152446,1.00000000078185,0.388610536931199
3499.99999999791,1.26643489445571,1.00000000090334,0.405419148751118
3599.99999999782,1.72159004665909,1.00000000101766,0.421583255205466
3699.99999999773,2.3045798657985,1.00000000103673,0.437214509683683
3799.99999999764,3.03732040077632,1.00000000113098,0.451260058425981
3899.99999999755,3.96233711046746,1.00000000118174,0.465115006050358
3999.99999999746,5.05233960728011,1.00000000123345,0.477218925669633
4099.99999999738,6.3700123507786,1.00000000136123,0.48859835718849
4199.99999999775,7.88095073167849,1.00000000139802,0.499782550495858
4299.99999999811,9.6129025131284,1.00000000134955,0.509499762054225
4399.99999999848,11.5824613069735,1.00000000135001,0.519094816957858
4499.99999999884,13.7438202266041,1.00000000139907,0.527365776131646
4599.9999999992,16.1589527644798,1.00000000144504,0.534923139711765
4699.99999999957,18.7600298940974,1.00000000149489,0.542497098323461
4799.99999999993,21.5713587464194,1.00000000146588,0.548585006403027
4900.00000000029,24.6003444197191,1.00000000147626,0.554853689134551
5000.00000000066,27.770548800792,1.00000000147124,0.560571141156785
5100.00000000102,31.1522598342032,1.00000000145877,0.565111267097749
5200.00000000139,34.6624431542163,1.00000000148041,0.570164028313563
5300.00000000175,38.3065026783432,1.0000000014994,0.573813162171934
5400.00000000211,42.1056008177458,1.00000000146549,0.577673464929717
5500.00000000248,45.9609169187079,1.00000000153169,0.581477807373971
5600.00000000284,49.9431849964894,1.00000000141587,0.583979855174877
5700.00000000321,53.980950561525,1.0000000014449,0.586924307762259
5800.00000000357,58.0536875929244,1.00000000147555,0.58925740294366
5900.00000000393,62.2025475480135,1.0000000014258,0.590962777541892
6000.0000000043,66.3251101830356,1.00000000138558,0.593475747305811
6100.00000000466,70.4799941901987,1.00000000136744,0.59434397534507
6200.00000000502,74.6229657738426,1.00000000138229,0.596035585081383
6300.00000000539,78.713450935218,1.0000000013359,0.597556545318629
6400.00000000575,82.8043541564646,1.00000000132664,0.597821895486137
6500.00000000612,86.8067061078385,1.00000000132399,0.599238961684672
6600.00000000648,90.760707978349,1.00000000128408,0.599451273634196
6700.00000000684,94.6496440564969,1.00000000126038,0.599979644881425
6800.00000000721,98.4252747976441,1.00000000124171,0.600658710936114
6900.00000000757,102.140439978652,1.00000000123893,0.600277868288622
7000.00000000793,105.727172290339,1.0000000012645,0.600871371797978
7100.0000000083,109.210516827519,1.0000000012006,0.600496082602948
7200.00000000866,112.592042972862,1.00000000115372,0.6007295664736
7300.00000000903,115.825755131421,1.00000000117652,0.601053798965127
7400.00000000939,118.957993500782,1.00000000113655,0.600606529894628
7500.00000000975,121.942956873651,1.00000000112339,0.599842044929486
7600.00000001012,124.794890344711,1.00000000117204,0.60021377781329
7700.00000001048,127.523765430324,1.00000000108071,0.599478479315622
7800.00000001084,130.09337966161,1.00000000109726,0.599629835688176
7900.00000001121,132.540466758629,1.00000000107905,0.598481517486888
8000.00000001157,134.83964884337,1.00000000100818,0.598696704487173
8100.00000001194,136.992505280202,1.00000000105055,0.598455568324061
8200.0000000123,139.021844983796,1.00000000101178,0.596792063978065
8300.00000001266,140.891205678404,1.0000000009852,0.598155141845386
8400.00000001303,142.637824141084,1.00000000097297,0.596116615034111
8500.00000001339,144.239478085277,1.00000000097671,0.596373627499178
8600.00000001376,145.703879970218,1.00000000096409,0.595931685544337
8700.00000001412,147.044246067862,1.00000000093241,0.59453356070194
8800.00000001448,148.241744914147,1.00000000091789,0.595809567551904
8900.00000001485,149.319045158081,1.00000000086637,0.593942723178364
9000.00000001521,150.269726603826,1.00000000087991,0.594350179788788
9100.00000001557,151.093318964028,1.00000000088156,0.594417515989574
9200.00000001594,151.807919599221,1.0000000008754,0.59242106344148
9300.0000000163,152.396793124691,1.00000000084459,0.594430579168043
9400.00000001667,152.883430488291,1.0000000008388,0.592712566342528
9500.00000001703,153.260849549623,1.00000000082748,0.590814030252018
9600.00000001739,153.532919842896,1.00000000081511,0.59561893362978
9700.00000001776,153.717874296989,1.00000000080176,0.588899206813101
9800.00000001812,153.799179017697,1.00000000078706,0.590419365336613
9900.00000001848,153.803620100595,1.00000000080808,0.593596378024637
10000.0000000188,153.726674816222,1.0000000007615,0.58429720185828
10100.0000000192,153.565456836761,1.00000000079983,0.589049671652066
10200.0000000196,153.346148288516,1.00000000081272,0.591397886405465
10300.0000000199,153.054263258928,1.00000000075184,0.580531694102521
10400.0000000203,152.698695640657,1.00000000078895,0.587602647658766
10500.0000000207,152.294056563874,1.00000000084851,0.590661135067301
10600.000000021,151.834626465411,1.00000000078283,0.577157351751981
10700.0000000214,151.321927976363,1.00000000082649,0.582616785356904
10800.0000000218,150.767371712945,1.00000000090232,0.59009358546281
10900.0000000221,150.178968296992,1.00000000079543,0.577104921445605
11000.0000000225,149.542369405356,1.00000000079282,0.573600244255254
11100.0000000229,148.872871446624,1.00000000090341,0.587827789525
11200.0000000232,148.186632949853,1.00000000087217,0.580052161668418
11300.0000000236,147.463005034597,1.00000000073613,0.564170888901689
11400.0000000239,146.711357140683,1.00000000086727,0.582669897599132
11500.0000000243,145.94958213382,1.00000000087397,0.580490784308575
11600.0000000247,145.169282522503,1.00000000080767,0.570406634151004
11700.000000025,144.364521229817,1.00000000080347,0.562559365921547
11800.0000000254,143.542666996365,1.00000000093974,0.585005152687158
11900.0000000258,142.718186856891,1.00000000088346,0.572626264543344
12000.0000000261,141.883527067497,1.00000000078726,0.565201302821804
12100.0000000265,141.029560157639,1.00000000079598,0.561485069990278
12200.0000000269,140.17091512271,1.00000000092362,0.579509958721936
12300.0000000272,139.311911557222,1.00000000092651,0.568489307867811
12400.0000000276,138.449637382499,1.00000000080235,0.561583265650193
12500.0000000279,137.578054427155,1.0000000008245,0.558107233116976
12600.0000000283,136.700029638456,1.00000000091088,0.569315261065727
12700.0000000287,135.828269093711,1.00000000092977,0.572223916101576
12800.000000029,134.958004457834,1.0000000008276,0.552034892864584
12900.0000000294,134.0845147104,1.00000000085524,0.559735339920415
13000.0000000298,133.209718188311,1.00000000085738,0.556939977933546
13100.0000000301,132.335644099689,1.00000000095807,0.570778558188358
13200.0000000305,131.471441683893,1.00000000091645,0.558126878021855
13300.0000000309,130.608353161758,1.00000000078227,0.545324213100961
13400.0000000312,129.746884310922,1.00000000088105,0.561635917429206
13500.0000000316,128.888543528653,1.00000000084661,0.554303306163505
13600.0000000319,128.034316073475,1.00000000096249,0.565451098787519
13700.0000000323,127.189908797712,1.00000000092428,0.552837672561435
13800.0000000327,126.34901762839,1.00000000080741,0.540126346403715
13900.000000033,125.512842427137,1.00000000089667,0.558921082490985
14000.0000000334,124.682349015745,1.00000000087584,0.556767393792288
14100.0000000338,123.856663897245,1.00000000088104,0.554143666100045
14200.0000000341,123.039626127346,1.00000000094633,0.554352216666681
14300.0000000345,122.22906550056,1.00000000082209,0.539314537140844
14400.0000000349,121.424474880465,1.00000000085972,0.54544414107654
14500.0000000352,120.627324844564,1.00000000092719,0.561132975504252
14600.0000000356,119.836174861006,1.00000000088033,0.554001797815794
14700.0000000359,119.052545661825,1.00000000088458,0.547289618476193
14800.0000000363,118.275898368443,1.00000000086473,0.547264774696903
14900.0000000367,117.506572233302,1.0000000008459,0.541856623499568
15000.000000037,116.745216831883,1.00000000085166,0.544695588890808
15100.0000000374,115.991214981683,1.00000000086674,0.558427411050256
15200.0000000378,115.24552864292,1.00000000088403,0.556525833395606
15300.0000000381,114.506642916308,1.00000000086732,0.545211692694115
15400.0000000385,113.774859320428,1.00000000082194,0.544440872205714
15500.0000000389,113.051142147127,1.00000000087791,0.546306512825698
15600.0000000392,112.335203664973,1.00000000084989,0.548250698056663
15700.0000000396,111.628065270514,1.00000000090042,0.55057261406827
15800.0000000399,110.92910890726,1.00000000085421,0.557865626053027
15900.0000000403,110.238100265027,1.0000000008405,0.552782262206199
16000.0000000407,109.554923439988,1.00000000083372,0.543699513680734
16100.000000041,108.87936831669,1.00000000081365,0.543803883368954
16200.0000000414,108.21214760514,1.00000000084871,0.552033091211726
16300.0000000418,107.553102363178,1.00000000089301,0.554582697470548
16400.0000000418,106.902592306534,1.0000000008316,0.549473885780516
16500.0000000404,106.26080268558,1.00000000086382,0.557426114029196
16600.0000000389,105.627397689787,1.00000000082808,0.555634446225359
16700.0000000375,105.002862760557,1.00000000076642,0.543323699544147
16800.000000036,104.386487689161,1.00000000080198,0.542759402012399
16900.0000000346,103.778176839404,1.0000000008689,0.550720547612885
17000.0000000331,103.178172510232,1.00000000083663,0.553206336167494
17100.0000000317,102.586060569963,1.00000000084649,0.556239225590613
17200.0000000302,102.002082390844,1.00000000087275,0.553180365591981
17300.0000000287,101.425916206624,1.00000000087691,0.555520709733176
17400.0000000273,100.858820339895,1.00000000082124,0.552821935253589
17500.0000000258,100.301439654023,1.00000000077037,0.541182130473314
17600.0000000244,99.7530606723922,1.00000000082385,0.538004721593498
17700.0000000229,99.2119498892252,1.00000000094639,0.548890504942339
17800.0000000215,98.6780235430317,1.00000000083376,0.546511817655586
17900.00000002,98.1521004893852,1.00000000087764,0.553569625692052
18000.0000000186,97.6329871149845,1.00000000089177,0.561935453837114
18100.0000000171,97.1201163940285,1.00000000089286,0.558507881794498
18200.0000000156,96.6143127372847,1.0000000009017,0.554774654586702
18300.0000000142,96.1176234837999,1.0000000007782,0.545397913653903
18400.0000000127,95.632200875654,1.00000000074933,0.537561510058631
18500.0000000113,95.155900625193,1.00000000084967,0.537603065802662
18600.0000000098,94.6863341726125,1.00000000094705,0.542756691722335
18700.0000000084,94.222547100995,1.00000000088602,0.54339693102261
18800.0000000069,93.7662505814798,1.00000000081293,0.545131690712679
18900.0000000055,93.3159375514795,1.00000000090132,0.558094660860794
19000.000000004,92.8693117278251,1.00000000093683,0.568656712453795
19100.0000000026,92.4271938592339,1.00000000090945,0.558539489236824
19200.0000000011,91.9920234367542,1.00000000086617,0.548476155952377
19299.9999999996,91.5667818777697,1.00000000075248,0.541208129007669
19399.9999999982,91.1530722232495,1.00000000078936,0.538370762265577
19499.9999999967,90.7477741809642,1.00000000083288,0.539339078889955
19599.9999999953,90.3493762999683,1.00000000087945,0.536554293189477
19699.9999999938,89.9564885938835,1.00000000089944,0.538794977321924
19799.9999999924,89.5690119792892,1.00000000084499,0.539751927032286
19899.9999999909,89.1867197591063,1.00000000090042,0.550561010402466
19999.9999999895,88.8068169590073,1.0000000009684,0.558544658295391
20099.999999988,88.428184727801,1.00000000096736,0.566883722035105
20199.9999999865,88.0533724944972,1.00000000087134,0.555042339775084
20299.9999999851,87.6854975998978,1.00000000087955,0.542470230120498
20399.9999999836,87.3268429913137,1.00000000081833,0.541536184262689
20499.9999999822,86.9786483173482,1.0000000008221,0.541851211882677
20599.9999999807,86.6390451368565,1.00000000083378,0.535473408481064
20699.9999999793,86.3070358352595,1.00000000085331,0.533667698796359
20799.9999999778,85.9807819704135,1.00000000086714,0.532248795324804
20899.9999999764,85.6595058747242,1.00000000090401,0.535251431191672
20999.9999999749,85.3411433432672,1.00000000088879,0.542190057503152
21099.9999999734,85.0259461805294,1.00000000090704,0.549150407115201
21199.999999972,84.7112030926115,1.00000000095372,0.554308437645134
21299.9999999705,84.3964065639034,1.00000000096342,0.556107081139507
21399.9999999691,84.0838039093734,1.00000000091669,0.556933651123686
21499.9999999676,83.77629545096,1.00000000083839,0.544685895059667
21599.9999999662,83.4760851821215,1.00000000082688,0.540858383061395
21699.9999999647,83.1844638695042,1.00000000086592,0.5466924780551
21799.9999999633,82.9015579475168,1.0000000008336,0.544418063571651
21899.9999999618,82.627511939283,1.00000000082526,0.535903333192912
21999.9999999603,82.3610058234316,1.00000000081852,0.536708281870261
22099.9999999589,82.1005718036403,1.00000000086073,0.535942340343517
22199.9999999574,81.8436632156001,1.00000000089703,0.540165390790331
22299.999999956,81.5886754245858,1.00000000087458,0.542344790211704
22399.9999999545,81.3355130652586,1.00000000088105,0.550657199780414
22499.9999999531,81.0839448778053,1.00000000089626,0.551454190453276
22599.9999999516,80.8322251825832,1.00000000097105,0.554975503419009
22699.9999999502,80.5800250160575,1.00000000093283,0.554812550694183
22799.9999999487,80.3297944767925,1.00000000086257,0.555586126769418
22899.9999999473,80.0839561596674,1.00000000088057,0.552471477096233
22999.9999999458,79.8440186414073,1.0000000008402,0.548433568591875
23099.9999999443,79.6103984258736,1.00000000084484,0.55184085194192
23199.9999999429,79.3847677941241,1.00000000079401,0.549033825927858
23299.9999999414,79.1677791182295,1.00000000079497,0.541553251341196
23399.99999994,78.9604642198447,1.00000000081944,0.535288560364486
23499.9999999385,78.7596818599283,1.00000000085676,0.544323264999833
23599.9999999371,78.5621086690168,1.00000000087697,0.544146985080056
23699.9999999356,78.3677026583232,1.0000000008397,0.54404662526592
23799.9999999342,78.1747679544321,1.00000000090677,0.549657954883428
23899.9999999327,77.9825938294527,1.0000000008946,0.55433015119225
23999.9999999312,77.791719108867,1.00000000089769,0.559155528652652
24099.9999999298,77.6008424257631,1.00000000094074,0.559720571045357
24199.9999999283,77.4093631752084,1.00000000094809,0.556315806636746
24299.9999999269,77.2181752932818,1.00000000087839,0.54936232304781
24399.9999999254,77.0292797617834,1.00000000085949,0.555181348669995
24499.999999924,76.8424092868715,1.00000000085684,0.558333266279159
24599.9999999225,76.6577974384981,1.00000000093332,0.557849688335088
24699.9999999211,76.4770789432712,1.00000000088295,0.556215070760049
24799.9999999196,76.3024624622304,1.0000000008562,0.554236851588901
24899.9999999181,76.136266315818,1.0000000007925,0.54291972619669
24999.9999999167,75.9801031378223,1.00000000077702,0.538390475656042
25099.9999999152,75.831796359654,1.00000000081689,0.541731340749418
25199.9999999138,75.6885282038068,1.00000000087743,0.54872322605086
25299.9999999123,75.5474191034247,1.00000000091523,0.553991097645972
25399.9999999109,75.4073494782156,1.00000000088895,0.552580199965176
25499.9999999094,75.2675913002882,1.0000000008546,0.559068856889809
25599.999999908,75.1271892993185,1.00000000092744,0.561571644826546
25699.9999999065,74.9853723589496,1.00000000091748,0.567557723770723
25799.9999999051,74.8432214341242,1.0000000008934,0.568350511324702
25899.9999999036,74.7028834101451,1.00000000089548,0.561629627894353
25999.9999999021,74.5644660334403,1.00000000085207,0.559479488627633
26099.9999999007,74.427176925252,1.00000000087077,0.557173690467493
26199.9999998992,74.2903508888472,1.00000000090455,0.560015735428526
26299.9999998978,74.1523487773919,1.00000000094385,0.569897054092288
26399.9999998963,74.0133015798156,1.00000000093138,0.571228764383531
26499.9999998949,73.8754192388622,1.00000000090112,0.565780027039264
26599.9999998934,73.7412497196004,1.00000000083316,0.557952789326791
26699.999999892,73.6138348752202,1.00000000083578,0.555108400386384
26799.9999998905,73.493803261397,1.00000000081671,0.551019694230093
26899.999999889,73.3822679636505,1.00000000080092,0.542233238630436
26999.9999998876,73.2790362667658,1.00000000084071,0.545737335007016
27099.9999998861,73.1810632291415,1.0000000008819,0.554145067610204
27199.9999998847,73.0858034742051,1.00000000091442,0.560834117605753
27299.9999998832,72.9899905252191,1.00000000093369,0.564713008946085
27399.9999998818,72.8927928534219,1.00000000091835,0.567897429369576
27499.9999998803,72.7943436906464,1.00000000093847,0.572465087268677
27599.9999998789,72.6936397829277,1.00000000093514,0.572914120691368
27699.9999998774,72.591076697173,1.00000000095044,0.572828104540609
27799.9999998759,72.488000481738,1.00000000089601,0.572591518422165
27899.9999998745,72.387512539858,1.00000000084883,0.571350308571743
27999.999999873,72.2893359645918,1.0000000008874,0.574242377783884
28099.9999998716,72.1922476151854,1.00000000088872,0.574628230978668
28199.9999998701,72.0957436746085,1.0000000009069,0.573578776523565
28299.9999998687,71.9979616979027,1.0000000009316,0.578715211556129
28399.9999998672,71.8983860434386,1.00000000095881,0.581261620191869
28499.9999998658,71.7980587001479,1.00000000093754,0.58188718955575
28599.9999998643,71.6982490264128,1.00000000087918,0.577245764323744
28699.9999998629,71.6016269209595,1.0000000008552,0.573408071001228
28799.9999998614,71.5088841264069,1.00000000088164,0.57044989528
28899.9999998599,71.4208377964517,1.00000000086644,0.566435350945598
28999.9999998585,71.338701423294,1.00000000086369,0.563272965677728
