Time,AGPnorm,Energy,Entropy
0,0,1,-7.83237780182758e-17
99.9999999999986,0.0011248187001931,0.999999999999673,0.00385342273716275
199.999999999993,0.00789769275425184,1.0000000000013,0.011459467796951
300,0.0163122392030778,1.00000000000226,0.0213462064293483
400.000000000022,0.0246665918302226,1.00000000000102,0.0337424620237617
500.000000000045,0.0354781883891525,0.99999999999928,0.0485840597343263
600.000000000068,0.0484200860741361,1.0000000000002,0.0657250653278487
700.000000000091,0.062428528720612,1.00000000000227,0.0852543422880957
800.000000000113,0.0755029464074655,1.00000000000192,0.107345461682902
900.000000000136,0.0908731104786855,1.0000000000004,0.132990077603213
1000.00000000016,0.105748703525313,1.00000000000128,0.163372724323701
1100.0000000001,0.12145714234659,1.00000000001934,0.200770438875563
1200,0.138633391713165,1.00000000008858,0.246129030092836
1299.99999999991,0.160830374480828,1.00000000023402,0.295298821786847
1399.99999999982,0.199198232891333,1.00000000045299,0.342868657816867
1499.99999999973,0.312350418477316,1.00000000074543,0.384854847867045
1599.99999999964,0.582131993354342,1.0000000009686,0.421940125363382
1699.99999999955,1.07380826763398,1.00000000121679,0.453505238519221
1799.99999999946,1.87012048186445,1.00000000146285,0.480251733468814
1899.99999999937,3.04922819962701,1.00000000154693,0.5022094215167
1999.99999999928,4.64409825763983,1.00000000158714,0.520983379119102
2099.99999999919,6.6690420028477,1.00000000167395,0.536295443909575
2199.99999999909,9.13108942666766,1.00000000167699,0.548792355291985
2299.999999999,11.9981962192749,1.00000000168631,0.557906761705247
2399.99999999891,15.1809689231033,1.0000000017071,0.565593986463151
2499.99999999882,18.613782694616,1.00000000167383,0.571889953687181
2599.99999999873,22.2634660056548,1.00000000165743,0.576067781857271
2699.99999999864,26.0635263487853,1.00000000166163,0.578048728864436
2799.99999999855,29.9127390942004,1.00000000163711,0.579502204206931
2899.99999999846,33.7226496148959,1.00000000155996,0.581032500066425
2999.99999999837,37.4636015807838,1.00000000154792,0.580706892847186
3099.99999999828,41.1047524361821,1.00000000148505,0.579862438379276
3199.99999999819,44.5829891523722,1.00000000140478,0.578563222058362
3299.99999999809,47.8393681145001,1.00000000142892,0.577166538978305
3399.999999998,50.8520111737404,1.00000000133027,0.574382590432628
3499.99999999791,53.626798801811,1.00000000130704,0.57254729600671
3599.99999999782,56.1449925734927,1.00000000129438,0.572072419193884
3699.99999999773,58.3816816583041,1.00000000121523,0.568471795534142
3799.99999999764,60.3313989140424,1.00000000115872,0.566125563050136
3899.99999999755,61.9982188451871,1.00000000113979,0.566374547805409
3999.99999999746,63.4021845626926,1.00000000108444,0.563923994436274
4099.99999999738,64.5477187069612,1.00000000105622,0.558407251632735
4199.99999999775,65.4375847925886,1.0000000010759,0.565100164267924
4299.99999999811,66.0852556026322,1.00000000098229,0.553439505672374
4399.99999999848,66.504982327491,1.00000000100041,0.563940592912773
4499.99999999884,66.7485160296279,1.00000000096532,0.555789962455336
4599.9999999992,66.7885857490081,1.00000000085011,0.544721444104039
4699.99999999957,66.6849199434554,1.00000000104826,0.57332076700016
4799.99999999993,66.4544389572418,1.00000000079579,0.535334246635616
4900.00000000029,66.0641970536527,1.00000000088228,0.547199555498157
5000.00000000066,65.6214629506326,1.00000000114446,0.571678722494923
5100.00000000102,65.1043308849274,1.00000000071078,0.518312330627254
5200.00000000139,64.4638930096753,1.00000000087731,0.536880000750602
5300.00000000175,63.8092031545744,1.00000000127724,0.580443740681216
5400.00000000211,63.1423061094298,1.00000000083681,0.519796068405588
5500.00000000248,62.3842619551132,1.0000000007164,0.491885208368043
5600.00000000284,61.6019528131181,1.00000000130055,0.573278341693778
5700.00000000321,60.8597236114932,1.00000000116997,0.554013186429819
5800.00000000357,60.0931599859479,1.00000000067259,0.476410838931902
5900.00000000393,59.2680942917256,1.00000000079672,0.489257502740242
6000.0000000043,58.4553752167007,1.00000000136124,0.567904824711492
6100.00000000466,57.6892245898908,1.00000000123778,0.547623331335344
6200.00000000502,56.9222268971592,1.00000000074911,0.466865844760809
6300.00000000539,56.1213922384125,1.00000000071671,0.461795196694225
6400.00000000575,55.3200990464948,1.00000000114641,0.527942468837035
6500.00000000612,54.5556054678096,1.00000000133976,0.559044938114634
6600.00000000648,53.8219344489309,1.0000000010407,0.510414211308872
6700.00000000684,53.0878397992398,1.00000000072583,0.45533626576736
6800.00000000721,52.3468692652531,1.00000000078071,0.46801605430025
6900.00000000757,51.6137232734963,1.0000000010682,0.507901136790788
7000.00000000793,50.9041588075403,1.00000000122405,0.543799626180001
7100.0000000083,50.2204026792476,1.00000000115111,0.52913182962909
7200.00000000866,49.5510368352846,1.00000000088066,0.476195641564074
7300.00000000903,48.891536247871,1.00000000083249,0.467164640253326
7400.00000000939,48.2441732494378,1.0000000008836,0.489795020169294
7500.00000000975,47.6103156350135,1.00000000096176,0.500420927339329
7600.00000001012,46.9920282159889,1.0000000011123,0.524562261673114
7700.00000001048,46.3899545014367,1.0000000011759,0.531897887215072
7800.00000001084,45.8035765450061,1.000000001001,0.50691174970739
7900.00000001121,45.2355881025014,1.00000000077453,0.470190899205624
8000.00000001157,44.6877937669792,1.00000000088718,0.485881288609334
8100.00000001194,44.155667548716,1.00000000104483,0.50770539635939
8200.0000000123,43.6381243298328,1.0000000009063,0.498489527703974
8300.00000001266,43.137431185809,1.00000000093069,0.494651761378456
8400.00000001303,42.6491078719155,1.00000000113426,0.522851695790065
8500.00000001339,42.166185167356,1.00000000120591,0.529294899451771
8600.00000001376,41.6960813030913,1.00000000088505,0.503708839201763
8700.00000001412,41.2496861607034,1.00000000077399,0.47254988786398
8800.00000001448,40.8264715286436,1.00000000087007,0.485677023362487
8900.00000001485,40.4145279464808,1.00000000117051,0.503973574122865
9000.00000001521,40.009874997588,1.00000000110629,0.51899839922307
9100.00000001557,39.6219543957152,1.00000000081086,0.487061358364784
9200.00000001594,39.2524272419887,1.00000000091313,0.489971936455658
9300.0000000163,38.8908631202653,1.00000000112531,0.522053221674794
9400.00000001667,38.5281189172649,1.00000000121279,0.533567588154953
9500.00000001703,38.1681454684344,1.00000000106513,0.518155206497105
9600.00000001739,37.8250585016485,1.00000000082652,0.491303844238166
9700.00000001776,37.5062367703611,1.00000000086346,0.485162812983557
9800.00000001812,37.2072853814237,1.0000000008822,0.492685516753062
9900.00000001848,36.9171973138294,1.00000000110766,0.508748223412408
10000.0000000188,36.6291853455668,1.00000000112103,0.506627021974102
10100.0000000192,36.3470433531998,1.00000000097152,0.51785297786941
10200.0000000196,36.0779383468006,1.00000000086916,0.510242355287635
10300.0000000199,35.8216092430197,1.00000000092863,0.509748374311962
10400.0000000203,35.5697454394099,1.0000000010557,0.5241959082587
10500.0000000207,35.3197731859705,1.00000000113137,0.535287639825596
10600.000000021,35.0699267958769,1.00000000122018,0.536722623375068
10700.0000000214,34.8234639074674,1.0000000010144,0.52738695842781
10800.0000000218,34.5926890855402,1.00000000081665,0.508865322029413
10900.0000000221,34.3846605023145,1.00000000084794,0.497522826759024
11000.0000000225,34.1913948632589,1.00000000099703,0.509898342296762
11100.0000000229,34.0050963344583,1.00000000095677,0.512915024012182
11200.0000000232,33.828983844455,1.00000000098045,0.510966813743264
11300.0000000236,33.6612466120346,1.00000000095959,0.510525529196606
11400.0000000239,33.4992610311122,1.00000000105771,0.513573367157023
11500.0000000243,33.3356728032682,1.0000000011322,0.540162423835997
11600.0000000247,33.1679233165652,1.00000000106448,0.548661766050482
11700.000000025,33.00135183147,1.00000000096272,0.542556086963928
11800.0000000254,32.8378915942907,1.00000000089696,0.537946877734844
11900.0000000258,32.6828533478656,1.00000000099134,0.532671505791681
12000.0000000261,32.5311510807316,1.0000000010739,0.534098556147276
12100.0000000265,32.3795068890694,1.00000000114816,0.541866617617254
12200.0000000269,32.2270755928742,1.00000000111609,0.536657625648593
12300.0000000272,32.0831898575328,1.00000000087466,0.528190704565367
12400.0000000276,31.9577889115862,1.00000000089551,0.522655779755593
12500.0000000279,31.8513737864712,1.00000000086151,0.510022153499988
12600.0000000283,31.7538676711294,1.00000000110544,0.521413478211256
12700.0000000287,31.654520805874,1.00000000112767,0.531568286535834
12800.000000029,31.5566790730527,1.0000000009871,0.523153249084386
12900.0000000294,31.4707585665749,1.00000000092904,0.512217633116642
13000.0000000298,31.3972586419635,1.00000000089124,0.524803149541377
13100.0000000301,31.3284152703895,1.00000000097689,0.538720717803466
13200.0000000305,31.2578138121408,1.0000000010341,0.539136031923142
13300.0000000309,31.1803128954232,1.00000000111619,0.549922554849129
13400.0000000312,31.0924603859132,1.00000000109947,0.557120336860416
13500.0000000316,30.9970376398174,1.0000000010305,0.560145454608209
13600.0000000319,30.897332771303,1.00000000100673,0.567682968353181
13700.0000000323,30.7958517529074,1.00000000096659,0.566367348054489
13800.0000000327,30.6975915673708,1.00000000096504,0.56177451246211
13900.000000033,30.604109361778,1.00000000100509,0.549813845025787
14000.0000000334,30.5156510111888,1.00000000102373,0.543811229703883
14100.0000000338,30.4299890070262,1.00000000107725,0.546394999705152
14200.0000000341,30.3447892020294,1.00000000109575,0.549364545505233
14300.0000000345,30.2634046973461,1.00000000102387,0.550445263192284
14400.0000000349,30.1950944537602,1.00000000092328,0.543994112602507
14500.0000000352,30.1432324129031,1.00000000092065,0.538826911118126
14600.0000000356,30.1025503490379,1.00000000099387,0.535313029608525
14700.0000000359,30.0662933913233,1.00000000104691,0.539517800042392
14800.0000000363,30.0350461602584,1.00000000101644,0.532913205425528
14900.0000000367,30.0064182291583,1.0000000009857,0.53193337270422
15000.000000037,29.9813840168018,1.00000000103588,0.529814440337252
15100.0000000374,29.962809018998,1.00000000094699,0.533592655898452
15200.0000000378,29.949391898629,1.00000000102924,0.54723806794245
15300.0000000381,29.9348779969296,1.00000000105872,0.558032596196077
15400.0000000385,29.9162038687562,1.00000000107604,0.565652565890655
15500.0000000389,29.8928032733624,1.00000000107616,0.569232650625096
15600.0000000392,29.8678437065614,1.00000000099653,0.569703144264608
15700.0000000396,29.8452292627633,1.00000000098835,0.569570802634415
15800.0000000399,29.8241944417223,1.00000000098098,0.567887637637599
15900.0000000403,29.7970940038873,1.00000000107862,0.575070219187533
16000.0000000407,29.7611691431094,1.00000000110855,0.570554754005521
16100.000000041,29.713317323454,1.00000000113811,0.571492910561442
16200.0000000414,29.6524918545999,1.00000000113847,0.575280134156329
16300.0000000418,29.5818937970496,1.00000000108491,0.585512973657842
16400.0000000418,29.5085866690789,1.00000000103038,0.585576208184115
16500.0000000404,29.4384358366928,1.00000000093444,0.578853444888139
16600.0000000389,29.3739861070231,1.00000000096925,0.571761901514741
16700.0000000375,29.3159510598881,1.00000000099666,0.569552529588085
16800.000000036,29.2633632110873,1.00000000103687,0.563148801637951
16900.0000000346,29.2140943124456,1.00000000105693,0.563562087578431
17000.0000000331,29.167483853956,1.00000000114308,0.569415403647592
17100.0000000317,29.1232759712562,1.00000000111952,0.568701669764616
17200.0000000302,29.0853618346641,1.00000000098575,0.568943741761061
17300.0000000287,29.0598500990419,1.00000000092973,0.56646632483598
17400.0000000273,29.0466112936833,1.00000000100079,0.561807034061733
17500.0000000258,29.0417891428275,1.00000000102887,0.55836861726375
17600.0000000244,29.0442094846351,1.00000000101879,0.554172460004569
17700.0000000229,29.0499868803799,1.00000000104932,0.548369314623339
17800.0000000215,29.0558255454498,1.00000000107317,0.548658970373625
17900.00000002,29.0650017868416,1.00000000100402,0.549685128704251
18000.0000000186,29.0812747768699,1.00000000094225,0.551894636104402
18100.0000000171,29.1027976851872,1.00000000098384,0.554154968219751
18200.0000000156,29.1247986844633,1.00000000106015,0.554835447431602
18300.0000000142,29.1454073043182,1.00000000105604,0.5589545587081
18400.0000000127,29.1642357626839,1.00000000107267,0.555569205530405
18500.0000000113,29.1789772223268,1.0000000010762,0.559136033043101
18600.0000000098,29.190744862312,1.00000000107425,0.575106686734317
18700.0000000084,29.2013789906483,1.00000000103856,0.579790029629892
18800.0000000069,29.2110994276971,1.0000000010375,0.578996363905173
18900.0000000055,29.2205708652562,1.00000000104572,0.592061699850999
19000.000000004,29.2289088373893,1.00000000112413,0.59680600347089
19100.0000000026,29.2319878895054,1.00000000110703,0.599509149380492
19200.0000000011,29.228817859601,1.0000000011376,0.604578370726519
19299.9999999996,29.2224069252342,1.00000000102551,0.606886785231783
19399.9999999982,29.2144450462226,1.0000000010404,0.610768542594037
19499.9999999967,29.2039381394883,1.00000000111517,0.615519404180049
19599.9999999953,29.1878783508115,1.00000000107075,0.618856446785168
19699.9999999938,29.1673904481117,1.00000000105043,0.610723506550759
19799.9999999924,29.1424134201308,1.0000000010492,0.606030267245433
19899.9999999909,29.1116386571404,1.00000000106968,0.60192244477148
19999.9999999895,29.0750120761258,1.00000000107651,0.598473594972846
20099.999999988,29.0312763162774,1.00000000119492,0.604735646403953
20199.9999999865,28.9792182519757,1.00000000124452,0.609314101207973
20299.9999999851,28.9200392908353,1.00000000118387,0.609596106410683
20399.9999999836,28.8569000265477,1.00000000110183,0.609834807201333
20499.9999999822,28.7951781137054,1.0000000010403,0.61274783966946
20599.9999999807,28.7359285054352,1.00000000097822,0.60988715940073
20699.9999999793,28.680883190944,1.00000000104327,0.615069680192095
20799.9999999778,28.6306465932173,1.00000000098893,0.615490259211785
20899.9999999764,28.5843365860685,1.00000000103586,0.604653998518376
20999.9999999749,28.5421956205311,1.00000000119526,0.611015850596916
21099.9999999734,28.5043199085493,1.00000000107993,0.606842170932798
21199.999999972,28.4694918611106,1.0000000011137,0.599665254882186
21299.9999999705,28.4382294696924,1.00000000115014,0.587513711620356
21399.9999999691,28.4108139050088,1.00000000105098,0.582798481766739
21499.9999999676,28.3897449426307,1.00000000109448,0.581337018759542
21599.9999999662,28.3777053016778,1.0000000010065,0.577937192290481
21699.9999999647,28.3750936558746,1.00000000100894,0.581661247411434
21799.9999999633,28.3816166096651,1.00000000096123,0.583845421057729
21899.9999999618,28.3955582556482,1.00000000106179,0.577925718130302
21999.9999999603,28.4134816148513,1.00000000113105,0.578268560912317
22099.9999999589,28.4340252953284,1.0000000010755,0.576544470522524
22199.9999999574,28.4575270784635,1.00000000111233,0.568131541870595
22299.999999956,28.4850631389442,1.0000000009814,0.564192530015188
22399.9999999545,28.5171619457407,1.00000000102825,0.563204922769227
22499.9999999531,28.5534963034022,1.00000000106398,0.571531027387088
22599.9999999516,28.5916569662577,1.00000000108191,0.571870549911598
22699.9999999502,28.6285041756346,1.00000000102542,0.573073236925221
22799.9999999487,28.6664979432957,1.00000000100259,0.577428877522843
22899.9999999473,28.7055366676116,1.00000000106266,0.575703400651425
22999.9999999458,28.7430180019465,1.00000000112435,0.576292666328507
23099.9999999443,28.7743728596413,1.00000000116251,0.579320810352777
23199.9999999429,28.7996875368821,1.00000000114545,0.58678043982258
23299.9999999414,28.8203196026532,1.00000000114865,0.591800099495194
23399.99999994,28.8401721410049,1.00000000112651,0.603426977722034
23499.9999999385,28.8593464618229,1.00000000104372,0.609324686631884
23599.9999999371,28.8777908649878,1.00000000108365,0.612810116113107
23699.9999999356,28.8942576925068,1.00000000112309,0.61490915075719
23799.9999999342,28.9074757895162,1.00000000112753,0.61053802464108
23899.9999999327,28.9164665960613,1.00000000109893,0.616786051615681
23999.9999999312,28.9239559376879,1.00000000109644,0.618750093886885
24099.9999999298,28.9304133309726,1.00000000110222,0.616378113897182
24199.9999999283,28.9368943929911,1.00000000102201,0.611691725504797
24299.9999999269,28.9439494880825,1.00000000109679,0.609615361375191
24399.9999999254,28.9481157202261,1.00000000110737,0.602721466413939
24499.999999924,28.9473307251869,1.00000000113128,0.611944380161669
24599.9999999225,28.9435366513149,1.00000000115725,0.623588177737033
24699.9999999211,28.9371002289494,1.00000000113401,0.620572937080308
24799.9999999196,28.9296773412641,1.00000000109239,0.62114550641169
24899.9999999181,28.9203660119743,1.00000000114291,0.626688044791112
24999.9999999167,28.9090994897643,1.00000000112494,0.629204494114519
25099.9999999152,28.8980697974709,1.00000000101025,0.618781634563518
25199.9999999138,28.8890655746578,1.00000000106789,0.614549552577124
25299.9999999123,28.8789792619012,1.00000000115319,0.616324799028498
25399.9999999109,28.8654158596953,1.00000000116452,0.619593452191952
25499.9999999094,28.8470736795823,1.00000000119952,0.622872706541448
25599.999999908,28.8238871217542,1.00000000115543,0.619932568176639
25699.9999999065,28.7976945179404,1.00000000106906,0.62085966324487
25799.9999999051,28.7701144075996,1.00000000108234,0.629277256254159
25899.9999999036,28.7406661099456,1.00000000108672,0.626840432545688
25999.9999999021,28.7118441683065,1.00000000105732,0.62344751337604
26099.9999999007,28.6825339030012,1.00000000108783,0.632253700125756
26199.9999998992,28.6505574624084,1.000000001176,0.627524791439559
26299.9999998978,28.6173677564129,1.00000000109334,0.615251754239654
26399.9999998963,28.5830737939056,1.00000000106038,0.615299381434342
26499.9999998949,28.5465384591154,1.00000000118346,0.622740830875146
26599.9999998934,28.505861602028,1.00000000118572,0.627882949265209
26699.999999892,28.4607589654998,1.00000000122893,0.630668113823156
26799.9999998905,28.4130050301343,1.00000000117785,0.624687587758162
26899.999999889,28.3619101208007,1.00000000124781,0.629415248676552
26999.9999998876,28.3074227561734,1.00000000117433,0.631392615620086
27099.9999998861,28.2504980444844,1.00000000114989,0.631308423133332
27199.9999998847,28.1916908895412,1.00000000115494,0.635105841474042
27299.9999998832,28.1319342228708,1.00000000114733,0.635315910983798
27399.9999998818,28.0723225983664,1.00000000106425,0.629347183108244
27499.9999998803,28.0138301509698,1.00000000107009,0.623673214689215
27599.9999998789,27.9570693320585,1.00000000107119,0.614437039882147
27699.9999998774,27.9037863167667,1.00000000104487,0.613357864840233
27799.9999998759,27.8548181377089,1.00000000113591,0.619741083859378
27899.9999998745,27.8102180952247,1.00000000105048,0.620680541793987
27999.999999873,27.7695434008499,1.00000000119888,0.626320414659429
28099.9999998716,27.7323597351785,1.00000000121206,0.627901336381859
28199.9999998701,27.6979699440997,1.00000000112279,0.618133678622662
28299.9999998687,27.667553993718,1.00000000119939,0.614264646777101
28399.9999998672,27.639796511018,1.00000000114653,0.606426409536537
28499.9999998658,27.6167490583296,1.00000000110196,0.596632848719617
28599.9999998643,27.5981724317065,1.00000000106956,0.591406859499203
28699.9999998629,27.5844628932547,1.00000000104147,0.588656200757126
28799.9999998614,27.578184696102,1.00000000111175,0.58886962792107
28899.9999998599,27.5799637647698,1.00000000106789,0.587855721160898
28999.9999998585,27.5885931747964,1.00000000112105,0.583441601092712
