Time,AGPnorm,Energy,Entropy
0,0,1,-1.2145395711792e-32
99.9999999999986,0.00561872584517112,0.999999999998126,0.0172184524147929
199.999999999993,0.0154297424680323,1.00000000000001,0.0498527406121128
300,0.0317849676454905,0.99999999999845,0.0982691860742829
400.000000000022,0.04812427515554,1.00000000000463,0.162938376069329
500.000000000045,0.0641780245219537,1.00000000010788,0.256756808127098
600.000000000068,0.123678977269843,1.00000000062924,0.370782112901805
700.000000000091,0.375532881973293,1.00000000125554,0.464704083561887
800.000000000113,1.22207148093475,1.00000000187818,0.522584324105265
900.000000000136,2.85309573453664,1.00000000223273,0.555393167383429
1000.00000000016,5.27892838207556,1.00000000215729,0.570434170249254
1100.0000000001,8.28378070673995,1.00000000234506,0.574715657498305
1200,11.5480535940979,1.00000000218481,0.571740631580761
1299.99999999991,14.7818129109782,1.00000000206673,0.568212091273137
1399.99999999982,17.7436517981121,1.00000000196099,0.560787235834165
1499.99999999973,20.2582923002021,1.00000000174022,0.549209565069214
1599.99999999964,22.2641319951505,1.00000000153282,0.544820507382543
1699.99999999955,23.7140735795715,1.00000000152299,0.537104227045702
1799.99999999946,24.6862855078584,1.00000000150128,0.52672487481651
1899.99999999937,25.154632995242,1.0000000014558,0.540419968689717
1999.99999999928,25.3190528123335,1.0000000011866,0.509767973374376
2099.99999999919,25.0869762990447,1.00000000124653,0.524356263562519
2199.99999999909,24.7774780675863,1.00000000153573,0.546911588943307
2299.999999999,24.2348313151381,1.0000000007108,0.419314285377963
2399.99999999891,23.6016642307879,1.00000000193656,0.575087823270686
2499.99999999882,23.0468785993519,1.00000000136233,0.501922457394839
2599.99999999873,22.3585601150864,1.00000000066704,0.371155561187234
2699.99999999864,21.637813422337,1.00000000189889,0.543753213774551
2799.99999999855,21.0209801519718,1.00000000171,0.563157605477331
2899.99999999846,20.4254021892706,1.00000000091002,0.396216281687428
2999.99999999837,19.7983313306823,1.00000000085993,0.382291597059339
3099.99999999828,19.1763162376445,1.00000000165427,0.52427173176078
3199.99999999819,18.5980450260176,1.00000000190939,0.548246571815429
3299.99999999809,18.0779161219097,1.00000000154984,0.539330949456428
3399.999999998,17.5822267683407,1.00000000070817,0.371455189321827
3499.99999999791,17.137340134708,1.0000000009856,0.385719350169621
3599.99999999782,16.7102741126249,1.00000000153292,0.506952396566785
3699.99999999773,16.2848138356608,1.0000000013367,0.526416420078942
3799.99999999764,15.8738434789516,1.00000000159854,0.516574791278888
3899.99999999755,15.4686156161787,1.00000000187907,0.579138882217058
3999.99999999746,15.0935087928381,1.00000000112172,0.490392640956482
4099.99999999738,14.7875365889783,1.00000000064246,0.361121260317184
4199.99999999775,14.5811191963747,1.00000000106182,0.387120988656729
4299.99999999811,14.3935072028561,1.00000000144121,0.490530631629462
4399.99999999848,14.1758463288267,1.00000000154977,0.539147446471974
4499.99999999884,13.9366209807246,1.00000000139621,0.542769096876949
4599.9999999992,13.7095822723244,1.00000000123218,0.522998096686587
4699.99999999957,13.4766115617972,1.00000000153075,0.524078146723153
4799.99999999993,13.2223775254775,1.0000000018478,0.550731287767681
4900.00000000029,12.9605731341039,1.00000000178508,0.582995573855983
5000.00000000066,12.7197445912164,1.00000000113915,0.502851372086846
5100.00000000102,12.5582794116147,1.00000000066057,0.389333433414195
5200.00000000139,12.521949823677,1.00000000086749,0.372198998248048
5300.00000000175,12.560725972493,1.00000000128108,0.430965733563008
5400.00000000211,12.5771295248744,1.00000000165683,0.508419868600346
5500.00000000248,12.5506290728404,1.00000000138601,0.543546118379398
5600.00000000284,12.5109663967014,1.00000000140295,0.539530108237875
5700.00000000321,12.4455861566279,1.00000000156787,0.554757480283181
5800.00000000357,12.347365462885,1.00000000146537,0.548847477619263
5900.00000000393,12.2363511769581,1.00000000142868,0.544187875263561
6000.0000000043,12.1190925180931,1.00000000133281,0.557807361084119
6100.00000000466,12.0079454879797,1.00000000109064,0.548012233693653
6200.00000000502,11.8919921987076,1.0000000014208,0.556608820424946
6300.00000000539,11.7560581872769,1.00000000160368,0.563562102135682
6400.00000000575,11.6016739358051,1.00000000187922,0.564897496222756
6500.00000000612,11.4350388269572,1.00000000184729,0.583019002609532
6600.00000000648,11.269037762867,1.00000000139228,0.561631303618507
6700.00000000684,11.1304826160894,1.00000000091202,0.482185758458578
6800.00000000721,11.0734749957744,1.00000000069142,0.405644934426446
6900.00000000757,11.1434935143511,1.00000000082194,0.385489710894721
7000.00000000793,11.3175057826774,1.00000000111069,0.409661248734577
7100.0000000083,11.52312484867,1.00000000140708,0.459008553353952
7200.00000000866,11.700262678629,1.00000000151623,0.503459399938655
7300.00000000903,11.8447403107758,1.0000000014531,0.541631104706986
7400.00000000939,11.9513329101289,1.00000000149153,0.552885191539438
7500.00000000975,12.0273491555368,1.00000000145638,0.567251027368814
7600.00000001012,12.0721988740474,1.00000000138496,0.585951544566978
7700.00000001048,12.0776656710318,1.00000000149843,0.590959097356497
7800.00000001084,12.0565800602661,1.00000000140162,0.57546143227672
7900.00000001121,12.0241247127101,1.00000000149642,0.562239108234581
8000.00000001157,11.9861838752464,1.00000000144994,0.561018550778519
8100.00000001194,11.9388124231922,1.0000000015047,0.54575897297842
8200.0000000123,11.8862353826931,1.00000000132342,0.549553454887489
8300.00000001266,11.8328478568722,1.00000000142629,0.565247153463882
8400.00000001303,11.7844175827896,1.00000000132966,0.558612729128508
8500.00000001339,11.7347781090271,1.00000000140377,0.564135368311568
8600.00000001376,11.684426318344,1.00000000142231,0.571938031745068
8700.00000001412,11.6291489241141,1.00000000151066,0.569332964102627
8800.00000001448,11.5669041426767,1.00000000149557,0.56405885783415
8900.00000001485,11.4944173748112,1.00000000154703,0.572645534841275
9000.00000001521,11.4116368075091,1.00000000150238,0.601709363293229
9100.00000001557,11.3238905530222,1.00000000132698,0.60043206357843
9200.00000001594,11.2393322394743,1.00000000123381,0.596468237708709
9300.0000000163,11.1511281868422,1.00000000137372,0.598139783239428
9400.00000001667,11.0567305060225,1.0000000016349,0.595597365501674
9500.00000001703,10.9568797472196,1.0000000016851,0.599261113507457
9600.00000001739,10.8562977086619,1.00000000187318,0.595495582711407
9700.00000001776,10.7599833664644,1.00000000197147,0.592230664437949
9800.00000001812,10.6638415828254,1.00000000173635,0.587923778318751
9900.00000001848,10.5626469823921,1.0000000014719,0.569310481520796
10000.0000000188,10.4601824991743,1.00000000117207,0.522621813886119
10100.0000000192,10.3827848615687,1.00000000089665,0.464086394505188
10200.0000000196,10.3702104421849,1.00000000083499,0.421169099637125
10300.0000000199,10.4624207338044,1.00000000077821,0.396388122672328
10400.0000000203,10.6644807818767,1.00000000096588,0.405868435372942
10500.0000000207,10.9559809898775,1.00000000132487,0.425230228126265
10600.000000021,11.2778236541522,1.00000000144523,0.45481710495349
10700.0000000214,11.6031083069029,1.00000000157336,0.484527149666841
10800.0000000218,11.8980758019741,1.00000000150674,0.512594230000502
10900.0000000221,12.1673904110636,1.00000000151933,0.52953351374606
11000.0000000225,12.404852936268,1.00000000148337,0.554807038173808
11100.0000000229,12.6121480301038,1.0000000015109,0.571894368564469
11200.0000000232,12.7904668080729,1.00000000158211,0.581067951275436
11300.0000000236,12.9377355106841,1.00000000164312,0.592608350726185
11400.0000000239,13.0580897989874,1.00000000160144,0.605748588977505
11500.0000000243,13.1482276550965,1.00000000170252,0.619373182479504
11600.0000000247,13.2076123109806,1.0000000016851,0.618789065096312
11700.000000025,13.2432928364555,1.00000000149921,0.619739497651589
11800.0000000254,13.2660319376829,1.00000000156125,0.61603015200694
11900.0000000258,13.2741070532889,1.00000000155628,0.616005164498856
12000.0000000261,13.2746130515156,1.0000000015428,0.608619777326089
12100.0000000265,13.2648579874088,1.00000000158814,0.606690643491652
12200.0000000269,13.2394338011228,1.00000000160599,0.601002259135682
12300.0000000272,13.2128701755833,1.00000000146125,0.592970747914512
12400.0000000276,13.1773267601095,1.00000000164584,0.606587212243188
12500.0000000279,13.1326957415104,1.00000000156879,0.604234919972655
12600.0000000283,13.0826149670949,1.0000000015575,0.614814539008095
12700.0000000287,13.02772351036,1.0000000016206,0.620305392185366
12800.000000029,12.9673161562259,1.00000000164087,0.628229332472219
12900.0000000294,12.9043236790249,1.00000000143078,0.61928910914522
13000.0000000298,12.8450433918994,1.00000000149656,0.605248831634019
13100.0000000301,12.7915955303317,1.00000000140717,0.588634051713986
13200.0000000305,12.7461036821961,1.00000000145967,0.588258710232902
13300.0000000309,12.7026023300243,1.00000000162175,0.591499479095837
13400.0000000312,12.661933902555,1.0000000015418,0.600116812151489
13500.0000000316,12.6218750443478,1.00000000153522,0.592540104221343
13600.0000000319,12.5809282797643,1.00000000150275,0.601859759330917
13700.0000000323,12.5423804466521,1.00000000160671,0.602195004474654
13800.0000000327,12.5077052562924,1.00000000165257,0.597747774417922
13900.000000033,12.4691833859864,1.00000000158975,0.588487368650978
14000.0000000334,12.4323083813375,1.000000001469,0.598579553416474
14100.0000000338,12.4031473402083,1.00000000143488,0.581414448124219
14200.0000000341,12.3787229758305,1.0000000015396,0.56686612333388
14300.0000000345,12.3524235626594,1.00000000176369,0.571055963559811
14400.0000000349,12.3232697346179,1.00000000147092,0.580284390289185
14500.0000000352,12.2964271652051,1.00000000150417,0.583728483865317
14600.0000000356,12.2700773839364,1.00000000151518,0.611479960043313
14700.0000000359,12.2415811473841,1.00000000148,0.622752972899722
14800.0000000363,12.2155572531783,1.00000000150775,0.609645962976174
14900.0000000367,12.1869086079382,1.00000000169855,0.593720660875234
15000.000000037,12.1553912771713,1.00000000162899,0.60680118725786
15100.0000000374,12.1266045996994,1.00000000150633,0.606462561732405
15200.0000000378,12.0972205282609,1.00000000159218,0.612932059305229
15300.0000000381,12.0626508784725,1.00000000163068,0.627548428372704
15400.0000000385,12.0271177653314,1.000000001508,0.624770084881844
15500.0000000389,11.9933652246259,1.00000000143178,0.636252830491333
15600.0000000392,11.9550462230281,1.00000000167517,0.636455836227892
15700.0000000396,11.9129613081297,1.00000000156633,0.616495720377027
15800.0000000399,11.8670335637265,1.0000000015428,0.617634562360581
15900.0000000403,11.8198358581778,1.00000000155323,0.620442111525375
16000.0000000407,11.7779656676247,1.00000000134772,0.625031513933715
16100.000000041,11.7409343437374,1.00000000154845,0.628590058054455
16200.0000000414,11.7010718859953,1.00000000165886,0.63094362316163
16300.0000000418,11.6543853377753,1.00000000168348,0.629516447150289
16400.0000000418,11.6077778962251,1.00000000139615,0.621860171280975
16500.0000000404,11.5637060443415,1.00000000179408,0.632778329195469
16600.0000000389,11.514923107274,1.00000000158569,0.628929440955579
16700.0000000375,11.4669623673209,1.00000000155673,0.621238705591899
16800.000000036,11.4209212985059,1.0000000015451,0.628622804493344
16900.0000000346,11.3743402949243,1.00000000155694,0.616694095233218
17000.0000000331,11.3276337634859,1.00000000156285,0.636473068047318
17100.0000000317,11.2796766716862,1.00000000162785,0.633463972323546
17200.0000000302,11.2295543276644,1.00000000166588,0.638849849588549
17300.0000000287,11.1762483873209,1.0000000016381,0.623740880660314
17400.0000000273,11.121280042272,1.00000000172234,0.638193852598651
17500.0000000258,11.0638008785935,1.00000000164829,0.640343990153833
17600.0000000244,11.006856724232,1.00000000147536,0.63639629279796
17700.0000000229,10.9507206673758,1.00000000171553,0.650955751888295
17800.0000000215,10.8917231730754,1.00000000169697,0.642868204105541
17900.00000002,10.8318252108762,1.00000000179675,0.645517535821692
18000.0000000186,10.7722136677046,1.00000000172595,0.635432492961761
18100.0000000171,10.7132224534643,1.00000000153725,0.634452048888956
18200.0000000156,10.6547073381735,1.00000000155792,0.657784023318956
18300.0000000142,10.5969589898048,1.00000000149832,0.644505793362241
18400.0000000127,10.5400272457454,1.00000000144062,0.637212630576863
18500.0000000113,10.4845690817469,1.00000000144044,0.64606967974619
18600.0000000098,10.4312182367029,1.00000000151546,0.647489795969153
18700.0000000084,10.3817549148976,1.00000000177444,0.642762670439992
18800.0000000069,10.3382423461296,1.00000000163055,0.64852381199707
18900.0000000055,10.3021678409213,1.00000000183303,0.652671719878098
19000.000000004,10.2794030360563,1.00000000200707,0.648660943507086
19100.0000000026,10.266874927712,1.00000000193329,0.648695261855451
19200.0000000011,10.2775953228264,1.00000000225798,0.645741514835839
19299.9999999996,10.2982151401979,1.00000000201496,0.652474228016461
19399.9999999982,10.3457089048873,1.00000000192853,0.654110072867554
19499.9999999967,10.3935621037232,1.00000000202884,0.647755508995376
19599.9999999953,10.4584488886828,1.00000000202255,0.637356993643637
19699.9999999938,10.5077038689147,1.00000000187758,0.623604731506376
19799.9999999924,10.5456442893913,1.0000000016307,0.609897645541976
19899.9999999909,10.5534403717328,1.00000000149416,0.591125709765244
19999.9999999895,10.5346977703709,1.00000000127901,0.559363615300962
20099.999999988,10.4971611243772,1.0000000013791,0.525709514571054
20199.9999999865,10.4529793269075,1.00000000110479,0.501412213595811
20299.9999999851,10.4257875655649,1.00000000120344,0.469851640700665
20399.9999999836,10.4382097898185,1.00000000096391,0.444756116802315
20499.9999999822,10.5155634743751,1.00000000094519,0.430306544327289
20599.9999999807,10.6710248257203,1.00000000093819,0.422344699183836
20699.9999999793,10.9301638438403,1.0000000010577,0.425449911265659
20799.9999999778,11.2659992950239,1.00000000115619,0.431835430994721
20899.9999999764,11.7036986772916,1.00000000141327,0.43540511712954
20999.9999999749,12.1759661314342,1.00000000154112,0.444300867447833
21099.9999999734,12.7118764376356,1.00000000162298,0.459622809185116
21199.999999972,13.2450093122303,1.00000000173525,0.469074899740539
21299.9999999705,13.791249230316,1.0000000016608,0.479004028770041
21399.9999999691,14.3243664346339,1.00000000181599,0.490819394552044
21499.9999999676,14.8343699026998,1.00000000180347,0.50249350723474
21599.9999999662,15.3363688117175,1.00000000177554,0.515478495164243
21699.9999999647,15.8002614799973,1.00000000175539,0.520961802083772
21799.9999999633,16.2593177524916,1.00000000174101,0.535099824971547
21899.9999999618,16.6889739350235,1.00000000169395,0.541852984834236
21999.9999999603,17.1019722502592,1.00000000169211,0.544806244586967
22099.9999999589,17.4938908228403,1.00000000161409,0.56533968570072
22199.9999999574,17.8668351328526,1.00000000162841,0.570703842734832
22299.999999956,18.2235423634283,1.00000000182258,0.587928568989685
22399.9999999545,18.542081688044,1.00000000173435,0.598950492272183
22499.9999999531,18.8529916577766,1.00000000174659,0.615535541103313
22599.9999999516,19.1261277023568,1.00000000173295,0.616553186440986
22699.9999999502,19.3772918446664,1.00000000163538,0.620545881793439
22799.9999999487,19.6014478581641,1.00000000169044,0.639504784999549
22899.9999999473,19.802371114215,1.00000000170195,0.637924374155049
22999.9999999458,19.984298662362,1.00000000189608,0.636973599055136
23099.9999999443,20.1385330008896,1.00000000180556,0.630932734874396
23199.9999999429,20.2791172302822,1.00000000174981,0.645380387438707
23299.9999999414,20.3923348726225,1.00000000176087,0.648573935555026
23399.99999994,20.4935656119307,1.00000000179144,0.648291003025713
23499.9999999385,20.5733425216278,1.00000000172555,0.64451000475054
23599.9999999371,20.6411641405308,1.00000000138465,0.64993209823307
23699.9999999356,20.6960637602001,1.00000000174322,0.651666504621693
23799.9999999342,20.7372161420061,1.00000000173479,0.652508718550813
23899.9999999327,20.7756019772621,1.00000000156439,0.658845398516858
23999.9999999312,20.8079919629913,1.00000000173262,0.647994576780113
24099.9999999298,20.8416155408554,1.00000000169808,0.651486465099782
24199.9999999283,20.857477478362,1.0000000018785,0.647402435836787
24299.9999999269,20.8568848806542,1.00000000173416,0.658858500580684
24399.9999999254,20.8438479605474,1.00000000183569,0.647583315408991
24499.999999924,20.8332916668063,1.00000000157156,0.634886065370378
24599.9999999225,20.827769372659,1.00000000165288,0.634561365074003
24699.9999999211,20.8204735774853,1.00000000171528,0.637953487668624
24799.9999999196,20.8104538622757,1.00000000168392,0.6332300213823
24899.9999999181,20.7923861049613,1.00000000189731,0.63843290560193
24999.9999999167,20.7656397761586,1.00000000185545,0.645920289592265
25099.9999999152,20.7333093246288,1.00000000171964,0.645887111652774
25199.9999999138,20.7001243710632,1.00000000149565,0.63688083484998
25299.9999999123,20.6713302209935,1.00000000147746,0.609303626524013
25399.9999999109,20.6426197000077,1.00000000203934,0.618578865228793
25499.9999999094,20.6091987048398,1.00000000184195,0.621448560318799
25599.999999908,20.5673693656241,1.00000000192043,0.624709577709111
25699.9999999065,20.5226037126373,1.00000000166207,0.618367171476604
25799.9999999051,20.4815724846476,1.00000000151588,0.621502693140115
25899.9999999036,20.4435648259506,1.00000000150462,0.641152767377703
25999.9999999021,20.4028055122892,1.00000000170336,0.651493009570853
26099.9999999007,20.3562282125572,1.00000000172575,0.650233545565832
26199.9999998992,20.3088338516639,1.00000000165817,0.639455138211927
26299.9999998978,20.2612877725153,1.00000000162889,0.629550566382212
26399.9999998963,20.2153097927288,1.00000000179093,0.628543150235806
26499.9999998949,20.1691673304185,1.00000000172196,0.632585331877613
26599.9999998934,20.1255920630209,1.00000000169143,0.630144027482438
26699.999999892,20.0882713134845,1.00000000149041,0.607646055182868
26799.9999998905,20.0568833103542,1.00000000162891,0.619005216575207
26899.999999889,20.0243366996497,1.00000000177825,0.64960018151153
26999.9999998876,19.9844638403043,1.00000000186283,0.630448235017906
27099.9999998861,19.9423239873918,1.00000000156662,0.62233261127098
27199.9999998847,19.9034332038,1.00000000152746,0.614886538363295
27299.9999998832,19.8648201653025,1.00000000177139,0.654304192690913
27399.9999998818,19.8211670228874,1.0000000018999,0.646678174918001
27499.9999998803,19.774960478404,1.00000000175149,0.635446590562542
27599.9999998789,19.7304546758765,1.00000000158873,0.626018100328111
27699.9999998774,19.6887268599786,1.00000000160852,0.632742422009588
27799.9999998759,19.6495782212322,1.0000000017282,0.623657829354877
27899.9999998745,19.6101797019525,1.00000000180424,0.641245003083199
27999.999999873,19.5663435878055,1.00000000208749,0.63954487543505
28099.9999998716,19.5213040104939,1.00000000165645,0.620058817444441
28199.9999998701,19.4762560212757,1.00000000186896,0.630606944952224
28299.9999998687,19.4300194999125,1.00000000178236,0.625316327394681
28399.9999998672,19.3833555612781,1.00000000161865,0.629228373440855
28499.9999998658,19.3355634117721,1.00000000178139,0.630187438579077
28599.9999998643,19.2877900607791,1.00000000197329,0.623533054518644
28699.9999998629,19.2409309069755,1.00000000182672,0.639276921675872
28799.9999998614,19.1924745986392,1.00000000182449,0.635183699419902
28899.9999998599,19.1437839227313,1.00000000175451,0.612489873044914
28999.9999998585,19.0973286894951,1.00000000164517,0.604654118455934
29099.999999857,19.0503998296064,1.00000000186796,0.631119702538998
