Time,AGPnorm,Energy,Entropy
0,0,1,-6.67380521628129e-19
99.9999999999986,0.00509327185529256,1.00000000000077,0.0152971421735814
199.999999999993,0.0139153469256954,0.999999999999913,0.0441779950320567
300,0.0285689163060241,1.00000000000097,0.0867080214416368
400.000000000022,0.0444527209239855,1.00000000000212,0.141957302504596
500.000000000045,0.0606941554815357,1.00000000003513,0.218966670350553
600.000000000068,0.0952842478593471,1.00000000029506,0.320647851990591
700.000000000091,0.207994003745761,1.00000000088431,0.420079498084701
800.000000000113,0.735527704848188,1.00000000140781,0.490915180664539
900.000000000136,1.91767271894704,1.00000000175076,0.534269504884799
1000.00000000016,3.9514896175875,1.00000000193898,0.557320695969086
1100.0000000001,6.73646879952649,1.00000000203593,0.567977798790942
1200,10.0329326812295,1.0000000019757,0.569626832275409
1299.99999999991,13.5669670756172,1.00000000170456,0.568545988288637
1399.99999999982,17.0409129843698,1.00000000182917,0.56085516312461
1499.99999999973,20.240834603635,1.00000000155871,0.551984549504683
1599.99999999964,23.0110344048562,1.00000000152142,0.546755975804032
1699.99999999955,25.2685748622428,1.00000000142701,0.535183096190285
1799.99999999946,27.003802884975,1.00000000129839,0.540224655494807
1899.99999999937,28.199551108944,1.00000000115416,0.511488042262646
1999.99999999928,28.9323910629974,1.00000000134784,0.54612243144314
2099.99999999919,29.2409801502818,1.00000000092217,0.480673465595657
2199.99999999909,29.1693724845405,1.00000000124552,0.548574865497571
2299.999999999,28.9620812910636,1.00000000107068,0.505438903331412
2399.99999999891,28.4267330495523,1.00000000081407,0.449666526027029
2499.99999999882,27.8298722806619,1.00000000152173,0.580395194338016
2599.99999999873,27.2660425787674,1.00000000104533,0.476365173081913
2699.99999999864,26.5189881622094,1.00000000063667,0.377743540427664
2799.99999999855,25.7323232480965,1.00000000156449,0.548635948242095
2899.99999999846,25.0654959263847,1.0000000016357,0.564972315066522
2999.99999999837,24.4176246857052,1.00000000077426,0.399869756360332
3099.99999999828,23.703007732993,1.00000000065539,0.355077858893467
3199.99999999819,22.987736164041,1.00000000145974,0.51132848215964
3299.99999999809,22.3231101915177,1.00000000177318,0.547399627385649
3399.999999998,21.735286637952,1.00000000150956,0.554161143329917
3499.99999999791,21.1650371047816,1.00000000075793,0.394859484566958
3599.99999999782,20.6236621438832,1.0000000007003,0.337229763988379
3699.99999999773,20.1217980519333,1.00000000113232,0.460487333730991
3799.99999999764,19.619318442111,1.00000000132788,0.535501562334286
3899.99999999755,19.1316768349005,1.00000000125296,0.500038752523833
3999.99999999746,18.6561871360709,1.00000000160278,0.562264659971128
4099.99999999738,18.2103964908247,1.00000000134864,0.54772978108477
4199.99999999775,17.8042435035941,1.00000000067555,0.402408777193264
4299.99999999811,17.4928262839121,1.00000000062653,0.331635359576575
4399.99999999848,17.2645107160113,1.00000000110971,0.421458092598931
4499.99999999884,17.033381615411,1.00000000140313,0.508517602679677
4599.9999999992,16.7578769923706,1.00000000150027,0.549953830565173
4699.99999999957,16.4755070999797,1.00000000094986,0.524165152072503
4799.99999999993,16.2111568583645,1.00000000108232,0.505351764354653
4900.00000000029,15.9281973212562,1.00000000141796,0.522292101989479
5000.00000000066,15.6246036315434,1.00000000165373,0.565160792969564
5100.00000000102,15.324170219797,1.00000000142877,0.573293459439894
5200.00000000139,15.0529721502976,1.00000000083471,0.475010135022479
5300.00000000175,14.8724377796965,1.00000000057587,0.369198127145319
5400.00000000211,14.8286715164715,1.00000000072726,0.355191892972696
5500.00000000248,14.8735819352421,1.0000000012094,0.420223469167293
5600.00000000284,14.8987201137687,1.0000000013356,0.502927033968291
5700.00000000321,14.8752048943063,1.00000000124875,0.54180815826217
5800.00000000357,14.8295162315111,1.00000000121025,0.532609158915002
5900.00000000393,14.7526811673826,1.00000000129483,0.548959804036261
6000.0000000043,14.6375165747831,1.00000000125792,0.551980190956114
6100.00000000466,14.5087400687632,1.00000000116654,0.539346036013822
6200.00000000502,14.3797941581314,1.00000000122501,0.545722237449177
6300.00000000539,14.2540156508583,1.00000000102737,0.542732172180709
6400.00000000575,14.1237579469833,1.00000000116516,0.544071840087081
6500.00000000612,13.972386483166,1.00000000139299,0.556671476019098
6600.00000000648,13.7975076655494,1.00000000161182,0.557807645214349
6700.00000000684,13.6063130976497,1.00000000170361,0.581216807578693
6800.00000000721,13.413428568222,1.00000000146436,0.57969739628119
6900.00000000757,13.2341719108013,1.00000000102956,0.518229933744667
7000.00000000793,13.1115092292719,1.0000000006584,0.431840954557147
7100.0000000083,13.1063687778735,1.00000000062948,0.373383272431641
7200.00000000866,13.2440583669696,1.0000000007792,0.375664628415274
7300.00000000903,13.4833799615479,1.00000000101654,0.411345827204522
7400.00000000939,13.7332260779181,1.00000000140384,0.471515408609644
7500.00000000975,13.9466788257003,1.00000000134091,0.514720929579081
7600.00000001012,14.1069459384355,1.00000000134714,0.547596203156614
7700.00000001048,14.2272360543609,1.00000000127093,0.551447416717894
7800.00000001084,14.3149610651804,1.00000000124511,0.568751164153597
7900.00000001121,14.3622685546028,1.00000000139597,0.58802096376715
8000.00000001157,14.3692031968036,1.00000000125477,0.583569490840645
8100.00000001194,14.3518164938937,1.00000000123166,0.569713677724451
8200.0000000123,14.3192875955018,1.00000000115695,0.558869624418076
8300.00000001266,14.2770414108814,1.00000000131878,0.557251451657695
8400.00000001303,14.2192433300861,1.0000000012295,0.548559227699772
8500.00000001339,14.1597617415837,1.00000000118266,0.552075389472106
8600.00000001376,14.1051231744196,1.00000000114237,0.554159236276189
8700.00000001412,14.0518919456679,1.00000000121015,0.552732041115152
8800.00000001448,13.9934631310699,1.00000000110611,0.557917884947472
8900.00000001485,13.9366577929439,1.00000000113171,0.559563461829833
9000.00000001521,13.876824095712,1.00000000125419,0.560000791339157
9100.00000001557,13.809158509816,1.00000000133778,0.557777658556794
9200.00000001594,13.7277974917426,1.00000000132392,0.569170707735362
9300.0000000163,13.6366282652347,1.00000000125736,0.594579563688622
9400.00000001667,13.5408119590201,1.00000000107078,0.590117696594632
9500.00000001703,13.4471930241414,1.00000000108529,0.58601692213762
9600.00000001739,13.349565487521,1.00000000123501,0.588220859600151
9700.00000001776,13.2440884682,1.000000001284,0.588529298576211
9800.00000001812,13.129930437712,1.00000000141553,0.59326636646083
9900.00000001848,13.0115038977243,1.00000000158237,0.597553073984941
10000.0000000188,12.8953394640666,1.00000000163178,0.593292111892486
10100.0000000192,12.7833094848402,1.00000000167167,0.594118278678372
10200.0000000196,12.6709769575382,1.00000000141499,0.585726712757806
10300.0000000199,12.5527272757603,1.00000000119106,0.555762434559026
10400.0000000203,12.4378817892366,1.00000000081746,0.497114899905593
10500.0000000207,12.3580237065233,1.00000000066765,0.446731278161532
10600.000000021,12.3574987810468,1.00000000056504,0.398055036547449
10700.0000000214,12.47251949355,1.00000000074132,0.381696207794516
10800.0000000218,12.7178904225247,1.00000000071975,0.386291160006578
10900.0000000221,13.0616819666638,1.00000000101193,0.410530971948284
11000.0000000225,13.4558000021414,1.00000000118502,0.44151488151304
11100.0000000229,13.8505011296981,1.00000000132771,0.47313502488465
11200.0000000232,14.2097891893128,1.00000000138963,0.500049574316313
11300.0000000236,14.536614713864,1.00000000138972,0.52344638039736
11400.0000000239,14.8209976366844,1.0000000013291,0.551699316353413
11500.0000000243,15.0693221029478,1.00000000135232,0.563349822425202
11600.0000000247,15.2823821707176,1.00000000124441,0.565341094884026
11700.000000025,15.4605048524966,1.00000000130127,0.584574596918475
11800.0000000254,15.6066565414322,1.00000000125408,0.597777123065292
11900.0000000258,15.7227335954747,1.00000000128969,0.603586618500634
12000.0000000261,15.8050262034174,1.00000000139065,0.604566293403206
12100.0000000265,15.8576375756913,1.00000000124492,0.610636220550824
12200.0000000269,15.8895489444225,1.00000000126859,0.613599261494875
12300.0000000272,15.9023359118756,1.00000000135259,0.610068828928542
12400.0000000276,15.9058755364781,1.00000000115712,0.59101538631783
12500.0000000279,15.8989386079425,1.00000000137823,0.593442575049677
12600.0000000283,15.8740630312247,1.00000000129433,0.59097214059162
12700.0000000287,15.8448787224838,1.00000000118765,0.581462743781572
12800.000000029,15.8062928153453,1.00000000126859,0.592445226438965
12900.0000000294,15.7537499965055,1.00000000130907,0.595904998629448
13000.0000000298,15.6941652545444,1.00000000130197,0.604182963023826
13100.0000000301,15.6286991836924,1.00000000119525,0.602066306468383
13200.0000000305,15.5569447087269,1.00000000133522,0.612099538378763
13300.0000000309,15.4798082642436,1.00000000128718,0.611429670510735
13400.0000000312,15.4042414099359,1.00000000110848,0.5984293640689
13500.0000000316,15.3336701059485,1.00000000119527,0.582208712937007
13600.0000000319,15.2712428004418,1.00000000113952,0.56623760285388
13700.0000000323,15.2135436159044,1.00000000128641,0.572193288015211
13800.0000000327,15.1560824279389,1.0000000013016,0.585184851351661
13900.000000033,15.1000546845303,1.00000000124615,0.583618408053312
14000.0000000334,15.0433534105159,1.00000000127903,0.589546382143311
14100.0000000338,14.9873218213715,1.00000000122263,0.592128294342949
14200.0000000341,14.9371487226346,1.00000000107876,0.588743755377046
14300.0000000345,14.8913870896445,1.00000000131969,0.587002887411279
14400.0000000349,14.8417783884121,1.00000000134308,0.586493992633034
14500.0000000352,14.7946626800412,1.00000000115762,0.584010443178696
14600.0000000356,14.7540548562816,1.00000000121055,0.566793670559287
14700.0000000359,14.7153471102664,1.00000000136668,0.555817871910421
14800.0000000363,14.6733622673414,1.00000000135473,0.555627427613088
14900.0000000367,14.6348268987911,1.00000000123955,0.563645029709583
15000.000000037,14.6007553157117,1.00000000120387,0.575871328760402
15100.0000000374,14.5638653385304,1.00000000129115,0.603962658361897
15200.0000000378,14.5259774284652,1.00000000121646,0.610797491066945
15300.0000000381,14.4896841158797,1.00000000129712,0.59786633664294
15400.0000000385,14.4497160120849,1.0000000013095,0.579689386706851
15500.0000000389,14.4083289337721,1.00000000130145,0.586875941090868
15600.0000000392,14.3720602353558,1.00000000111737,0.590140085229558
15700.0000000396,14.3357505589138,1.00000000134857,0.60427349802873
15800.0000000399,14.2937401710485,1.00000000135427,0.616806303314908
15900.0000000403,14.2512983088392,1.00000000121708,0.614671558242457
16000.0000000407,14.2075446867213,1.00000000125881,0.627414621621016
16100.000000041,14.1587906636776,1.00000000139137,0.630278907638175
16200.0000000414,14.1055849502731,1.00000000133313,0.615618549342553
16300.0000000418,14.0475053494674,1.00000000136424,0.612604837938095
16400.0000000418,13.9868954642076,1.00000000127523,0.615692847874675
16500.0000000404,13.9294799003684,1.00000000112618,0.617543943859054
16600.0000000389,13.8798618238987,1.00000000121438,0.609915719465381
16700.0000000375,13.830397864379,1.00000000141788,0.616727191089857
16800.000000036,13.7752562410521,1.00000000136603,0.611863430864254
16900.0000000346,13.7177811305626,1.00000000127637,0.613178297325726
17000.0000000331,13.6631834471798,1.00000000119155,0.616808871850836
17100.0000000317,13.6062985592649,1.00000000143745,0.624935720841788
17200.0000000302,13.5467583250206,1.00000000132634,0.613853242544423
17300.0000000287,13.490127022234,1.00000000116629,0.611532329816859
17400.0000000273,13.4345342100858,1.00000000130712,0.610363644227522
17500.0000000258,13.377230960486,1.00000000145104,0.611060465049346
17600.0000000244,13.3189325449554,1.00000000125944,0.620043364409374
17700.0000000229,13.2579418440019,1.00000000140744,0.624324962784643
17800.0000000215,13.1949210976297,1.00000000136977,0.618620072104876
17900.00000002,13.1303317738784,1.00000000129788,0.616716391386567
18000.0000000186,13.0637021430465,1.00000000140809,0.62869803884657
18100.0000000171,12.9960829856401,1.00000000125932,0.629283803438951
18200.0000000156,12.9292651856292,1.00000000118984,0.618668799395329
18300.0000000142,12.8624254272937,1.00000000148526,0.637993294078385
18400.0000000127,12.7937387681813,1.00000000147474,0.634547702156585
18500.0000000113,12.725590575427,1.00000000134606,0.633760567478293
18600.0000000098,12.6582088529569,1.00000000131535,0.630821645041721
18700.0000000084,12.5913188113123,1.0000000011845,0.620566511835221
18800.0000000069,12.525160620049,1.00000000121844,0.641173676603209
18900.0000000055,12.4599085185711,1.00000000121365,0.635492767676087
19000.000000004,12.3953205495535,1.00000000113309,0.629128533704179
19100.0000000026,12.331793893508,1.00000000104838,0.627505095289621
19200.0000000011,12.2702803553257,1.00000000116282,0.635726360778762
19299.9999999996,12.2120683736384,1.0000000012611,0.633160169318835
19399.9999999982,12.1594420889755,1.00000000140737,0.628757096717377
19499.9999999967,12.1142080572712,1.00000000149245,0.638986554341332
19599.9999999953,12.0817391802267,1.00000000155275,0.636697088463441
19699.9999999938,12.0608934949168,1.00000000167433,0.639812554527805
19799.9999999924,12.0625829788659,1.00000000169226,0.6401670659967
19899.9999999909,12.0786834376684,1.00000000162784,0.634009587847945
19999.9999999895,12.1262910507996,1.00000000174051,0.640739389006764
20099.999999988,12.1837819840628,1.0000000016477,0.632233741977461
20199.9999999865,12.2692611541806,1.00000000179401,0.630195292956061
20299.9999999851,12.3532404805903,1.00000000162053,0.620602632130607
20399.9999999836,12.4446932683864,1.0000000015228,0.60992119504404
20499.9999999822,12.5114867468982,1.00000000137441,0.600417340465791
20599.9999999807,12.553490211219,1.00000000118317,0.581015589475471
20699.9999999793,12.5587819613295,1.00000000105956,0.553734527929308
20799.9999999778,12.5318108594171,1.00000000094616,0.521975882476947
20899.9999999764,12.4857578896825,1.00000000080927,0.493729186935975
20999.9999999749,12.4377345423282,1.00000000077075,0.464005877297448
21099.9999999734,12.4114732280671,1.00000000070173,0.437381310370631
21199.999999972,12.4329021904771,1.00000000069775,0.416176552616322
21299.9999999705,12.5284222448458,1.00000000067779,0.404139942730486
21399.9999999691,12.7118635149547,1.00000000073399,0.397491630017374
21499.9999999676,13.0100032106897,1.00000000078809,0.397990561360836
21599.9999999662,13.3948648132378,1.00000000079812,0.40383186250054
21699.9999999647,13.8946149967272,1.00000000104019,0.416254830237333
21799.9999999633,14.4414388762659,1.00000000115715,0.430258105740586
21899.9999999618,15.0591119161175,1.00000000134039,0.440708596633956
21999.9999999603,15.6830654452887,1.00000000135907,0.45174671472545
22099.9999999589,16.327013999726,1.00000000131564,0.463297899855035
22199.9999999574,16.9586349152734,1.00000000152507,0.480037918781658
22299.999999956,17.5665645358324,1.00000000153939,0.492063907019115
22399.9999999545,18.1604280498908,1.00000000156236,0.500837639445756
22499.9999999531,18.712281321835,1.00000000142559,0.518589741038295
22599.9999999516,19.2578293619711,1.00000000147436,0.523966525150415
22699.9999999502,19.7610126725426,1.0000000015667,0.534691450515717
22799.9999999487,20.2435302311462,1.0000000014221,0.542899451593461
22899.9999999473,20.7026189625508,1.00000000135659,0.556022872522908
22999.9999999458,21.1302855493864,1.00000000157508,0.563128404657675
23099.9999999443,21.5357139217866,1.00000000149371,0.573327643724207
23199.9999999429,21.9078709978734,1.00000000134974,0.5874258746574
23299.9999999414,22.2696658191264,1.00000000150742,0.597374818667894
23399.99999994,22.5970617932154,1.00000000143724,0.599004998938881
23499.9999999385,22.9016095318704,1.00000000155321,0.60683042709763
23599.9999999371,23.1746188592625,1.00000000148195,0.6254714733778
23699.9999999356,23.4219115259957,1.0000000014346,0.622573744363071
23799.9999999342,23.6470173756834,1.00000000144485,0.619789820592635
23899.9999999327,23.8419820953311,1.00000000148056,0.628867408987044
23999.9999999312,24.0173984390244,1.00000000141602,0.639123899716349
24099.9999999298,24.1653760200814,1.00000000153273,0.639138807593823
24199.9999999283,24.2985102547592,1.00000000135906,0.633244726916453
24299.9999999269,24.4072930322909,1.00000000144402,0.634040672354585
24399.9999999254,24.4976046483524,1.00000000131092,0.640465042570032
24499.999999924,24.5702378227472,1.00000000144395,0.651456118380613
24599.9999999225,24.6253964901627,1.00000000140326,0.644958936030539
24699.9999999211,24.6750404020119,1.00000000133404,0.63885902694682
24799.9999999196,24.7158906131293,1.00000000126881,0.631588222447012
24899.9999999181,24.7513247820066,1.00000000125332,0.63582324534254
24999.9999999167,24.7718276379611,1.00000000150486,0.635135615451789
25099.9999999152,24.7758667723532,1.00000000152057,0.650080047637091
25199.9999999138,24.7631404950238,1.00000000142055,0.645979662341833
25299.9999999123,24.7498506125551,1.00000000124242,0.634742785290366
25399.9999999109,24.7404749206356,1.00000000129414,0.625684461817797
25499.9999999094,24.7293969960912,1.00000000143495,0.61986574231007
25599.999999908,24.7133495529967,1.00000000150214,0.60996346555844
25699.9999999065,24.6880847556586,1.00000000135341,0.61617897702441
25799.9999999051,24.6555412464712,1.00000000152041,0.631597300793336
25899.9999999036,24.6157832049793,1.00000000136747,0.638728851168831
25999.9999999021,24.5743550361413,1.00000000125178,0.635755553609384
26099.9999999007,24.5358353926356,1.00000000116957,0.605974091972437
26199.9999998992,24.4988765854858,1.00000000118836,0.597697922284105
26299.9999998978,24.4585196925377,1.00000000160239,0.612230368665331
26399.9999998963,24.4093116370498,1.0000000015654,0.605962879860937
26499.9999998949,24.3547883345934,1.00000000130997,0.607249543717788
26599.9999998934,24.2979205019931,1.00000000125728,0.599716259466759
26699.999999892,24.2446040142553,1.00000000121546,0.60267839462423
26799.9999998905,24.1920225266488,1.0000000014008,0.634910889975152
26899.999999889,24.1334115463876,1.00000000153998,0.640525133303274
26999.9999998876,24.0697914568608,1.00000000148413,0.636821752460247
27099.9999998861,24.0053842121734,1.00000000127494,0.624117862542535
27199.9999998847,23.9429526431123,1.00000000133358,0.61419431982533
27299.9999998832,23.8813105638303,1.00000000137887,0.619674130900415
27399.9999998818,23.820097265035,1.00000000141775,0.619516657876923
27499.9999998803,23.7611105237213,1.00000000126955,0.605692772433557
27599.9999998789,23.7102065686395,1.00000000120726,0.580717129335432
27699.9999998774,23.6642283886618,1.00000000136519,0.606238105214392
27799.9999998759,23.6152743304149,1.00000000154544,0.628383864184909
27899.9999998745,23.5616733656203,1.00000000143405,0.623743575322085
27999.999999873,23.5048664628843,1.00000000138934,0.612982759464975
28099.9999998716,23.4511455144306,1.00000000106378,0.597623689865137
28199.9999998701,23.3992983051171,1.00000000142511,0.630576682441912
28299.9999998687,23.3429489659129,1.0000000015471,0.637222810756202
28399.9999998672,23.2830951972147,1.00000000147791,0.6208991117505
28499.9999998658,23.2235835278761,1.00000000126172,0.612236797749965
28599.9999998643,23.1669801335829,1.00000000122496,0.611167951122627
28699.9999998629,23.1114106915065,1.0000000013131,0.61757854409222
28799.9999998614,23.0552334426037,1.0000000015301,0.620109278137761
28899.9999998599,22.9966374304353,1.00000000153071,0.629706988749918
28999.9999998585,22.9369446024336,1.00000000148098,0.62310887447608
29099.999999857,22.8780887023908,1.00000000135892,0.621171267171038
