Time,AGPnorm,Energy,Entropy
0,0,1,-1.18526780641151e-17
99.9999999999986,1.00434523643551e-05,0.999999999998068,0.000485999221740474
199.999999999993,0.000880288501522288,1.0000000000008,0.000770484576269057
300,0.00219911751499962,0.999999999998574,0.00134091407484863
400.000000000022,0.00308108069045335,0.999999999999263,0.0023386555434537
500.000000000045,0.00369560830128653,1.00000000000039,0.00310243063045391
600.000000000068,0.00528733468771772,0.999999999997971,0.00438440823644581
700.000000000091,0.00655335385897955,1.00000000000056,0.00563602911936244
800.000000000113,0.00850988938543863,0.999999999999061,0.00690100982750084
900.000000000136,0.0106332993927578,0.999999999998777,0.00858190587324328
1000.00000000016,0.0122050552639465,1.00000000000062,0.0100553312512698
1100.0000000001,0.0147732521922066,0.999999999998078,0.0118416660189675
1200,0.017467017022087,1.0000000000002,0.0137201884981472
1299.99999999991,0.0202822835088094,0.99999999999954,0.0155003448771242
1399.99999999982,0.0232251954434663,0.999999999998376,0.0176719502420879
1499.99999999973,0.0258761624967307,1.00000000000069,0.0196931223438829
1599.99999999964,0.0294718880563994,0.999999999998375,0.0218813321430167
1699.99999999955,0.0332414717433108,0.999999999999757,0.0242669877117631
1799.99999999946,0.0367553257007615,0.999999999999931,0.0264980375976751
1899.99999999937,0.0405303566390167,0.999999999998132,0.029065707149384
1999.99999999928,0.0443351077216034,1.00000000000062,0.0315665885400049
2099.99999999919,0.0488263175778349,0.999999999998795,0.0341298320439698
2199.99999999909,0.0533187484359295,0.99999999999927,0.0369623842779551
2299.999999999,0.0573872175577718,1.0000000000002,0.0396222968877703
2399.99999999891,0.0619993116973039,0.999999999998101,0.0425523612427553
2499.99999999882,0.0669004817431969,1.00000000000044,0.0455140622165615
2599.99999999873,0.072076348453576,0.999999999999228,0.0484681533743351
2699.99999999864,0.0770327110413582,0.999999999998797,0.051713408986978
2799.99999999855,0.0816639164076589,1.00000000000034,0.0548163313516981
2899.99999999846,0.0870185751162391,0.999999999998306,0.0581212843278431
2999.99999999837,0.092770937819431,1.00000000000014,0.061568158394943
3099.99999999828,0.0983372325724013,0.999999999999578,0.0649474930675359
3199.99999999819,0.103684362740175,0.999999999998409,0.0686120635100054
3299.99999999809,0.108954657617922,1.00000000000042,0.0722070950075583
3399.999999998,0.114918693806602,0.999999999998675,0.0759446404817019
3499.99999999791,0.121108601982533,0.999999999999741,0.0799282184940035
3599.99999999782,0.126807442076856,0.99999999999982,0.0837970065951355
3699.99999999773,0.132538047668907,0.999999999998201,0.0879503240786834
3799.99999999764,0.138462782073603,1.00000000000044,0.092130433015341
3899.99999999755,0.144869491957123,0.999999999999064,0.0964223986119475
3999.99999999746,0.151100917712925,0.999999999999319,0.101025678572152
4099.99999999738,0.156851273351848,0.99999999999996,0.105522521948782
4199.99999999775,0.16290963340269,0.999999999998271,0.110310273496211
4299.99999999811,0.169385231050481,1.0000000000003,0.115264253249431
4399.99999999848,0.175946898067305,0.99999999999939,0.120315312451857
4499.99999999884,0.18204919113526,0.999999999998931,0.125735888353681
4599.9999999992,0.187875670789375,1.0000000000001,0.131131247278358
4699.99999999957,0.194229517342447,0.999999999998689,0.136867729805774
4799.99999999993,0.20091930237559,1.00000000000015,0.142965292440496
4900.00000000029,0.207323565849685,0.999999999999892,0.149170314606071
5000.00000000066,0.213351146508533,0.999999999999016,0.155873507647928
5100.00000000102,0.219197462806912,1.00000000000101,0.162720754956287
5200.00000000139,0.226016425287335,1.00000000000044,0.170014892286396
5300.00000000175,0.232435438469102,1.00000000000196,0.177850018449041
5400.00000000211,0.238630250620925,1.00000000000352,0.185829347053484
5500.00000000248,0.245302006680589,1.00000000000384,0.19434565613972
5600.00000000284,0.251041093150888,1.00000000000815,0.203117143465966
5700.00000000321,0.259782175683196,1.00000000001037,0.21217011562367
5800.00000000357,0.267255300373286,1.00000000001448,0.221642430240811
5900.00000000393,0.275356153657675,1.00000000002043,0.230986644349242
6000.0000000043,0.288764282331933,1.00000000002384,0.240571025234912
6100.00000000466,0.300127383012248,1.00000000003205,0.250257054399738
6200.00000000502,0.321530169414643,1.00000000003868,0.259727980953665
6300.00000000539,0.346912574764563,1.00000000004552,0.269393572671992
6400.00000000575,0.37728155258253,1.00000000005307,0.278627020636915
6500.00000000612,0.429142919304659,1.00000000006137,0.287830057249017
6600.00000000648,0.485867946210416,1.00000000007483,0.29703507428298
6700.00000000684,0.569463458794863,1.00000000008569,0.305801146756991
6800.00000000721,0.679916215134201,1.00000000009318,0.314647707462195
6900.00000000757,0.810147877098638,1.00000000010412,0.323069504405629
7000.00000000793,0.994399631728055,1.00000000011076,0.331394318301167
7100.0000000083,1.20988493004604,1.00000000012251,0.339705267618018
7200.00000000866,1.48112640151107,1.00000000013316,0.347520854724099
7300.00000000903,1.8237358820694,1.00000000013923,0.35533924695244
7400.00000000939,2.21621149710416,1.00000000014904,0.362965851286856
7500.00000000975,2.70791381967135,1.00000000015875,0.370231173832902
7600.00000001012,3.27865617646664,1.00000000016443,0.377589035552254
7700.00000001048,3.94269195664469,1.00000000017694,0.384435805242083
7800.00000001084,4.73552582258204,1.00000000017847,0.391207895734288
7900.00000001121,5.62219198223859,1.00000000020447,0.397854378963403
8000.00000001157,6.65556173430334,1.000000000211,0.404115950198042
8100.00000001194,7.82813144566067,1.00000000021411,0.410476612922046
8200.0000000123,9.13308482037386,1.00000000021752,0.416434125558655
8300.00000001266,10.6229615509172,1.00000000022097,0.422207120290983
8400.00000001303,12.2572837604282,1.00000000023706,0.427997580340686
8500.00000001339,14.0776931509453,1.00000000024128,0.433304963630598
8600.00000001376,16.0954245194899,1.00000000024361,0.438629690388056
8700.00000001412,18.2803136400642,1.00000000025894,0.443798825665992
8800.00000001448,20.6925021686434,1.00000000026335,0.448589369166824
8900.00000001485,23.2965977510538,1.00000000026363,0.453574486331059
9000.00000001521,26.1118403224024,1.00000000026571,0.458036274681172
9100.00000001557,29.1677570440722,1.00000000026601,0.462472760483602
9200.00000001594,32.4173298616883,1.00000000028818,0.466858840685816
9300.0000000163,35.9161153462259,1.00000000028643,0.470823834360456
9400.00000001667,39.6423419627112,1.00000000027799,0.475035012813254
9500.00000001703,43.5887944108791,1.00000000029704,0.47872860115215
9600.00000001739,47.796909529883,1.00000000029871,0.482375576754425
9700.00000001776,52.2154534497315,1.00000000029445,0.486116235755867
9800.00000001812,56.8837075682902,1.00000000030145,0.489347411047411
9900.00000001848,61.7972345597725,1.00000000030508,0.492668001603328
10000.0000000188,66.9254899671274,1.0000000003045,0.495920291806888
10100.0000000192,72.3135023246576,1.00000000030553,0.49876808377116
10200.0000000196,77.9171483406779,1.00000000030339,0.501911004021039
10300.0000000199,83.7526620559605,1.00000000029976,0.504513786539425
10400.0000000203,89.831353527556,1.00000000031207,0.507057893500896
10500.0000000207,96.1089179248851,1.00000000032247,0.509827784305025
10600.000000021,102.624631398781,1.00000000031005,0.512053596859424
10700.0000000214,109.347821603523,1.00000000030597,0.514631591845044
10800.0000000218,116.272743860539,1.00000000031427,0.516720513692643
10900.0000000221,123.420922409873,1.000000000315,0.518697154970832
11000.0000000225,130.743894385155,1.00000000031921,0.521056204634725
11100.0000000229,138.269741510765,1.0000000003186,0.522672870795401
11200.0000000232,145.982036170751,1.00000000030925,0.524625534399134
11300.0000000236,153.858412783875,1.00000000030713,0.526576789040219
11400.0000000239,161.923910644321,1.00000000031272,0.527823357059087
11500.0000000243,170.134202559853,1.00000000032307,0.529725200527754
11600.0000000247,178.504025663703,1.00000000031533,0.531103665664664
11700.000000025,187.02931211205,1.00000000031196,0.53225963947838
11800.0000000254,195.677256298867,1.00000000031582,0.534083271244991
11900.0000000258,204.472115009266,1.00000000032241,0.535012696967622
12000.0000000261,213.378511538408,1.00000000031925,0.536135568338929
12100.0000000265,222.396826454439,1.00000000030881,0.537686851225148
12200.0000000269,231.533507761428,1.00000000031433,0.538201265842274
12300.0000000272,240.750722300203,1.00000000031655,0.539392140466659
12400.0000000276,250.066807332309,1.00000000031371,0.540431728164451
12500.0000000279,259.461420316645,1.00000000030593,0.540925614149758
12600.0000000283,268.919531741597,1.00000000030844,0.542009883551292
12700.0000000287,278.454851667498,1.00000000030577,0.542716954499425
12800.000000029,288.032538483135,1.00000000030598,0.54328237371375
12900.0000000294,297.660412222049,1.00000000030004,0.544176841219989
13000.0000000298,307.331913540548,1.00000000030768,0.544539662908139
13100.0000000301,317.023692136891,1.00000000030153,0.545078325815526
13200.0000000305,326.749122286165,1.00000000029774,0.545441818880863
13300.0000000309,336.481668868816,1.0000000002946,0.545828217535368
13400.0000000312,346.220792516315,1.00000000030026,0.546330248890962
13500.0000000316,355.966324238456,1.00000000028957,0.546835359376068
13600.0000000319,365.695519231598,1.00000000029137,0.547022800529785
13700.0000000323,375.41832419172,1.0000000002817,0.547256495811784
13800.0000000327,385.114362717535,1.00000000028303,0.547414526176836
13900.000000033,394.77866578685,1.00000000028608,0.547846886845939
14000.0000000334,404.415150596296,1.00000000029827,0.547919009978979
14100.0000000338,414.002673807955,1.00000000029241,0.547743314068933
14200.0000000341,423.546299244237,1.00000000028867,0.547945154416666
14300.0000000345,433.03546085204,1.00000000027859,0.548160095043694
14400.0000000349,442.461065992699,1.00000000027852,0.548218708989733
14500.0000000352,451.827030420782,1.00000000027754,0.548364507583983
14600.0000000356,461.116207454524,1.00000000027741,0.54833669719513
14700.0000000359,470.329965801041,1.00000000025921,0.548257440371588
14800.0000000363,479.464330769297,1.00000000026261,0.548073893091105
14900.0000000367,488.507247847989,1.00000000026142,0.548207363355505
15000.000000037,497.463614308583,1.0000000002628,0.548267861207192
15100.0000000374,506.322060667094,1.00000000027521,0.548045798116828
15200.0000000378,515.078884710339,1.0000000002715,0.547684992975423
15300.0000000381,523.735146145168,1.00000000027246,0.54736739129811
15400.0000000385,532.279685420869,1.00000000026104,0.547622189835226
15500.0000000389,540.717024876261,1.00000000026178,0.54763873094532
15600.0000000392,549.036255027007,1.00000000025874,0.547208717417662
15700.0000000396,557.234973848264,1.00000000024604,0.547313490601165
15800.0000000399,565.316759396531,1.0000000002518,0.546932904602998
15900.0000000403,573.269991939055,1.00000000025062,0.546685854902973
16000.0000000407,581.098540666107,1.00000000024898,0.546638608745484
16100.000000041,588.796101662153,1.00000000023495,0.546557176052115
16200.0000000414,596.36039110653,1.00000000025163,0.546559548417171
16300.0000000418,603.793163883048,1.00000000024078,0.545839218569659
16400.0000000418,611.088418845347,1.00000000023355,0.546282923367691
16500.0000000404,618.246564012223,1.00000000023962,0.545360807840318
16600.0000000389,625.266993475539,1.00000000023489,0.545583093086119
16700.0000000375,632.144553406056,1.00000000022908,0.544645298729045
16800.000000036,638.88155970733,1.00000000023948,0.545370400836071
16900.0000000346,645.475120545232,1.00000000023231,0.544453507944208
17000.0000000331,651.923236016756,1.00000000023568,0.544566612575577
17100.0000000317,658.227843529263,1.00000000023331,0.54354178060011
17200.0000000302,664.382839925729,1.0000000002277,0.54376510570701
17300.0000000287,670.393597377422,1.00000000022898,0.543247989057265
17400.0000000273,676.254833185132,1.00000000023029,0.542973900684467
17500.0000000258,681.966281610119,1.00000000021591,0.542924665696089
17600.0000000244,687.530290553377,1.00000000022773,0.542600211224568
17700.0000000229,692.943762403837,1.00000000022145,0.542315978945122
17800.0000000215,698.208677287521,1.00000000021782,0.541633405328715
17900.00000002,703.323037228881,1.0000000002114,0.54129488192133
18000.0000000186,708.285999692611,1.00000000021216,0.540987586984341
18100.0000000171,713.101140943031,1.00000000021441,0.540855814104174
18200.0000000156,717.766430145018,1.00000000020908,0.540797795533563
18300.0000000142,722.2823436087,1.00000000020634,0.540613146854236
18400.0000000127,726.650726877795,1.00000000021376,0.540227278780064
18500.0000000113,730.869317660262,1.00000000020337,0.539477502277341
18600.0000000098,734.941406013823,1.00000000020399,0.538849009536147
18700.0000000084,738.865395236705,1.00000000019785,0.538163041763852
18800.0000000069,742.642380751195,1.00000000020543,0.538521252814819
18900.0000000055,746.275819440638,1.000000000205,0.538807285239926
19000.000000004,749.763932368472,1.00000000020659,0.539195233527217
19100.0000000026,753.110927621856,1.00000000019756,0.538957188549437
19200.0000000011,756.315955150177,1.00000000019337,0.537831884772162
19299.9999999996,759.379102593422,1.0000000001845,0.536750259396741
19399.9999999982,762.301758257544,1.00000000019141,0.535161173200041
19499.9999999967,765.082779588308,1.00000000019278,0.535069942848829
19599.9999999953,767.725709548139,1.00000000019037,0.535827678511739
19699.9999999938,770.233455480401,1.00000000018446,0.537689373212423
19799.9999999924,772.608223780208,1.00000000019527,0.538833025698317
19899.9999999909,774.854140572079,1.00000000018905,0.538701344133083
19999.9999999895,776.971775496217,1.00000000018695,0.537060237364985
20099.999999988,778.960260382581,1.00000000017495,0.534077773014661
20199.9999999865,780.818522691719,1.00000000017322,0.531281022336624
20299.9999999851,782.543270153847,1.00000000016872,0.530128876335132
20399.9999999836,784.137943547103,1.00000000017301,0.53178668235689
20499.9999999822,785.607245662745,1.00000000017592,0.53546728012506
20599.9999999807,786.957646754078,1.00000000017954,0.53914300567432
20699.9999999793,788.197849988032,1.00000000017919,0.541481444652993
20799.9999999778,789.331250583441,1.00000000018564,0.54028888693743
20899.9999999764,790.358100032638,1.00000000017989,0.536123720050879
20999.9999999749,791.274207594783,1.0000000001714,0.529875344628987
21099.9999999734,792.070749125046,1.00000000015713,0.524857676608098
21199.999999972,792.744938618947,1.00000000015186,0.523330096408548
21299.9999999705,793.297505761638,1.00000000015886,0.52646520136127
21399.9999999691,793.738435738499,1.00000000016248,0.533648331676678
21499.9999999676,794.082812538895,1.00000000017723,0.540980010788207
21599.9999999662,794.342732803367,1.00000000018718,0.545655236140885
21699.9999999647,794.528574996952,1.00000000018234,0.545562657223185
21799.9999999633,794.639601785078,1.00000000018348,0.539935295856324
21899.9999999618,794.668084844416,1.00000000016864,0.530313527774617
21999.9999999603,794.600542220978,1.00000000015609,0.519851930298761
22099.9999999589,794.423651840188,1.00000000014198,0.513274758188828
22199.9999999574,794.135587230548,1.000000000141,0.514086467624764
22299.999999956,793.743396030853,1.00000000014709,0.522382045702515
22399.9999999545,793.264672183051,1.00000000016478,0.534678006266642
22499.9999999531,792.721540194381,1.00000000018668,0.545447323510571
22599.9999999516,792.130830646759,1.00000000020003,0.551367833318617
22699.9999999502,791.503207171545,1.00000000019953,0.550352649206391
22799.9999999487,790.83525669631,1.00000000018997,0.542230796424439
22899.9999999473,790.113021555103,1.0000000001694,0.528380615830939
22999.9999999458,789.317501906733,1.00000000014709,0.511991448037012
23099.9999999443,788.429205922241,1.00000000012983,0.499854375036927
23199.9999999429,787.442238099663,1.00000000011745,0.497535589769038
23299.9999999414,786.361277766724,1.00000000012959,0.50698418330494
23399.99999994,785.205229230152,1.00000000014928,0.524216377442086
23499.9999999385,784.000332452401,1.00000000018237,0.54082441461426
23599.9999999371,782.769628059886,1.00000000020235,0.552608713598334
23699.9999999356,781.530283884901,1.0000000002152,0.556797771535429
23799.9999999342,780.285954792231,1.00000000021368,0.55261838063236
23899.9999999327,779.027239441019,1.0000000001976,0.54040405966516
23999.9999999312,777.736216087495,1.00000000017444,0.521023425301485
24099.9999999298,776.388096487446,1.00000000013664,0.498701657277619
24199.9999999283,774.963295828089,1.00000000011225,0.482182862081808
24299.9999999269,773.452359312903,1.00000000010079,0.477991207953374
24399.9999999254,771.859980429602,1.00000000011175,0.489426634879319
24499.999999924,770.207028102826,1.00000000014906,0.512007058930935
24599.9999999225,768.519505337333,1.00000000018145,0.53489204265734
24699.9999999211,766.823145856342,1.00000000020757,0.551379341832726
24799.9999999196,765.137116429548,1.000000000231,0.560194756726381
24899.9999999181,763.46973121069,1.00000000023733,0.560256667904468
24999.9999999167,761.817731870057,1.00000000022422,0.551731699901071
25099.9999999152,760.167636305726,1.00000000020131,0.535042412011074
25199.9999999138,758.497220044881,1.00000000016329,0.510177532550944
25299.9999999123,756.782356445355,1.0000000001265,0.483111423684414
25399.9999999109,755.002317422067,1.00000000009659,0.463245941299961
25499.9999999094,753.151273362309,1.00000000008927,0.458143423095425
25599.999999908,751.233554610839,1.00000000010085,0.471538049900947
25699.9999999065,749.268187546535,1.00000000013749,0.498927135106878
25799.9999999051,747.280713921351,1.00000000017535,0.526605229058177
25899.9999999036,745.293732494459,1.00000000021518,0.547879276929234
25999.9999999021,743.327050649725,1.00000000024043,0.559808988111894
26099.9999999007,741.391151837194,1.00000000025083,0.563812455029719
26199.9999998992,739.48736728054,1.00000000024842,0.559934782752407
26299.9999998978,737.607995197477,1.00000000022762,0.549130747097602
26399.9999998963,735.737750533901,1.00000000019918,0.52891896406059
26499.9999998949,733.855261488039,1.00000000015803,0.500388542930584
26599.9999998934,731.939533320878,1.00000000012275,0.470169314871592
26699.999999892,729.973222836517,1.00000000009165,0.446447569698603
26799.9999998905,727.951177053354,1.00000000008218,0.439184092497663
26899.999999889,725.876441496624,1.00000000009421,0.451812735320218
26999.9999998876,723.765591587362,1.00000000012593,0.480510846827221
27099.9999998861,721.637937356419,1.00000000016721,0.511856458676872
27199.9999998847,719.513387488235,1.00000000021402,0.538491547633206
27299.9999998832,717.409658315426,1.00000000023645,0.554104222118995
27399.9999998818,715.337304405011,1.00000000026123,0.561589279527292
27499.9999998803,713.301682048779,1.00000000025564,0.56211256754245
27599.9999998789,711.300961014696,1.00000000025693,0.55695139032819
27699.9999998774,709.328060085015,1.00000000024328,0.546001679598928
27799.9999998759,707.369146523383,1.00000000020101,0.524406439914475
27899.9999998745,705.407624005051,1.00000000017872,0.498192177162618
27999.999999873,703.427261393728,1.00000000012848,0.465080283328126
28099.9999998716,701.414525134643,1.00000000009802,0.438379157607961
28199.9999998701,699.361609883687,1.0000000000803,0.424781712950616
28299.9999998687,697.271246880205,1.00000000008534,0.429519818353647
28399.9999998672,695.150988740819,1.00000000010916,0.45069717381386
28499.9999998658,693.014194342593,1.00000000014833,0.483063122520714
28599.9999998643,690.876516349876,1.0000000001834,0.514007937655177
28699.9999998629,688.750638978453,1.00000000022004,0.538425734742734
28799.9999998614,686.648082124122,1.00000000025064,0.552248153113469
