Time,AGPnorm,Energy,Entropy
0,0,1,-7.23287941325649e-17
99.9999999999986,0.000314288435444986,1.00000000000124,0.00127288699589349
199.999999999993,0.00212527475655171,1.00000000000068,0.00388418068397762
300,0.00453734808669417,0.999999999999301,0.00722189412275551
400.000000000022,0.00699848668544812,0.999999999999482,0.0113838146236714
500.000000000045,0.0100143033058737,1.00000000000072,0.0164728450239894
600.000000000068,0.0138763606030818,1.00000000000107,0.0224352234332326
700.000000000091,0.0185384155526985,0.99999999999991,0.0288534622059311
800.000000000113,0.0232288693813072,0.999999999999231,0.0357281040445514
900.000000000136,0.0288675486832001,1.00000000000026,0.0432634893676061
1000.00000000016,0.0342221509389419,1.00000000000086,0.0515202489468354
1100.0000000001,0.0410125660112755,1.00000000000065,0.0603859074482186
1200,0.0472477460710714,0.999999999999303,0.0696920659817865
1299.99999999991,0.0544300869841378,0.999999999999929,0.0795974506433601
1399.99999999982,0.0613138983724975,1.00000000000053,0.0903798675456303
1499.99999999973,0.0688388750714424,1.00000000000085,0.101892898578991
1599.99999999964,0.0765414548607521,1.00000000000006,0.114301551213434
1699.99999999955,0.0839282959214602,0.999999999999616,0.127426958568162
1799.99999999946,0.0921680270747113,1.00000000000083,0.141947867192965
1899.99999999937,0.0991979758915518,1.00000000000139,0.157796314358886
1999.99999999928,0.107937627038678,1.00000000000316,0.175371097291861
2099.99999999919,0.116128939524744,1.00000000000527,0.194613000436232
2199.99999999909,0.125766575888698,1.0000000000134,0.215756507897704
2299.999999999,0.133874602854661,1.00000000002527,0.238851990920588
2399.99999999891,0.147853683407815,1.00000000004344,0.263007326095708
2499.99999999882,0.177419174965685,1.00000000006673,0.287751399405125
2599.99999999873,0.228898322647618,1.0000000000998,0.311675903611374
2699.99999999864,0.311157474758421,1.0000000001355,0.335131093485154
2799.99999999855,0.453606468757554,1.00000000017047,0.356996924504461
2899.99999999846,0.705913923699784,1.00000000020953,0.377378759374977
2999.99999999837,1.10214911971146,1.00000000023568,0.395847409583765
3099.99999999828,1.66748655037644,1.00000000026774,0.412812392125471
3199.99999999819,2.45039242153872,1.00000000031439,0.42820643119692
3299.99999999809,3.51794876000332,1.00000000034129,0.442005697301349
3399.999999998,4.92308850428577,1.0000000003636,0.454446859447685
3499.99999999791,6.68137606965655,1.00000000039073,0.465521835631741
3599.99999999782,8.82097620272854,1.00000000040485,0.475811260523113
3699.99999999773,11.3851538572877,1.00000000043534,0.484674939448673
3799.99999999764,14.4059352091252,1.00000000045945,0.492392273083627
3899.99999999755,17.8849325635082,1.00000000044497,0.499607629533625
3999.99999999746,21.8045830312599,1.00000000044783,0.506162973625254
4099.99999999738,26.1738988520636,1.00000000044882,0.511352442546001
4199.99999999775,30.9891660275546,1.00000000045982,0.515862575633467
4299.99999999811,36.2344550807691,1.00000000050732,0.520067236831398
4399.99999999848,41.8670352308018,1.00000000051198,0.52357935125375
4499.99999999884,47.8633906536109,1.00000000048401,0.526239460151724
4599.9999999992,54.1965072182579,1.00000000047859,0.528929412821417
4699.99999999957,60.8317222356128,1.00000000050436,0.530628756917824
4799.99999999993,67.7314157528695,1.00000000049195,0.532218334439835
4900.00000000029,74.8461026499229,1.00000000048032,0.533570355710787
5000.00000000066,82.1440886092639,1.00000000046759,0.534262823488617
5100.00000000102,89.5836082813519,1.00000000049341,0.534744824848297
5200.00000000139,97.1292109615156,1.0000000004696,0.535352601970657
5300.00000000175,104.737074378527,1.00000000046403,0.535101998090102
5400.00000000211,112.371538992167,1.00000000043978,0.53491318203025
5500.00000000248,119.998621563206,1.00000000044225,0.535334425418673
5600.00000000284,127.582568417369,1.00000000044295,0.533949002408367
5700.00000000321,135.097380703823,1.00000000044484,0.533224175223503
5800.00000000357,142.507999484398,1.00000000042852,0.53316733364016
5900.00000000393,149.789742128007,1.00000000043104,0.53206839740457
6000.0000000043,156.911733176803,1.00000000041355,0.530232866492677
6100.00000000466,163.854805803879,1.00000000039972,0.529343728242738
6200.00000000502,170.600228562037,1.00000000039367,0.528980505769449
6300.00000000539,177.126892458375,1.00000000039889,0.527230523206737
6400.00000000575,183.41862751928,1.00000000038375,0.525274445270163
6500.00000000612,189.457358605067,1.00000000038368,0.523960452226606
6600.00000000648,195.239180401524,1.000000000363,0.523526355663671
6700.00000000684,200.749603963375,1.00000000036799,0.522214931156367
6800.00000000721,205.98084626354,1.00000000036392,0.519924378702472
6900.00000000757,210.924522037086,1.00000000034533,0.518558150432727
7000.00000000793,215.580034807045,1.0000000003556,0.517785064760207
7100.0000000083,219.949053950605,1.00000000033959,0.517539523342972
7200.00000000866,224.025225894327,1.00000000032637,0.515162785608142
7300.00000000903,227.807002844229,1.00000000032352,0.511783130510931
7400.00000000939,231.292038295508,1.00000000031183,0.510922107107468
7500.00000000975,234.493223554914,1.00000000030104,0.513275631471814
7600.00000001012,237.419565854917,1.00000000032546,0.515241079762405
7700.00000001048,240.072732363072,1.00000000031738,0.512123541293726
7800.00000001084,242.44638702793,1.00000000029625,0.504288990836002
7900.00000001121,244.534696501388,1.00000000028888,0.498760023608084
8000.00000001157,246.348436125126,1.00000000028376,0.502611043585786
8100.00000001194,247.912410013229,1.00000000029467,0.513237731536093
8200.0000000123,249.257460496298,1.00000000029854,0.519946913546473
8300.00000001266,250.39282607102,1.00000000028199,0.51413605682145
8400.00000001303,251.304429213673,1.00000000025225,0.49734051269634
8500.00000001339,251.963326076411,1.00000000023354,0.481718012589684
8600.00000001376,252.36535304122,1.00000000023165,0.484832162280371
8700.00000001412,252.551977594768,1.00000000026173,0.506297953827895
8800.00000001448,252.58827528392,1.00000000029152,0.526946090420909
8900.00000001485,252.524183424148,1.0000000003044,0.532408614622665
9000.00000001521,252.356942480258,1.00000000029583,0.517098609152378
9100.00000001557,252.03832233638,1.00000000023293,0.484225348238945
9200.00000001594,251.511180360544,1.00000000018476,0.455381748193047
9300.0000000163,250.763858734628,1.00000000017313,0.458800312583323
9400.00000001667,249.852889743581,1.00000000023306,0.491456482501937
9500.00000001703,248.864620016448,1.0000000002938,0.525433034388788
9600.00000001739,247.86797402904,1.000000000348,0.544034957558107
9700.00000001776,246.883503754352,1.00000000035783,0.54037079303305
9800.00000001812,245.880035276794,1.00000000029234,0.511860786726286
9900.00000001848,244.787084980062,1.00000000021452,0.462552432018944
10000.0000000188,243.538672351098,1.00000000014183,0.41756211300585
10100.0000000192,242.122572062535,1.00000000013297,0.416429901272865
10200.0000000196,240.58788767378,1.00000000020215,0.460409000397497
10300.0000000199,239.015255887457,1.00000000029427,0.508533151674124
10400.0000000203,237.47257836312,1.00000000037428,0.538664129676664
10500.0000000207,235.996293809772,1.00000000039751,0.550680927755084
10600.000000021,234.586181246545,1.00000000037694,0.542683954224898
10700.0000000214,233.204897980354,1.00000000033201,0.508747506951669
10800.0000000218,231.791193121524,1.00000000022653,0.450247922886617
10900.0000000221,230.285063677058,1.00000000014019,0.386492895398864
11000.0000000225,228.665055341061,1.00000000010005,0.359913054093673
11100.0000000229,226.955471635745,1.00000000015254,0.39223278116045
11200.0000000232,225.209085006211,1.00000000024048,0.454370923321811
11300.0000000236,223.477177905014,1.00000000033741,0.505448359175206
11400.0000000239,221.796039741897,1.00000000040532,0.534097750896421
11500.0000000243,220.186737106002,1.00000000041945,0.545746460114547
11600.0000000247,218.652475608757,1.00000000039603,0.544627867288445
11700.000000025,217.177525667082,1.00000000036075,0.52753093604111
11800.0000000254,215.727099718311,1.00000000030288,0.486468789968502
11900.0000000258,214.258746274062,1.00000000021678,0.422465408127259
12000.0000000261,212.73848594534,1.00000000014452,0.357120633387319
12100.0000000265,211.157964563855,1.00000000009999,0.324066224521007
12200.0000000269,209.53547142009,1.00000000012115,0.340412276052797
12300.0000000272,207.8993178316,1.00000000019087,0.395260661412385
12400.0000000276,206.272610278573,1.00000000028883,0.456963187142201
12500.0000000279,204.671759146092,1.00000000036842,0.499751796144224
12600.0000000283,203.109795569671,1.00000000038247,0.521022117230721
12700.0000000287,201.595959643654,1.00000000039699,0.52934618077343
12800.000000029,200.134190495727,1.00000000039685,0.533608401955317
12900.0000000294,198.720750630054,1.00000000036985,0.531251003946921
13000.0000000298,197.343465536802,1.00000000032021,0.514111843528152
13100.0000000301,195.984112222759,1.00000000028466,0.478980254669754
13200.0000000305,194.623911828194,1.00000000024005,0.429151767210877
13300.0000000309,193.250814971677,1.00000000017961,0.375364246791845
13400.0000000312,191.863539256363,1.00000000014035,0.334920081715678
13500.0000000316,190.47132971907,1.00000000012759,0.324428858594349
13600.0000000319,189.088088221994,1.00000000015028,0.343695452572996
13700.0000000323,187.723409150533,1.00000000019819,0.383508897045183
13800.0000000327,186.379059393839,1.00000000025968,0.435371869804482
13900.000000033,185.052687768455,1.00000000030208,0.47882012254995
14000.0000000334,183.742366827182,1.00000000032736,0.500956383558052
14100.0000000338,182.448095609048,1.00000000034335,0.504701347204219
14200.0000000341,181.171473724587,1.00000000037091,0.503167121174029
14300.0000000345,179.915299424758,1.00000000037014,0.509628666540866
14400.0000000349,178.682302664722,1.0000000003648,0.522915503656586
14500.0000000352,177.472935481373,1.00000000035678,0.530258502347064
14600.0000000356,176.284126185217,1.00000000034357,0.520571904231534
14700.0000000359,175.110408286954,1.000000000278,0.49185577588608
14800.0000000363,173.946677511623,1.000000000222,0.44904132146341
14900.0000000367,172.792130455344,1.00000000017951,0.40456744532539
15000.000000037,171.65183356916,1.00000000015826,0.368383015715872
15100.0000000374,170.534161621178,1.00000000016556,0.346973225541221
15200.0000000378,169.446808610206,1.00000000018002,0.343074784269539
15300.0000000381,168.394265155424,1.00000000018712,0.360651461212784
15400.0000000385,167.376469838225,1.00000000021437,0.388412667646408
15500.0000000389,166.388004699028,1.00000000023954,0.416346449707587
15600.0000000392,165.418792941539,1.00000000028194,0.445711246827424
15700.0000000396,164.458848814828,1.00000000031601,0.477099957302793
15800.0000000399,163.502709141532,1.00000000030833,0.498968469712184
15900.0000000403,162.550684010846,1.00000000029084,0.502847671383305
16000.0000000407,161.605502574388,1.00000000026776,0.490200652860871
16100.000000041,160.667667979316,1.00000000027331,0.474589141572429
16200.0000000414,159.734491140945,1.00000000032358,0.473386037895111
16300.0000000418,158.801787182892,1.00000000036048,0.487901089451716
16400.0000000418,157.867279504893,1.00000000037548,0.510145541646895
16500.0000000404,156.932537557329,1.00000000040082,0.529672350789693
16600.0000000389,156.001671222408,1.00000000037848,0.535697827982687
16700.0000000375,155.078766636777,1.00000000032616,0.525082274604311
16800.000000036,154.167220905834,1.0000000002881,0.498693235623996
16900.0000000346,153.271206375039,1.00000000022649,0.460312956836701
17000.0000000331,152.398120259945,1.00000000016824,0.41740018473599
17100.0000000317,151.558392638756,1.00000000014028,0.379943667529101
17200.0000000302,150.761541346626,1.00000000013246,0.355030769247988
17300.0000000287,150.012192469509,1.00000000015215,0.346493635400561
17400.0000000273,149.307995137972,1.00000000019878,0.352181354663392
17500.0000000258,148.642791596113,1.00000000023039,0.368989737962178
17600.0000000244,148.009692939457,1.00000000024804,0.393787460814967
17700.0000000229,147.400845374021,1.00000000027236,0.421113988482892
17800.0000000215,146.807239691685,1.00000000029462,0.444609048490995
17900.00000002,146.218847882079,1.00000000031476,0.462129503626407
18000.0000000186,145.626958200788,1.00000000033477,0.47766156702444
18100.0000000171,145.025980205093,1.00000000033562,0.490743035996853
18200.0000000156,144.41593257582,1.00000000030646,0.500649848122864
18300.0000000142,143.801608208779,1.00000000028303,0.503041993518492
18400.0000000127,143.190636732682,1.00000000025041,0.495760592322305
18500.0000000113,142.589741964974,1.00000000022944,0.481825810691982
18600.0000000098,142.001066401469,1.00000000022996,0.468297291962494
18700.0000000084,141.41993326362,1.00000000025269,0.461807476980794
18800.0000000069,140.836797334154,1.00000000029962,0.462808023754468
18900.0000000055,140.241851110875,1.00000000033254,0.473657923072288
19000.000000004,139.628703825567,1.00000000037024,0.488318485411456
19100.0000000026,138.996284603392,1.00000000038592,0.504472968174244
19200.0000000011,138.347678547005,1.0000000003763,0.52054542458628
19299.9999999996,137.68902138065,1.00000000036458,0.531389310219838
19399.9999999982,137.027224128497,1.00000000034996,0.53203732169784
19499.9999999967,136.368779839903,1.00000000032067,0.52073765573648
19599.9999999953,135.720625878974,1.00000000027199,0.498518704859549
19699.9999999938,135.089887670444,1.00000000022539,0.468510678912574
19799.9999999924,134.485218813057,1.00000000018395,0.436749537656719
19899.9999999909,133.916502240914,1.00000000016901,0.409951194158886
19999.9999999895,133.392499138495,1.00000000015716,0.388628743855068
20099.999999988,132.920836044949,1.00000000015232,0.371157119495974
20199.9999999865,132.505406693985,1.00000000016774,0.361076194984096
20299.9999999851,132.144102369783,1.0000000001866,0.359287043395981
20399.9999999836,131.827541273675,1.00000000021596,0.37034132192642
20499.9999999822,131.542515382581,1.0000000002478,0.392612262486001
20599.9999999807,131.276240368412,1.00000000027297,0.41778145393466
20699.9999999793,131.018377681929,1.00000000029472,0.438862202347112
20799.9999999778,130.764677780103,1.00000000029942,0.453824167924306
20899.9999999764,130.513683499519,1.00000000028503,0.465248517413445
20999.9999999749,130.264530524895,1.00000000026993,0.472443071144739
21099.9999999734,130.016757622839,1.00000000027182,0.475803142902442
21199.999999972,129.7679292989,1.00000000027439,0.479695899174893
21299.9999999705,129.512438969576,1.00000000028823,0.485919304300058
21399.9999999691,129.244055013488,1.00000000031805,0.494882214198203
21499.9999999676,128.958120539796,1.00000000033592,0.505804653113093
21599.9999999662,128.651873569056,1.00000000034825,0.51621028668538
21699.9999999647,128.327643478082,1.0000000003358,0.522772273766501
21799.9999999633,127.99064373568,1.00000000028654,0.523025092416897
21899.9999999618,127.647765157429,1.00000000025622,0.518447367964151
21999.9999999603,127.30593210831,1.00000000024266,0.51101218454247
22099.9999999589,126.969999889523,1.00000000023419,0.50271801957404
22199.9999999574,126.639787703805,1.00000000022928,0.496263016181713
22299.999999956,126.312017252645,1.00000000024703,0.492606349046168
22399.9999999545,125.983121951231,1.00000000026276,0.487938246292111
22499.9999999531,125.649040193054,1.00000000028167,0.481835025831593
22599.9999999516,125.307072043519,1.00000000028874,0.479722662680144
22699.9999999502,124.95381283285,1.00000000030965,0.482241306147048
22799.9999999487,124.585362540066,1.00000000033111,0.491091195155799
22899.9999999473,124.19783808324,1.00000000035403,0.504798731427034
22999.9999999458,123.790370932469,1.00000000037489,0.520143556831082
23099.9999999443,123.365425944928,1.00000000037118,0.532854681989388
23199.9999999429,122.927792339425,1.00000000036719,0.538742773148088
23299.9999999414,122.4834643375,1.00000000033579,0.538338782415138
23399.99999994,122.038798368513,1.00000000031367,0.530162832833835
23499.9999999385,121.600992182212,1.00000000027674,0.512997022299162
23599.9999999371,121.178130936857,1.00000000023857,0.489705744934645
23699.9999999356,120.779269025182,1.00000000020462,0.465058465405018
23799.9999999342,120.414097750352,1.0000000001644,0.440341280569155
23899.9999999327,120.091878074542,1.00000000015079,0.418200277791809
23999.9999999312,119.81941089496,1.00000000015261,0.402471525108448
24099.9999999298,119.599691442038,1.00000000016354,0.390160328538217
24199.9999999283,119.431998230309,1.00000000018916,0.381379100738263
24299.9999999269,119.313353262227,1.00000000020323,0.379417169218337
24399.9999999254,119.239376954588,1.00000000020823,0.381230130938894
24499.999999924,119.204153307098,1.00000000022309,0.386196657090055
24599.9999999225,119.199632451952,1.0000000002343,0.39486115859581
24699.9999999211,119.216412821225,1.00000000025968,0.406809538828856
24799.9999999196,119.244187772305,1.00000000028017,0.421948786592847
24899.9999999181,119.27305298969,1.00000000028937,0.43958529797647
24999.9999999167,119.294840393218,1.0000000003256,0.454384872860049
25099.9999999152,119.304580073096,1.0000000003047,0.466136057822078
25199.9999999138,119.301445465398,1.00000000030531,0.476353876688283
25299.9999999123,119.287316125524,1.00000000028725,0.486204101525394
25399.9999999109,119.265542398228,1.00000000028517,0.49505051220674
25499.9999999094,119.240090989719,1.0000000002718,0.501074300306397
25599.999999908,119.214924637742,1.00000000024743,0.503681423903517
25699.9999999065,119.193268289365,1.00000000024059,0.504056837699
25799.9999999051,119.176254790707,1.00000000024619,0.504724065720337
25899.9999999036,119.161883094393,1.00000000025694,0.505006100480623
25999.9999999021,119.1447242863,1.00000000026019,0.506604152039128
26099.9999999007,119.117562967492,1.00000000026104,0.510476108282271
26199.9999998992,119.073699897159,1.00000000030804,0.515046255575987
26299.9999998978,119.008786065445,1.0000000003156,0.520082201520853
26399.9999998963,118.9210979609,1.00000000031407,0.520625524216093
26499.9999998949,118.810715354415,1.0000000003132,0.517741946437926
26599.9999998934,118.678545546665,1.00000000031399,0.512879009853134
26699.999999892,118.525674602167,1.00000000030105,0.50977733597319
26799.9999998905,118.353869811263,1.00000000030163,0.513563708563511
26899.999999889,118.165686786085,1.00000000029223,0.521463445968798
26999.9999998876,117.965217555597,1.00000000029505,0.526984669314368
27099.9999998861,117.758086040768,1.00000000027731,0.525521008925715
27199.9999998847,117.550025208675,1.00000000025801,0.518937432395964
27299.9999998832,117.345604199211,1.00000000024985,0.512089911734573
27399.9999998818,117.147277768702,1.00000000023434,0.508631661261495
27499.9999998803,116.955912449425,1.00000000022213,0.5082886928012
27599.9999998789,116.771144912954,1.00000000022775,0.509370247999674
27699.9999998774,116.59144556523,1.00000000023172,0.51197151846532
27799.9999998759,116.414051872873,1.00000000025573,0.514479163455421
27899.9999998745,116.235172020264,1.00000000026283,0.515811335822517
27999.999999873,116.051256343373,1.00000000027332,0.517224325185079
28099.9999998716,115.859719916836,1.0000000002763,0.519231782479295
28199.9999998701,115.658530530152,1.00000000029161,0.518274752261719
28299.9999998687,115.44606235561,1.00000000030686,0.514867008738141
28399.9999998672,115.22107562675,1.0000000003329,0.511453546075548
28499.9999998658,114.982441801137,1.00000000033878,0.509593304500504
28599.9999998643,114.729256194046,1.00000000035191,0.510441054616868
28699.9999998629,114.46078192797,1.00000000037195,0.515642892061036
28799.9999998614,114.17708973347,1.00000000037365,0.523961239419673
28899.9999998599,113.879928829898,1.00000000038043,0.531934668220888
28999.9999998585,113.572599261137,1.00000000037505,0.5374263401633
