Time,AGPnorm,Energy,Entropy
0,0,1,-1.15123139980848e-17
99.9999999999986,2.10243089668564e-05,0.999999999999001,0.000920719559790128
199.999999999993,0.00186504997619774,1.00000000000046,0.00146261313059665
300,0.00462472863060613,0.999999999999273,0.00256291516825238
400.000000000022,0.00640647857818887,0.999999999999658,0.00440916479301769
500.000000000045,0.00776498382349206,1.00000000000019,0.00587783543030306
600.000000000068,0.011106642640284,0.999999999998985,0.00821579996579461
700.000000000091,0.0136616105488524,1.00000000000028,0.0105356180915526
800.000000000113,0.0176190763333661,0.999999999999582,0.0129345930008527
900.000000000136,0.0222072077532887,0.999999999999404,0.0159573663587874
1000.00000000016,0.0257757311589174,1.00000000000025,0.0187112360129941
1100.0000000001,0.0307694917198588,0.999999999999103,0.0219576700903894
1200,0.0359183859495922,1.00000000000007,0.0253861164584889
1299.99999999991,0.0415130130926612,0.999999999999847,0.0287494386985054
1399.99999999982,0.0477854773762054,0.999999999999227,0.0326436490417308
1499.99999999973,0.0535116539975377,1.00000000000019,0.0364011762193564
1599.99999999964,0.060236068748689,0.999999999999318,0.0404403309257215
1699.99999999955,0.067355813057363,0.999999999999851,0.0448020190873601
1799.99999999946,0.0742327161369633,1.00000000000002,0.0490609091811557
1899.99999999937,0.0816422682302114,0.999999999999167,0.0537735770482601
1999.99999999928,0.0890463420359998,1.00000000000007,0.0584896544703278
2099.99999999919,0.0971942825863955,0.999999999999558,0.0633916864555159
2199.99999999909,0.105691149812444,0.999999999999641,0.0686936772241853
2299.999999999,0.113641941875391,1.00000000000005,0.0739344072534536
2399.99999999891,0.121774828383031,0.999999999999267,0.0795716437302844
2499.99999999882,0.130349765806319,0.99999999999994,0.085388351161252
2599.99999999873,0.139278266067611,0.999999999999797,0.0913687118127973
2699.99999999864,0.148471954642787,0.99999999999946,0.097828801069348
2799.99999999855,0.157163342386094,0.999999999999961,0.104344403492365
2899.99999999846,0.165825486187259,0.999999999999462,0.111262926295418
2999.99999999837,0.175064371927856,0.999999999999867,0.118611269201318
3099.99999999828,0.184211878731458,1.00000000000007,0.126194876138772
3199.99999999819,0.193471775019137,0.999999999999432,0.134459694697157
3299.99999999809,0.202358269203375,1.00000000000008,0.143070416343842
3399.999999998,0.211458000792586,1.00000000000009,0.152331638284323
3499.99999999791,0.220731551898061,1.00000000000111,0.162481218382979
3599.99999999782,0.229843893695079,1.00000000000315,0.173221871149636
3699.99999999773,0.239108781994144,1.00000000000544,0.185011680012049
3799.99999999764,0.247132183441494,1.00000000001128,0.197569553727656
3899.99999999755,0.25775363047449,1.00000000001979,0.210764437573652
3999.99999999746,0.267102686783948,1.00000000003168,0.224770339963868
4099.99999999738,0.277224491288127,1.00000000005133,0.238735922177612
4199.99999999775,0.294223047777809,1.00000000006493,0.25296123715744
4299.99999999811,0.307620468208852,1.00000000008531,0.267111973695606
4399.99999999848,0.337341559373191,1.00000000011282,0.2808838903904
4499.99999999884,0.376103389019282,1.0000000001388,0.294766997068779
4599.9999999992,0.426204078917372,1.00000000017595,0.307980670416208
4699.99999999957,0.515678077325882,1.00000000019625,0.321020133687761
4799.99999999993,0.621681695748481,1.00000000023229,0.333774263557403
4900.00000000029,0.781090633792599,1.00000000025439,0.346005443219674
5000.00000000066,0.999162515295667,1.00000000028868,0.357999479769438
5100.00000000102,1.26716911742425,1.00000000031757,0.369588058033629
5200.00000000139,1.63783003876865,1.00000000034392,0.380638195459006
5300.00000000175,2.08591463262967,1.00000000036144,0.39160695148899
5400.00000000211,2.64456075707099,1.00000000039999,0.401832632143662
5500.00000000248,3.34123618066927,1.00000000041681,0.411780519826885
5600.00000000284,4.15098124303704,1.00000000043084,0.421459484466306
5700.00000000321,5.13227516644739,1.0000000004744,0.430446653944988
5800.00000000357,6.27083973422014,1.000000000471,0.439388432664879
5900.00000000393,7.57657943386424,1.00000000048261,0.447837824396388
6000.0000000043,9.09148949953441,1.00000000051043,0.45572163572774
6100.00000000466,10.7831053603914,1.00000000052186,0.463508022155388
6200.00000000502,12.6923558004136,1.00000000055956,0.470659521450606
6300.00000000539,14.8221730919819,1.00000000056116,0.477538956375065
6400.00000000575,17.1565991914465,1.00000000057001,0.484213166524184
6500.00000000612,19.7356189509358,1.00000000059278,0.490286343576848
6600.00000000648,22.5320725966483,1.00000000058341,0.496407442983385
6700.00000000684,25.5580157688767,1.00000000060714,0.501927678108457
6800.00000000721,28.8286226903083,1.00000000061272,0.507115742062967
6900.00000000757,32.3146806594452,1.00000000061806,0.512163258401039
7000.00000000793,36.0391567199532,1.00000000063677,0.516779885839325
7100.0000000083,39.9876918859452,1.00000000065873,0.521243825631306
7200.00000000866,44.1477446959066,1.00000000064019,0.525447291916088
7300.00000000903,48.5354832039395,1.00000000065455,0.529315541709639
7400.00000000939,53.1229317720143,1.00000000065702,0.533028095831267
7500.00000000975,57.9109168203739,1.00000000066434,0.53647423985711
7600.00000001012,62.8966459263628,1.00000000067064,0.539555628871203
7700.00000001048,68.0561176871605,1.00000000066312,0.542682955175421
7800.00000001084,73.3954680605109,1.00000000066081,0.545547463127471
7900.00000001121,78.8974744462958,1.00000000064275,0.548196388900068
8000.00000001157,84.5453217998378,1.00000000063467,0.550740223729247
8100.00000001194,90.341325524486,1.00000000065064,0.552855988531276
8200.0000000123,96.2619763015158,1.00000000064733,0.555070134060393
8300.00000001266,102.299626604516,1.00000000065066,0.557024967429998
8400.00000001303,108.449466684088,1.00000000064773,0.558691824731351
8500.00000001339,114.685155892123,1.00000000062341,0.560545879149544
8600.00000001376,121.008063746767,1.00000000062289,0.56206274905089
8700.00000001412,127.402016459539,1.000000000634,0.563221516926934
8800.00000001448,133.848602246997,1.00000000063314,0.564583549899759
8900.00000001485,140.349942497498,1.00000000062672,0.565717364985712
9000.00000001521,146.88042555142,1.00000000060379,0.566812358603286
9100.00000001557,153.435585527485,1.00000000061935,0.567740832872643
9200.00000001594,160.010186771728,1.00000000062274,0.568436193423535
9300.0000000163,166.578473349602,1.00000000058859,0.569337262822658
9400.00000001667,173.145347181448,1.00000000059538,0.570024178190388
9500.00000001703,179.691412859532,1.00000000060167,0.570317583784589
9600.00000001739,186.206536854277,1.00000000059689,0.571146814234659
9700.00000001776,192.692271596903,1.0000000005895,0.571284295413258
9800.00000001812,199.124024660405,1.00000000058175,0.571929766711604
9900.00000001848,205.503930136024,1.00000000057379,0.572219219224622
10000.0000000188,211.822567873949,1.00000000057592,0.572325855183926
10100.0000000192,218.06487205051,1.0000000005849,0.572692023458739
10200.0000000196,224.235876950237,1.00000000056307,0.57270139474561
10300.0000000199,230.31766782784,1.00000000055428,0.573044363316682
10400.0000000203,236.306919619997,1.00000000054114,0.572867628298515
10500.0000000207,242.202414387589,1.00000000054523,0.573400744008254
10600.000000021,247.989032268168,1.00000000054294,0.572803230458228
10700.0000000214,253.671192279071,1.00000000054513,0.572885694750896
10800.0000000218,259.23860410551,1.00000000053386,0.573320440699025
10900.0000000221,264.685229630061,1.00000000053814,0.571959966372892
11000.0000000225,270.013785542227,1.00000000052757,0.572890722607168
11100.0000000229,275.212028578703,1.00000000050851,0.572412762740446
11200.0000000232,280.282228122178,1.00000000050937,0.571494124729084
11300.0000000236,285.220058982332,1.00000000050736,0.57263839869503
11400.0000000239,290.019095158767,1.0000000004949,0.571174793010041
11500.0000000243,294.683356350203,1.00000000048068,0.571151617824683
11600.0000000247,299.20303511304,1.00000000050062,0.571571374935728
11700.000000025,303.584103618549,1.00000000046897,0.570193922190459
11800.0000000254,307.819268361322,1.00000000047854,0.570352230910329
11900.0000000258,311.907522644698,1.0000000004749,0.570604672668298
12000.0000000261,315.854559044442,1.00000000048102,0.568904868001456
12100.0000000265,319.64889464171,1.00000000046411,0.569724679660037
12200.0000000269,323.299052215258,1.00000000045888,0.568821632562313
12300.0000000272,326.802052853109,1.00000000044311,0.568074060311245
12400.0000000276,330.15292215592,1.00000000045383,0.568728013227754
12500.0000000279,333.362797699637,1.00000000043685,0.567750140832134
12600.0000000283,336.421192969343,1.00000000043623,0.567243957798409
12700.0000000287,339.333125464522,1.00000000043112,0.567385487147726
12800.000000029,342.103105418546,1.00000000043054,0.566125956655439
12900.0000000294,344.72271177569,1.00000000042041,0.566466300164628
13000.0000000298,347.204500741846,1.00000000044292,0.56644792951134
13100.0000000301,349.543509162552,1.00000000039737,0.565056388065734
13200.0000000305,351.738802505122,1.00000000041456,0.564504549220602
13300.0000000309,353.799563683163,1.00000000040455,0.565180261656135
13400.0000000312,355.720287593298,1.00000000039957,0.565236402199745
13500.0000000316,357.50913066225,1.00000000039371,0.564110811683591
13600.0000000319,359.164687623633,1.00000000037843,0.563240298198422
13700.0000000323,360.686455443025,1.00000000039096,0.562545837393515
13800.0000000327,362.082025253498,1.00000000037044,0.563408860741445
13900.000000033,363.348897445099,1.0000000003889,0.565270235240373
14000.0000000334,364.497526963461,1.00000000038752,0.563736410990064
14100.0000000338,365.525652886566,1.00000000037128,0.559939872716793
14200.0000000341,366.42893710606,1.00000000035481,0.559298320323695
14300.0000000345,367.216204473439,1.00000000037486,0.563041173256141
14400.0000000349,367.892976930959,1.00000000038413,0.56692836171996
14500.0000000352,368.468752425274,1.00000000036448,0.563594129208731
14600.0000000356,368.93984576338,1.00000000035175,0.55760886334715
14700.0000000359,369.296953957719,1.00000000032617,0.554714024730274
14800.0000000363,369.549001933253,1.00000000035812,0.560547249219633
14900.0000000367,369.706552173882,1.00000000037437,0.568194681997053
15000.000000037,369.784863472183,1.00000000038139,0.566913754470636
15100.0000000374,369.783823487998,1.00000000034808,0.558362477034502
15200.0000000378,369.685233658332,1.00000000031271,0.549196537329345
15300.0000000381,369.491590730521,1.00000000030439,0.551143628707022
15400.0000000385,369.210952564328,1.0000000003634,0.564605887082481
15500.0000000389,368.871462552604,1.000000000379,0.570554919858891
15600.0000000392,368.481077494135,1.00000000040817,0.566299631703382
15700.0000000396,368.027847877375,1.00000000032295,0.549951003401906
15800.0000000399,367.491018441509,1.00000000028589,0.54062949148859
15900.0000000403,366.869711980192,1.00000000031359,0.546241312732092
16000.0000000407,366.186554407829,1.0000000003722,0.56543218113189
16100.000000041,365.470583234557,1.00000000040631,0.573448352897572
16200.0000000414,364.72647343212,1.0000000004039,0.566394256507017
16300.0000000418,363.94251611778,1.00000000033252,0.546179763828729
16400.0000000418,363.09051640774,1.00000000028438,0.530675355131886
16500.0000000404,362.16450592905,1.00000000028768,0.53308379943948
16600.0000000389,361.185562428413,1.00000000035834,0.55671211863775
16700.0000000375,360.184729564455,1.00000000043129,0.575486760292908
16800.000000036,359.182324041408,1.00000000045115,0.573265528921832
16900.0000000346,358.166123402094,1.00000000037243,0.551222972574547
17000.0000000331,357.107942725824,1.00000000029249,0.526595152301192
17100.0000000317,355.988479661897,1.00000000024168,0.513820204672028
17200.0000000302,354.809872136538,1.00000000029016,0.530027251723859
17300.0000000287,353.605508794128,1.00000000039828,0.562539512006633
17400.0000000273,352.404859040448,1.00000000047078,0.57912159139429
17500.0000000258,351.216964972862,1.00000000045072,0.570297836442441
17600.0000000244,350.027159975209,1.00000000036694,0.543666302128984
17700.0000000229,348.805509067356,1.00000000028729,0.514553854125191
17800.0000000215,347.534683937082,1.00000000022786,0.499828608222941
17900.00000002,346.215445824652,1.00000000028636,0.515504262925449
18000.0000000186,344.87512813339,1.0000000003953,0.553974125358863
18100.0000000171,343.546002036,1.00000000049222,0.578611883026665
18200.0000000156,342.239886446359,1.00000000049764,0.575557025047658
18300.0000000142,340.948343962544,1.00000000042307,0.552333651191735
18400.0000000127,339.648356386599,1.00000000032813,0.518637941477626
18500.0000000113,338.315403797985,1.00000000023612,0.493453653158817
18600.0000000098,336.942965945851,1.00000000023483,0.490616361590819
18700.0000000084,335.539992154576,1.00000000031678,0.518872785044608
18800.0000000069,334.134562950183,1.00000000043456,0.559390678354878
18900.0000000055,332.7495481266,1.00000000050539,0.579327792827649
19000.000000004,331.39114033182,1.00000000050182,0.573745207014445
19100.0000000026,330.051585386542,1.00000000042287,0.548062635146007
19200.0000000011,328.709689647087,1.00000000033377,0.513655678677886
19299.9999999996,327.347787066129,1.00000000024806,0.487991868113663
19399.9999999982,325.957619057527,1.00000000023129,0.481928406248073
19499.9999999967,324.543552208012,1.00000000028285,0.501054950425397
19599.9999999953,323.12534206142,1.0000000003866,0.539064830019593
19699.9999999938,321.720911792708,1.00000000048186,0.569070847836187
19799.9999999924,320.341203615673,1.00000000051277,0.575872593536462
19899.9999999909,318.986378573736,1.00000000047318,0.560356516252118
19999.9999999895,317.644534561168,1.00000000041451,0.53291067243538
20099.999999988,316.302162706961,1.00000000032055,0.501213667636534
20199.9999999865,314.94633499668,1.00000000025782,0.48220773296245
20299.9999999851,313.573649646922,1.00000000024879,0.481014509137853
20399.9999999836,312.189338125774,1.0000000003022,0.497433053167385
20499.9999999822,310.803272197337,1.00000000037587,0.526808647264823
20599.9999999807,309.428668294669,1.00000000045345,0.554625442998791
20699.9999999793,308.074098554849,1.0000000005064,0.56758462481587
20799.9999999778,306.740675849846,1.00000000047997,0.561596765988663
20899.9999999764,305.425088962261,1.00000000044327,0.540278943909193
20999.9999999749,304.11722544091,1.00000000035805,0.514502517157925
21099.9999999734,302.809121689142,1.00000000031134,0.492722939618726
21199.999999972,301.495526746616,1.00000000028782,0.483885403635379
21299.9999999705,300.175713879671,1.00000000029443,0.48747966973815
21399.9999999691,298.854175537677,1.00000000031683,0.498415886089311
21499.9999999676,297.534506699521,1.00000000036017,0.51682879601072
21599.9999999662,296.224416668093,1.00000000044758,0.539476515237764
21699.9999999647,294.92925339652,1.00000000048044,0.552404855087869
21799.9999999633,293.650298451486,1.00000000048594,0.553351834737962
21899.9999999618,292.386692390069,1.00000000044048,0.540037095974221
21999.9999999603,291.133915372858,1.00000000038748,0.522768288025903
22099.9999999589,289.887507890218,1.0000000003426,0.507192317826571
22199.9999999574,288.644599357128,1.00000000031856,0.496363835883031
22299.999999956,287.403075285468,1.00000000029668,0.491268789852594
22399.9999999545,286.164026697458,1.0000000003057,0.492508730344886
22499.9999999531,284.92729932535,1.00000000033431,0.499582223147848
22599.9999999516,283.696081022705,1.00000000034848,0.509771838604075
22699.9999999502,282.472907553581,1.00000000039235,0.52096259917211
22799.9999999487,281.259844602133,1.00000000043878,0.533579591816011
22899.9999999473,280.058621193271,1.00000000043718,0.537098699208618
22999.9999999458,278.869154135706,1.00000000044741,0.536276478821007
23099.9999999443,277.689960341355,1.00000000040474,0.52832647699675
23199.9999999429,276.520160347622,1.00000000039602,0.520266259141616
23299.9999999414,275.357858763231,1.00000000035208,0.510934898314323
23399.99999994,274.202652809371,1.00000000034617,0.506630680016116
23499.9999999385,273.053939078328,1.00000000032703,0.503258099693187
23599.9999999371,271.911889380952,1.00000000032215,0.500572631326421
23699.9999999356,270.776633372088,1.00000000032553,0.500076448686595
23799.9999999342,269.647809140516,1.00000000032853,0.50128160098452
23899.9999999327,268.526843687532,1.0000000003583,0.50608089288794
23999.9999999312,267.414328531936,1.00000000037281,0.51268217982601
24099.9999999298,266.310646958631,1.00000000040047,0.519752140960836
24199.9999999283,265.21636424152,1.00000000042185,0.525573388574759
24299.9999999269,264.131094057987,1.00000000041571,0.528729898146403
24399.9999999254,263.054412688324,1.00000000039524,0.528352349822086
24499.999999924,261.98645600859,1.00000000037619,0.522522142619018
24599.9999999225,260.926627991322,1.00000000035834,0.518685172033031
24699.9999999211,259.875390362062,1.000000000363,0.519733536558311
24799.9999999196,258.832589139976,1.00000000034933,0.518559395962783
24899.9999999181,257.798942497807,1.00000000034826,0.515495340332242
24999.9999999167,256.774160533481,1.00000000033641,0.509282470363431
25099.9999999152,255.758319500709,1.00000000030205,0.50009942535647
25199.9999999138,254.751857377647,1.00000000030469,0.494302008333614
25299.9999999123,253.754536874538,1.00000000032328,0.492493594222468
25399.9999999109,252.766688376444,1.00000000033054,0.499343873595832
25499.9999999094,251.787860599015,1.0000000003789,0.508291834428147
25599.999999908,250.81692925155,1.00000000040363,0.51796678024751
25699.9999999065,249.85308384009,1.00000000042496,0.524277564143463
25799.9999999051,248.896248080921,1.00000000038358,0.527002810824563
25899.9999999036,247.946740490432,1.0000000003709,0.527009862190126
25999.9999999021,247.005425299951,1.00000000035443,0.52198664524689
26099.9999999007,246.072189531209,1.00000000036249,0.519519108567293
26199.9999998992,245.146959298478,1.00000000038979,0.527992903287935
26299.9999998978,244.229211024628,1.00000000040749,0.533554292457082
26399.9999998963,243.319522744408,1.00000000038839,0.528313938564616
26499.9999998949,242.41865069373,1.00000000037588,0.518825441546963
26599.9999998934,241.527685782801,1.00000000031651,0.504946482383129
26699.999999892,240.648471131223,1.00000000027692,0.488226550607635
26799.9999998905,239.781673826134,1.00000000027788,0.478427078839765
26899.999999889,238.927568867465,1.00000000030667,0.479415003006513
26999.9999998876,238.084722756305,1.00000000034838,0.488850737097639
27099.9999998861,237.250597221981,1.00000000038841,0.502778318304277
27199.9999998847,236.42255421709,1.00000000043426,0.513459823601606
27299.9999998832,235.598934054135,1.00000000042777,0.518696021166011
27399.9999998818,234.778959174915,1.00000000041314,0.521251324081949
27499.9999998803,233.964327172647,1.00000000036356,0.522141514683917
27599.9999998789,233.156583071201,1.00000000034873,0.521975190014105
27699.9999998774,232.356471624799,1.00000000033516,0.519796733567444
27799.9999998759,231.563386357309,1.0000000003667,0.520803969648457
27899.9999998745,230.775665219395,1.00000000040401,0.533507950197417
27999.999999873,229.992254019091,1.00000000042793,0.541892364064015
28099.9999998716,229.213446173623,1.00000000041476,0.53568389878649
28199.9999998701,228.44133265948,1.00000000040007,0.522588135240462
28299.9999998687,227.678303089996,1.00000000034326,0.508088405342102
28399.9999998672,226.927690653051,1.00000000027319,0.490391508472741
28499.9999998658,226.192101146038,1.00000000025881,0.474887335580661
28599.9999998643,225.472622084057,1.00000000024383,0.466805389521431
28699.9999998629,224.768408912688,1.00000000029683,0.472361996434096
28799.9999998614,224.075946110928,1.00000000034317,0.484143681177812
28899.9999998599,223.39104975296,1.00000000038591,0.4982851843729
