Time,AGPnorm,Energy,Entropy
0,0,1,-2.13561766921017e-19
99.9999999999986,0.00925351840208173,0.999999999997967,0.0245890979931456
199.999999999993,0.0241928152298633,1.0000000000004,0.0717949323639601
300,0.0478068356615093,1.00000000000005,0.144562591117925
400.000000000022,0.0717292156651095,1.0000000001444,0.255798579742755
500.000000000045,0.120778982857035,1.00000000119937,0.398495938703957
600.000000000068,0.512034427128057,1.00000000253884,0.500531679442373
700.000000000091,1.60413223249998,1.00000000334592,0.555731855544717
800.000000000113,3.47763116805308,1.00000000370413,0.581128817179608
900.000000000136,5.94577399264462,1.00000000321858,0.588094881914142
1000.00000000016,8.56802702398003,1.00000000325968,0.586150656097221
1100.0000000001,11.0712546811281,1.00000000303772,0.578712696263655
1200,13.1748208523722,1.00000000254054,0.567139232256599
1299.99999999991,14.7810299554466,1.00000000261631,0.560181331767874
1399.99999999982,15.8579787608791,1.00000000217247,0.548530126205835
1499.99999999973,16.4509392661411,1.0000000019095,0.541006658795568
1599.99999999964,16.6410681346094,1.00000000218539,0.570606697772877
1699.99999999955,16.494220528555,1.00000000155098,0.515829248356083
1799.99999999946,16.2279253950563,1.000000001995,0.532379060766131
1899.99999999937,15.7513135225055,1.00000000207375,0.52570439696353
1999.99999999928,15.3029573843797,1.0000000019942,0.518926412796307
2099.99999999919,14.7495186327973,1.00000000153387,0.448745351844813
2199.99999999909,14.2261220131549,1.0000000028999,0.57127346940824
2299.999999999,13.7325409098979,1.0000000012059,0.404665350702498
2399.99999999891,13.2061042025713,1.00000000213676,0.487707785558606
2499.99999999882,12.7177400454911,1.00000000261817,0.558085964316996
2599.99999999873,12.2772792572001,1.0000000014008,0.438209069773891
2699.99999999864,11.8588298630079,1.00000000177095,0.437917416246079
2799.99999999855,11.4481187886387,1.00000000224336,0.522537945128608
2899.99999999846,11.0585110699221,1.00000000264767,0.544675767679437
2999.99999999837,10.7010090187756,1.00000000188452,0.500581800719943
3099.99999999828,10.4116603835761,1.00000000116843,0.394463989431764
3199.99999999819,10.1440610463956,1.00000000234499,0.49694105935329
3299.99999999809,9.87397083816859,1.00000000181066,0.523963006761155
3399.999999998,9.61669169293148,1.00000000217975,0.531488577003248
3499.99999999791,9.35116971330567,1.00000000253442,0.55308089041138
3599.99999999782,9.10646143234487,1.00000000174048,0.50934950861326
3699.99999999773,8.94162489104799,1.0000000013907,0.417025525484349
3799.99999999764,8.83734506481202,1.00000000199097,0.464764021530974
3899.99999999755,8.71367033037125,1.00000000213079,0.527217344751306
3999.99999999746,8.58777627066117,1.00000000209109,0.548905545258256
4099.99999999738,8.44892235444572,1.00000000215064,0.559865601461991
4199.99999999775,8.30234604670327,1.00000000195681,0.560696719291041
4299.99999999811,8.15167513123802,1.00000000218543,0.548230666197198
4399.99999999848,7.98677495510747,1.00000000263521,0.569295549736563
4499.99999999884,7.83547327108989,1.00000000170288,0.5271174118332
4599.9999999992,7.76287614348747,1.00000000127053,0.436938714220345
4699.99999999957,7.77956527855984,1.00000000172646,0.450866557643875
4799.99999999993,7.79942114208213,1.0000000022052,0.501200548226861
4900.00000000029,7.7991161405622,1.00000000211849,0.546581599751098
5000.00000000066,7.77871796327962,1.00000000215819,0.564678728027498
5100.00000000102,7.74238286778503,1.00000000214876,0.582282256524727
5200.00000000139,7.70019776817355,1.00000000206907,0.572548517216344
5300.00000000175,7.64652926681769,1.00000000212363,0.572704116401
5400.00000000211,7.57411738200514,1.00000000215874,0.582779842157481
5500.00000000248,7.49446659488655,1.00000000207532,0.587565553266323
5600.00000000284,7.41359945620256,1.00000000205795,0.59127606689741
5700.00000000321,7.3245615221147,1.00000000230318,0.589746447337047
5800.00000000357,7.22640571436812,1.000000002758,0.586189145821599
5900.00000000393,7.12008683711449,1.00000000254068,0.576704031126768
6000.0000000043,7.02450605814313,1.00000000174236,0.538779270070698
6100.00000000466,6.99014565890483,1.00000000142847,0.473505581593631
6200.00000000502,7.05179280544744,1.00000000156438,0.459909977294796
6300.00000000539,7.17085945683048,1.0000000020515,0.49091692034445
6400.00000000575,7.28067143495765,1.00000000220043,0.527254699916781
6500.00000000612,7.3723725177417,1.00000000227891,0.550402652307286
6600.00000000648,7.44949219750996,1.00000000216207,0.574689909947753
6700.00000000684,7.50601842081669,1.00000000252641,0.602735275826238
6800.00000000721,7.53622693168537,1.00000000235026,0.609712218337106
6900.00000000757,7.54974076372749,1.00000000216844,0.628006982505539
7000.00000000793,7.54480543533208,1.00000000225701,0.62631582493616
7100.0000000083,7.52328855037018,1.00000000226445,0.628346531589691
7200.00000000866,7.50208803732943,1.00000000220525,0.622277612445227
7300.00000000903,7.48688879524621,1.00000000208127,0.605317377620989
7400.00000000939,7.46490338548347,1.00000000250464,0.594868753681286
7500.00000000975,7.43199506812342,1.0000000021804,0.608405407129924
7600.00000001012,7.40171696932881,1.00000000197064,0.612909970046964
7700.00000001048,7.37234771049043,1.00000000245182,0.62965400974528
7800.00000001084,7.33794153709357,1.00000000215287,0.628689982448499
7900.00000001121,7.30023586194202,1.00000000231173,0.617348900781525
8000.00000001157,7.26154122959193,1.00000000219205,0.606088216904404
8100.00000001194,7.2133569565683,1.00000000261518,0.63692859457244
8200.0000000123,7.15627533777518,1.00000000226914,0.643217468936258
8300.00000001266,7.09349167588413,1.00000000224757,0.634212463647793
8400.00000001303,7.03184466730271,1.00000000221201,0.636974228055494
8500.00000001339,6.96859114135586,1.00000000233683,0.642570717200187
8600.00000001376,6.9041883659128,1.00000000256673,0.651640306869946
8700.00000001412,6.84122897678017,1.00000000270029,0.661446699387724
8800.00000001448,6.77720695808403,1.00000000271782,0.642230375851416
8900.00000001485,6.70719557629081,1.00000000250909,0.617598566727604
9000.00000001521,6.63999698330213,1.00000000201061,0.576378996657364
9100.00000001557,6.60536432312477,1.00000000160513,0.526349947197478
9200.00000001594,6.63896598923874,1.0000000014766,0.489202133030375
9300.0000000163,6.75438982170744,1.000000001811,0.486988261336656
9400.00000001667,6.93024131376812,1.00000000218027,0.4988948560247
9500.00000001703,7.11971536608231,1.00000000232566,0.523782606541724
9600.00000001739,7.30309098834996,1.00000000247451,0.538327949726914
9700.00000001776,7.47305194849978,1.0000000024564,0.555096392695548
9800.00000001812,7.62646136183711,1.00000000247821,0.571282943070137
9900.00000001848,7.76674933554981,1.00000000240692,0.579803425115052
10000.0000000188,7.89061176917828,1.00000000266705,0.604419673219656
10100.0000000192,7.99332565291319,1.00000000247334,0.622479280738733
10200.0000000196,8.07851522531079,1.00000000253621,0.615670064227784
10300.0000000199,8.14530049345403,1.00000000244621,0.619362984784084
10400.0000000203,8.19452785584678,1.00000000254425,0.648250337854755
10500.0000000207,8.22723069063919,1.00000000265828,0.649161626772529
10600.000000021,8.24953108591291,1.0000000025211,0.649823149348682
10700.0000000214,8.26988152134066,1.00000000244989,0.6429775082201
10800.0000000218,8.28659880792908,1.00000000260032,0.651865758010741
10900.0000000221,8.29222729370546,1.00000000247893,0.64895037915697
11000.0000000225,8.29641649701459,1.00000000244685,0.652036021588331
11100.0000000229,8.29103198489839,1.00000000263215,0.652714366321806
11200.0000000232,8.27985593915946,1.00000000230232,0.654837653746102
11300.0000000236,8.26297941885979,1.00000000264832,0.65282035300825
11400.0000000239,8.24186167609036,1.00000000241615,0.650750044910907
11500.0000000243,8.21766209967223,1.00000000258605,0.668470769319383
11600.0000000247,8.18955449116832,1.0000000024703,0.657220341088585
11700.000000025,8.16106010402617,1.0000000025708,0.655404140810645
11800.0000000254,8.13320276641969,1.00000000249605,0.65022970013566
11900.0000000258,8.1080263143881,1.00000000258591,0.63343555249568
12000.0000000261,8.09257746059139,1.00000000256043,0.609343927848485
12100.0000000265,8.08644875682676,1.00000000248054,0.627906049193761
12200.0000000269,8.08798424345024,1.00000000246124,0.640542410300107
12300.0000000272,8.0900712636934,1.00000000231321,0.63472659051458
12400.0000000276,8.0859367289002,1.00000000293103,0.64020226924103
12500.0000000279,8.07815351854668,1.00000000232441,0.62431936734055
12600.0000000283,8.07724423389445,1.00000000250359,0.632447537660968
12700.0000000287,8.07111280334532,1.00000000269571,0.620714040884295
12800.000000029,8.06320447347923,1.00000000258511,0.632697261268577
12900.0000000294,8.06074337415456,1.00000000235046,0.637067229944513
13000.0000000298,8.05740633451947,1.00000000257479,0.650459386794674
13100.0000000301,8.04685963111293,1.00000000260613,0.634810826783711
13200.0000000305,8.03905396025595,1.00000000247829,0.646339786677412
13300.0000000309,8.03529335259043,1.00000000260176,0.651076488992098
13400.0000000312,8.03384361383431,1.00000000244265,0.643508123660698
13500.0000000316,8.03847227788875,1.00000000252061,0.640154766231644
13600.0000000319,8.04013615831281,1.00000000275342,0.646142813155756
13700.0000000323,8.03574469986444,1.00000000264691,0.650753479342935
13800.0000000327,8.02980837562222,1.00000000249411,0.654163690949788
13900.000000033,8.02543228779174,1.00000000296837,0.664620453563543
14000.0000000334,8.01764514052974,1.00000000266805,0.6602454567974
14100.0000000338,8.00899984771091,1.00000000274441,0.671672831621644
14200.0000000341,7.99420682750955,1.00000000273503,0.671289714300265
14300.0000000345,7.98011625027728,1.00000000250801,0.658296901175974
14400.0000000349,7.97021203107526,1.00000000271572,0.669623028207465
14500.0000000352,7.95885978997906,1.00000000264521,0.668823629608499
14600.0000000356,7.9484559489729,1.00000000282869,0.668407370079456
14700.0000000359,7.93607061462872,1.00000000266333,0.656300497377467
14800.0000000363,7.91966954761945,1.00000000273964,0.653876930531111
14900.0000000367,7.90046461392286,1.00000000268638,0.647298141486858
15000.000000037,7.88129451113345,1.00000000264947,0.652830609317943
15100.0000000374,7.8617952041647,1.00000000272477,0.654649058698486
15200.0000000378,7.84479356549704,1.00000000253865,0.651405581198571
15300.0000000381,7.83204547120451,1.00000000279586,0.65285379173219
15400.0000000385,7.81285833137724,1.00000000301111,0.681797427605979
15500.0000000389,7.78713946445239,1.00000000282124,0.661211742792598
15600.0000000392,7.76302774227863,1.00000000257579,0.652035983856586
15700.0000000396,7.74121808713509,1.00000000279633,0.658895925774331
15800.0000000399,7.71615795727507,1.00000000277783,0.669509987870358
15900.0000000403,7.68630936831678,1.00000000289356,0.67699654012729
16000.0000000407,7.65302164889922,1.00000000255731,0.668306685319986
16100.000000041,7.62047153577311,1.00000000280046,0.659554045727586
16200.0000000414,7.58508618991204,1.00000000290235,0.669607689518389
16300.0000000418,7.54614217406937,1.00000000286226,0.672853738991495
16400.0000000418,7.5056889677021,1.00000000276051,0.671788514067628
16500.0000000404,7.46402029308293,1.00000000265898,0.66980284346984
16600.0000000389,7.42233164128276,1.00000000273484,0.673020508325483
16700.0000000375,7.38074194095312,1.0000000026097,0.66330474520011
16800.000000036,7.34017901553199,1.0000000025265,0.660777510806059
16900.0000000346,7.30114540048058,1.00000000271242,0.654123476435035
17000.0000000331,7.26450170220535,1.00000000260099,0.652789216525829
17100.0000000317,7.23116873562318,1.00000000298653,0.643826577378887
17200.0000000302,7.20214791476197,1.00000000278605,0.663218897422417
17300.0000000287,7.17624384349404,1.00000000317843,0.66717495473218
17400.0000000273,7.15793153518164,1.00000000366458,0.676701145668999
17500.0000000258,7.13872605,1.00000000334697,0.684410776352187
17600.0000000244,7.12407079408233,1.00000000326465,0.681164339484131
17700.0000000229,7.10186732094437,1.00000000311556,0.666456188794368
17800.0000000215,7.07627582314902,1.00000000322864,0.645179009346543
17900.00000002,7.04080278818578,1.00000000314491,0.62237565521888
18000.0000000186,7.00235524784404,1.00000000279252,0.599983385209452
18100.0000000171,6.97327408110371,1.00000000249153,0.588015249665368
18200.0000000156,6.96681882295515,1.00000000226929,0.563805821351636
18300.0000000142,7.00674645742516,1.00000000246718,0.547469959417267
18400.0000000127,7.10665755999516,1.00000000211467,0.5274123534409
18500.0000000113,7.28537143050882,1.00000000237541,0.524206579757162
18600.0000000098,7.53042084103226,1.0000000024417,0.530983045701339
18700.0000000084,7.85104499324458,1.00000000266695,0.536562298656725
18800.0000000069,8.19487518978562,1.00000000290484,0.534931682482664
18900.0000000055,8.58235964797773,1.00000000303887,0.538773733472952
19000.000000004,8.95571703879518,1.00000000311474,0.5535206647054
19100.0000000026,9.34834255878583,1.00000000337186,0.55806502830734
19200.0000000011,9.72099174217131,1.00000000316899,0.563735609171115
19299.9999999996,10.096062559993,1.0000000033281,0.567425854980877
19399.9999999982,10.4589098161872,1.00000000331447,0.574426740615986
19499.9999999967,10.8090685611342,1.00000000324662,0.572476473420606
19599.9999999953,11.1629941636994,1.00000000311886,0.586954030067502
19699.9999999938,11.5060572950158,1.00000000306919,0.591925179176183
19799.9999999924,11.8507604751765,1.00000000285968,0.604406401168316
19899.9999999909,12.1819664627893,1.0000000029649,0.622909570543448
19999.9999999895,12.5032185990157,1.00000000314182,0.626779992344189
20099.999999988,12.8096202148126,1.00000000321574,0.644330161551664
20199.9999999865,13.0988097578401,1.00000000352285,0.641212274927646
20299.9999999851,13.3771013029471,1.00000000314063,0.647582323988038
20399.9999999836,13.6318871189173,1.0000000031973,0.653732309405046
20499.9999999822,13.8825608379009,1.00000000337868,0.657035867034838
20599.9999999807,14.0976632214626,1.00000000318185,0.654996630251996
20699.9999999793,14.3014610735306,1.00000000358285,0.671170997301477
20799.9999999778,14.4904608210383,1.00000000315038,0.661625166496039
20899.9999999764,14.6665460181676,1.00000000329957,0.662192476160706
20999.9999999749,14.8323178895226,1.00000000328519,0.666905522323708
21099.9999999734,14.978212717374,1.0000000035529,0.678209500281478
21199.999999972,15.1157054290657,1.00000000321268,0.681013988322484
21299.9999999705,15.2343201004528,1.00000000335265,0.694608857071531
21399.9999999691,15.3544939468044,1.00000000354908,0.694978341017677
21499.9999999676,15.4785869508919,1.00000000303841,0.690484145028507
21599.9999999662,15.5936548781639,1.00000000372661,0.699642530547076
21699.9999999647,15.6929176170893,1.00000000354751,0.699659805294649
21799.9999999633,15.7785172743608,1.00000000313729,0.702425748365324
21899.9999999618,15.8651876362813,1.00000000327679,0.690933960958458
21999.9999999603,15.9545630776911,1.00000000315938,0.676248699857348
22099.9999999589,16.0539697816254,1.00000000314331,0.678352795048011
22199.9999999574,16.1428463205182,1.00000000356457,0.678688845286147
22299.999999956,16.2181959032917,1.00000000344264,0.689782528920045
22399.9999999545,16.2886206443256,1.00000000317834,0.69210457039434
22499.9999999531,16.3564868470191,1.00000000266575,0.682385714613655
22599.9999999516,16.4307173306532,1.0000000033417,0.687892576369275
22699.9999999502,16.5012712026866,1.00000000329612,0.695109698873525
22799.9999999487,16.5665518927764,1.0000000036125,0.68120037558863
22899.9999999473,16.6251552363975,1.00000000312587,0.684380799818132
22999.9999999458,16.6803580814459,1.00000000358848,0.685827977249295
23099.9999999443,16.7327452646327,1.00000000354409,0.703943669863144
23199.9999999429,16.780670858292,1.00000000328386,0.660540134149241
23299.9999999414,16.8324862060171,1.00000000326743,0.6715235585688
23399.99999994,16.8770850795304,1.00000000323928,0.675925036334455
23499.9999999385,16.9196280883173,1.00000000309713,0.68409412397728
23599.9999999371,16.962520512415,1.00000000312713,0.683773265667616
23699.9999999356,17.009548256678,1.00000000338924,0.691879395049566
23799.9999999342,17.0544293804089,1.00000000364121,0.688614350639899
23899.9999999327,17.0992642779374,1.00000000345749,0.68420405034216
23999.9999999312,17.1521795267854,1.000000003135,0.665975256820041
24099.9999999298,17.2147349924761,1.00000000295897,0.671245827022499
24199.9999999283,17.2813636286455,1.00000000353248,0.686561989210337
24299.9999999269,17.344160002211,1.0000000033551,0.685738479823162
24399.9999999254,17.3965243769809,1.00000000321376,0.691312808045636
24499.999999924,17.4453641354453,1.00000000391484,0.68601614176965
24599.9999999225,17.4823463326942,1.00000000359774,0.655394641269498
24699.9999999211,17.5197228177048,1.00000000333347,0.665810891122526
24799.9999999196,17.5604659606874,1.00000000369923,0.66364398655177
24899.9999999181,17.6091318170383,1.00000000313959,0.657990633900537
24999.9999999167,17.6603347342831,1.00000000360485,0.681417058509668
25099.9999999152,17.7139421281069,1.0000000036537,0.677937616392275
25199.9999999138,17.7744005586993,1.00000000316454,0.670655440092238
25299.9999999123,17.8328490916311,1.0000000034997,0.680694141767506
25399.9999999109,17.888353187436,1.00000000375539,0.688194524930434
25499.9999999094,17.9381041525389,1.00000000402282,0.687398132455215
25599.999999908,17.9844150703937,1.00000000347072,0.684723756299974
25699.9999999065,18.0278063629681,1.00000000383176,0.683026998094589
25799.9999999051,18.0687205734217,1.00000000328086,0.679301027624212
25899.9999999036,18.1126625263759,1.00000000367179,0.663526915180525
25999.9999999021,18.1531748410145,1.00000000368897,0.684864208407248
26099.9999999007,18.1889456541478,1.00000000365188,0.694047148965501
26199.9999998992,18.2176158816697,1.00000000369074,0.68630555959927
26299.9999998978,18.2455601105307,1.00000000369345,0.692411499794105
26399.9999998963,18.2774939621006,1.00000000326988,0.700178239964945
26499.9999998949,18.3158759745017,1.00000000357426,0.689145078123078
26599.9999998934,18.3633927490797,1.00000000336099,0.688839457047613
26699.999999892,18.4171217057947,1.00000000312014,0.679882622170122
26799.9999998905,18.481788516796,1.00000000315963,0.667632656626503
26899.999999889,18.5599923430351,1.00000000336113,0.674503463397763
26999.9999998876,18.6437502193034,1.00000000400471,0.690208458257429
27099.9999998861,18.7244294502072,1.00000000388258,0.701639174253914
27199.9999998847,18.8050645258272,1.00000000353739,0.692969423867751
27299.9999998832,18.8842801400733,1.00000000350838,0.686176159526217
27399.9999998818,18.9565469674672,1.00000000361286,0.697874775804002
27499.9999998803,19.018340628218,1.00000000344174,0.676543689318651
27599.9999998789,19.0774705432261,1.0000000036319,0.680321860540252
27699.9999998774,19.1374169608374,1.0000000032985,0.674889607083911
27799.9999998759,19.2040789069721,1.00000000335623,0.67436124939374
27899.9999998745,19.2766815512557,1.00000000343183,0.68646877185084
27999.999999873,19.35103060359,1.0000000038556,0.692130266634468
28099.9999998716,19.4235369806759,1.00000000391158,0.689387949487345
28199.9999998701,19.5015751670455,1.00000000342066,0.674207183321271
28299.9999998687,19.5951299834841,1.00000000323791,0.676466786073851
28399.9999998672,19.6886737919465,1.00000000410416,0.688733168799876
28499.9999998658,19.7652662569085,1.00000000386339,0.684503479516843
28599.9999998643,19.8378048633649,1.00000000375133,0.677391292353396
28699.9999998629,19.9153928171891,1.00000000340466,0.659043174233335
28799.9999998614,19.9913398676883,1.0000000042339,0.67086500574571
28899.9999998599,20.0626911984704,1.00000000380503,0.659445748527044
28999.9999998585,20.1315803196222,1.00000000417394,0.679130626622491
29099.999999857,20.2005076808487,1.00000000333062,0.682438915436294
