Time,AGPnorm,Energy,Entropy
0,0,1,5.33904417302458e-19
99.9999999999986,0.002109025342436,1.00000000000038,0.0075246906143099
199.999999999993,0.0061559175258618,0.999999999999988,0.0219963650993288
300,0.013026289071755,1.00000000000043,0.0430702763840384
400.000000000022,0.0211339198401559,1.00000000000026,0.0687054744666732
500.000000000045,0.0308926842693211,1.00000000000054,0.0999114752211448
600.000000000068,0.0413566185722543,1.00000000000171,0.137199459230486
700.000000000091,0.0517915356257765,1.00000000000747,0.182920203254956
800.000000000113,0.0671917153006144,1.00000000003706,0.239266640080377
900.000000000136,0.0908731286346919,1.00000000012961,0.304559724318999
1000.00000000016,0.197564786234512,1.00000000027177,0.370459816318709
1100.0000000001,0.495649400258673,1.00000000042887,0.427541750770317
1200,1.22293380411195,1.00000000062227,0.471456000373484
1299.99999999991,2.57064211219809,1.00000000071983,0.503061649532466
1399.99999999982,4.7145156313225,1.00000000082055,0.523636480656775
1499.99999999973,7.70091191915884,1.00000000089502,0.53648198848922
1599.99999999964,11.4950312582212,1.00000000094165,0.543082818922664
1699.99999999955,15.9659382129002,1.00000000095449,0.544854692241585
1799.99999999946,20.9511855583283,1.00000000092052,0.543260185207289
1899.99999999937,26.2370056164062,1.0000000008893,0.541042051328869
1999.99999999928,31.6493801917421,1.00000000081656,0.534259617368086
2099.99999999919,36.9774703803683,1.00000000080513,0.530535798282461
2199.99999999909,42.0962962833113,1.00000000075782,0.52019012210499
2299.999999999,46.8506340077441,1.00000000072109,0.517845629443564
2399.99999999891,51.1796093685355,1.0000000006893,0.509644038004327
2499.99999999882,54.9869917704061,1.00000000061595,0.495139299286274
2599.99999999873,58.2585251492419,1.0000000006274,0.501005267839298
2699.99999999864,60.9994626560431,1.00000000058518,0.50143677188681
2799.99999999855,63.1699973401973,1.00000000054271,0.469563469362666
2899.99999999846,64.7643127135714,1.00000000055977,0.467093207561966
2999.99999999837,65.9035505030637,1.00000000056996,0.510204354989964
3099.99999999828,66.6981322005532,1.00000000053701,0.500358861020567
3199.99999999819,67.0413002277156,1.00000000038767,0.428091417224052
3299.99999999809,66.8840389062035,1.00000000035588,0.425181339539079
3399.999999998,66.4561323758869,1.0000000005776,0.50934977542272
3499.99999999791,66.0000299073598,1.00000000066343,0.543829088166544
3599.99999999782,65.4789054712203,1.00000000054438,0.47937406028846
3699.99999999773,64.6704267522567,1.00000000024563,0.357888859633338
3799.99999999764,63.5517919273427,1.00000000024625,0.364405920094943
3899.99999999755,62.3340153615997,1.00000000056221,0.479089807483988
3999.99999999746,61.2114786230284,1.00000000073987,0.545427676905926
4099.99999999738,60.244453451539,1.00000000075137,0.550999026116171
4199.99999999775,59.3402123731267,1.00000000053382,0.477273597590544
4299.99999999811,58.3262116652135,1.00000000026511,0.336595892946607
4399.99999999848,57.1602479463353,1.000000000155,0.267940992488766
4499.99999999884,55.9510764146598,1.00000000035565,0.363792241216701
4599.9999999992,54.7664581324258,1.00000000061714,0.475107058517872
4699.99999999957,53.6417131962614,1.00000000071319,0.510280685905907
4799.99999999993,52.616318268152,1.00000000075144,0.526916651807097
4900.00000000029,51.7037978327465,1.00000000075483,0.545646382801666
5000.00000000066,50.8511826665929,1.00000000054077,0.505979698838929
5100.00000000102,49.9780487510712,1.0000000003513,0.392866059658781
5200.00000000139,49.0694371082072,1.00000000021208,0.277562429921384
5300.00000000175,48.1941418258776,1.00000000018658,0.252683753320732
5400.00000000211,47.4083345675081,1.00000000031115,0.326527696782011
5500.00000000248,46.6734038722964,1.00000000052548,0.435098273466514
5600.00000000284,45.9273905469277,1.00000000065789,0.516654533804164
5700.00000000321,45.1692225326794,1.00000000059103,0.514787755328143
5800.00000000357,44.4204757766917,1.0000000005069,0.460196837516946
5900.00000000393,43.6835770150856,1.00000000056828,0.45690394507593
6000.0000000043,42.9609366952225,1.00000000072688,0.519655044580419
6100.00000000466,42.2715598376104,1.00000000078059,0.559856153117969
6200.00000000502,41.6227610870547,1.00000000069424,0.544889608564289
6300.00000000539,40.9921358830673,1.00000000049367,0.475577878607157
6400.00000000575,40.3727104203548,1.00000000025168,0.368105934738184
6500.00000000612,39.8214703784362,1.00000000014072,0.269441358144598
6600.00000000648,39.4188213535694,1.00000000016582,0.238849004354329
6700.00000000684,39.187188779045,1.00000000030486,0.284824387030177
6800.00000000721,39.0832638105376,1.00000000041795,0.364574608041663
6900.00000000757,39.0111242697309,1.00000000054162,0.444389158253626
7000.00000000793,38.8729266638069,1.00000000064615,0.492077207237089
7100.0000000083,38.6233876088391,1.00000000070071,0.510333308561247
7200.00000000866,38.2764458383382,1.00000000064506,0.53058871456789
7300.00000000903,37.879179150892,1.0000000005739,0.536425794289269
7400.00000000939,37.481879893208,1.0000000004099,0.492221296171066
7500.00000000975,37.1198287293145,1.00000000031682,0.440038488339617
7600.00000001012,36.7864699926116,1.00000000040335,0.443541482952708
7700.00000001048,36.4412425442541,1.0000000005177,0.474771272910856
7800.00000001084,36.0609741885853,1.00000000060797,0.493919987686351
7900.00000001121,35.6487468567891,1.00000000067111,0.498138712110373
8000.00000001157,35.217577600454,1.00000000073207,0.519175562661121
8100.00000001194,34.7871385065991,1.00000000077082,0.552544469701944
8200.0000000123,34.3729556364612,1.0000000007174,0.562344878436053
8300.00000001266,33.9731331723052,1.00000000053228,0.538442701202928
8400.00000001303,33.5781400638808,1.00000000042113,0.480704533329187
8500.00000001339,33.2013664599087,1.00000000025647,0.398850350771526
8600.00000001376,32.8980505660588,1.00000000015803,0.321070404047365
8700.00000001412,32.7442021778401,1.0000000001419,0.263626812164396
8800.00000001448,32.7990057784148,1.0000000001688,0.244259168188994
8900.00000001485,33.0812432352957,1.00000000022449,0.268986888874137
9000.00000001521,33.5527669796343,1.00000000030583,0.318319897210105
9100.00000001557,34.1179448345331,1.00000000045784,0.381371329726356
9200.00000001594,34.6673086855738,1.00000000055531,0.441766769344458
9300.0000000163,35.1273487607295,1.00000000059976,0.485281230094846
9400.00000001667,35.4645313290901,1.00000000063634,0.513192320215786
9500.00000001703,35.6724649902403,1.00000000058549,0.536793438955542
9600.00000001739,35.76825512846,1.00000000059399,0.549948071496976
9700.00000001776,35.7861649203395,1.00000000051285,0.53834776245041
9800.00000001812,35.761446574104,1.0000000004523,0.504791656296458
9900.00000001848,35.7051954799288,1.00000000043495,0.48255818385695
10000.0000000188,35.6014364147128,1.00000000063647,0.493215285521228
10100.0000000192,35.4399920389855,1.00000000065303,0.519232938541401
10200.0000000196,35.2406512447633,1.00000000052527,0.532637050073474
10300.0000000199,35.0361662033083,1.00000000047831,0.512219583796208
10400.0000000203,34.8476967774569,1.0000000004289,0.484678282330404
10500.0000000207,34.6786193668449,1.00000000044962,0.46809154904394
10600.000000021,34.5240732105596,1.00000000046266,0.465900450528604
10700.0000000214,34.3809483597556,1.00000000046611,0.473991421746513
10800.0000000218,34.241230648735,1.00000000046685,0.484168454002667
10900.0000000221,34.0969317549523,1.00000000050071,0.499924477151581
11000.0000000225,33.9388779211719,1.00000000053343,0.520753366113606
11100.0000000229,33.7627321593505,1.00000000051936,0.534239497151965
11200.0000000232,33.5776440163161,1.00000000042384,0.528626465831274
11300.0000000236,33.3924431206159,1.0000000004201,0.522764949535331
11400.0000000239,33.206208857274,1.00000000044342,0.522728386014045
11500.0000000243,33.0083933403048,1.00000000047618,0.526219610505669
11600.0000000247,32.7921597792752,1.00000000051786,0.527845472833404
11700.000000025,32.5570011976987,1.00000000058351,0.527834859477703
11800.0000000254,32.3049280708767,1.00000000064424,0.533727680673476
11900.0000000258,32.0434583636684,1.00000000065163,0.541131086100747
12000.0000000261,31.7841437020053,1.00000000075348,0.546525472047107
12100.0000000265,31.540339679229,1.00000000080404,0.5560419827932
12200.0000000269,31.321930222657,1.00000000073402,0.564972528222435
12300.0000000272,31.1279176513578,1.00000000074201,0.56813613452858
12400.0000000276,30.9448606617281,1.0000000006344,0.557916218369293
12500.0000000279,30.7523396432863,1.0000000005152,0.530841006226322
12600.0000000283,30.5374091992596,1.00000000038757,0.489075797867997
12700.0000000287,30.3056532845629,1.00000000029326,0.436268101880184
12800.000000029,30.0856126973906,1.0000000001991,0.377902807922576
12900.0000000294,29.9268239682988,1.00000000014787,0.327119393943183
13000.0000000298,29.8878070232166,1.00000000014465,0.289788970069675
13100.0000000301,30.0242058817741,1.0000000001243,0.264868523008343
13200.0000000305,30.3844741573354,1.00000000013772,0.251931319225637
13300.0000000309,30.9855523179474,1.00000000019079,0.261576488166189
13400.0000000312,31.8076889438624,1.00000000027642,0.291591445613266
13500.0000000316,32.8089682275463,1.00000000030836,0.328563654647612
13600.0000000319,33.9231672422468,1.00000000045931,0.369664018122658
13700.0000000323,35.0641858546464,1.00000000050178,0.408809076356356
13800.0000000327,36.1601753062516,1.00000000057981,0.446724364995043
13900.000000033,37.1713615643084,1.0000000005778,0.473994763968403
14000.0000000334,38.0704108476168,1.00000000059772,0.498712639760829
14100.0000000338,38.8451622746186,1.00000000063573,0.522985358242438
14200.0000000341,39.4945523175585,1.0000000006025,0.543129561844015
14300.0000000345,40.0276003523686,1.0000000005711,0.551288264081545
14400.0000000349,40.4637687559059,1.00000000056637,0.5436075870013
14500.0000000352,40.8216729970328,1.00000000050328,0.536585610621759
14600.0000000356,41.1115720697043,1.00000000052566,0.544641233527479
14700.0000000359,41.3314010073831,1.00000000052788,0.560087665015323
14800.0000000363,41.4852056913918,1.00000000053199,0.566916423462478
14900.0000000367,41.5821874936649,1.00000000053142,0.562349195899503
15000.000000037,41.6302472198568,1.00000000054766,0.544879835830053
15100.0000000374,41.6406639451639,1.00000000049556,0.528915724861619
15200.0000000378,41.62758261895,1.00000000047746,0.518024140554343
15300.0000000381,41.5963913604825,1.00000000048853,0.52194112214116
15400.0000000385,41.5379896378641,1.0000000005741,0.53396261374777
15500.0000000389,41.4521998246283,1.00000000054256,0.537754889466197
15600.0000000392,41.3499006991033,1.0000000004902,0.541663507927106
15700.0000000396,41.2374437648936,1.0000000005137,0.544244249379834
15800.0000000399,41.111370562375,1.00000000049971,0.546293775794721
15900.0000000403,40.9701944958544,1.00000000054094,0.544537727908754
16000.0000000407,40.8194613312217,1.00000000049813,0.541529034745978
16100.000000041,40.6667984830454,1.00000000044325,0.531115494249434
16200.0000000414,40.5202530052067,1.00000000038695,0.518488883179651
16300.0000000418,40.3820865670472,1.00000000043193,0.517048322882161
16400.0000000418,40.2464026003274,1.00000000045715,0.521338996637287
16500.0000000404,40.103164666194,1.0000000005521,0.521775307998579
16600.0000000389,39.948960676272,1.00000000054621,0.525400141263206
16700.0000000375,39.7846367825019,1.000000000567,0.530675560756921
16800.000000036,39.6075195287656,1.00000000062686,0.542102630483723
16900.0000000346,39.4178910423065,1.00000000061676,0.553810515806594
17000.0000000331,39.220688622302,1.00000000053003,0.554620544365767
17100.0000000317,39.0228156057043,1.00000000050876,0.551046086729951
17200.0000000302,38.8307731469298,1.00000000044537,0.546817694178983
17300.0000000287,38.6540748079599,1.00000000039647,0.527180946472548
17400.0000000273,38.502409180645,1.00000000034103,0.508989080642249
17500.0000000258,38.3799419072893,1.00000000036876,0.489363266623748
17600.0000000244,38.2804064801507,1.00000000045526,0.476936363332556
17700.0000000229,38.1953259356348,1.00000000044023,0.47405494818428
17800.0000000215,38.1205526733196,1.00000000046621,0.483098468461839
17900.00000002,38.054937889092,1.00000000042783,0.488207454236603
18000.0000000186,37.9990363866504,1.00000000043712,0.492764668204676
18100.0000000171,37.9479818670254,1.00000000050579,0.507311853033702
18200.0000000156,37.8974091365874,1.00000000046012,0.522375337185357
18300.0000000142,37.843382340091,1.00000000051521,0.529641186067362
18400.0000000127,37.7811125279769,1.00000000055268,0.532869319996387
18500.0000000113,37.7089476197903,1.00000000052124,0.528363866272288
18600.0000000098,37.6292858150865,1.00000000052171,0.527398061803273
18700.0000000084,37.5464009963135,1.00000000048814,0.531449490308891
18800.0000000069,37.4585019478486,1.00000000050873,0.539039513620756
18900.0000000055,37.3639994524696,1.00000000051167,0.552262182190496
19000.000000004,37.2646871468386,1.00000000047443,0.56648712501761
19100.0000000026,37.1631684303764,1.00000000048697,0.571391475088626
19200.0000000011,37.0592468422472,1.00000000050473,0.571502758548577
19299.9999999996,36.9490563642601,1.00000000053461,0.571786238295929
19399.9999999982,36.8301192475772,1.00000000056323,0.58133544898283
19499.9999999967,36.7001349095237,1.00000000056466,0.582485425493165
19599.9999999953,36.5629050842708,1.00000000052564,0.579698211592474
19699.9999999938,36.4255337009144,1.00000000049183,0.58015191836187
19799.9999999924,36.293899069217,1.00000000042447,0.572345025355563
19899.9999999909,36.1674166399699,1.00000000046686,0.565095001550925
19999.9999999895,36.038672694381,1.00000000054221,0.564280780937163
20099.999999988,35.90458249364,1.00000000053147,0.55213272165399
20199.9999999865,35.7691255605099,1.00000000050654,0.53907021833674
20299.9999999851,35.6376609554813,1.0000000004344,0.538925100515313
20399.9999999836,35.5107709114165,1.00000000049088,0.541918454168827
20499.9999999822,35.3862235241335,1.00000000047382,0.545077210341487
20599.9999999807,35.2617552362603,1.00000000045681,0.549860184211277
20699.9999999793,35.1386005849987,1.00000000047446,0.556006106110861
20799.9999999778,35.0174801452789,1.00000000044988,0.560904978609669
20899.9999999764,34.8955866318298,1.00000000052668,0.553786159928138
20999.9999999749,34.7689264151254,1.00000000056886,0.557780746445267
21099.9999999734,34.6353110769978,1.00000000055883,0.564602154684837
21199.999999972,34.4965833613942,1.00000000053284,0.557743081665212
21299.9999999705,34.3547517059406,1.00000000051915,0.549917763940169
21399.9999999691,34.2103816776086,1.00000000051689,0.555241540495135
21499.9999999676,34.0629685655762,1.00000000055423,0.571673664316401
21599.9999999662,33.9139683499021,1.00000000054479,0.58271315594587
21699.9999999647,33.7654482950051,1.00000000048465,0.578682965023983
21799.9999999633,33.6184037734243,1.00000000042943,0.569545021931931
21899.9999999618,33.4734455495324,1.0000000004695,0.571566960181046
21999.9999999603,33.3282859196952,1.00000000053298,0.57842225828014
22099.9999999589,33.1814335676926,1.00000000053161,0.580487979408291
22199.9999999574,33.0341048352896,1.00000000048748,0.587212584825259
22299.999999956,32.8877416645065,1.00000000043556,0.578858310443794
22399.9999999545,32.7425780585538,1.00000000038333,0.564850134307026
22499.9999999531,32.5988898893342,1.00000000044623,0.564673793737098
22599.9999999516,32.4562000679772,1.00000000043926,0.573058609607375
22699.9999999502,32.3143999727801,1.00000000042553,0.575363521610096
22799.9999999487,32.1737588830116,1.00000000043145,0.572835383141225
22899.9999999473,32.0347093666515,1.00000000046823,0.570687273633186
22999.9999999458,31.8975267040805,1.000000000504,0.579974559438664
23099.9999999443,31.7639154532287,1.00000000051901,0.584682060412053
23199.9999999429,31.635429775484,1.00000000049948,0.572662092712934
23299.9999999414,31.5147149725221,1.00000000059448,0.573624892884458
23399.99999994,31.4061319066177,1.00000000060548,0.590021803251498
23499.9999999385,31.3133115876821,1.0000000006115,0.590814993513746
23599.9999999371,31.2435751432698,1.00000000067221,0.586731441305854
23699.9999999356,31.1995489740738,1.0000000006512,0.589665496582269
23799.9999999342,31.1903314764099,1.00000000067427,0.598524773748105
23899.9999999327,31.2202750653555,1.0000000007378,0.603595149338626
23999.9999999312,31.2980172632693,1.0000000007457,0.608999569525581
24099.9999999298,31.4285390467248,1.000000000741,0.611247234213905
24199.9999999283,31.6089205566156,1.00000000074392,0.610271194155155
24299.9999999269,31.8487552715291,1.00000000077027,0.606518976882444
24399.9999999254,32.1361000616002,1.00000000077743,0.602143234717541
24499.999999924,32.4840526948921,1.00000000074297,0.594332064886733
24599.9999999225,32.8606529187949,1.0000000007063,0.587167469221104
24699.9999999211,33.2691084701272,1.00000000070137,0.579532329180368
24799.9999999196,33.6636099796748,1.00000000062235,0.572535911288098
24899.9999999181,34.0404640536353,1.00000000059668,0.561081967648833
24999.9999999167,34.3618116263133,1.00000000047852,0.544547314157839
25099.9999999152,34.6212576832543,1.00000000044071,0.522537656742509
25199.9999999138,34.8012032170365,1.00000000038711,0.497486050735604
25299.9999999123,34.8975051941052,1.00000000034411,0.471422373826442
25399.9999999109,34.9188760602704,1.00000000027314,0.4426070432421
25499.9999999094,34.8703500910943,1.00000000023745,0.412455055057413
25599.999999908,34.7760422009713,1.00000000019594,0.38398036807703
25699.9999999065,34.6566477867514,1.00000000018557,0.358405047646763
25799.9999999051,34.5422883861089,1.00000000016064,0.332873486484769
25899.9999999036,34.4672944613495,1.00000000013467,0.308858489438931
25999.9999999021,34.4635775927007,1.00000000013005,0.291406042756964
26099.9999999007,34.5671052900216,1.00000000011114,0.275833210780592
26199.9999998992,34.8147920862221,1.00000000011139,0.263105269272451
26299.9999998978,35.2269770824963,1.00000000011886,0.255337966911198
26399.9999998963,35.845579032263,1.0000000001319,0.257864518239615
26499.9999998949,36.6638949955805,1.00000000014629,0.260631113014954
26599.9999998934,37.7207980733253,1.0000000001893,0.268286017991782
26699.999999892,38.9809487266765,1.00000000021963,0.281225860013974
26799.9999998905,40.4625754077111,1.00000000024998,0.29515288600339
26899.999999889,42.1218087440666,1.00000000034841,0.315774910115565
26999.9999998876,43.9282040876181,1.00000000037618,0.334951814682907
27099.9999998861,45.8645500700929,1.00000000044711,0.354254343496162
27199.9999998847,47.8607062893448,1.00000000046379,0.372921418335312
27299.9999998832,49.9166906352545,1.00000000055851,0.391415564671368
27399.9999998818,51.9517238085014,1.00000000052579,0.40700342835042
27499.9999998803,53.9860805599837,1.00000000061993,0.420042969895923
27599.9999998789,55.9435694586897,1.00000000058931,0.436252539875365
27699.9999998774,57.8374388574613,1.0000000006433,0.452951198502447
27799.9999998759,59.6369415072,1.00000000061347,0.472548414530086
27899.9999998745,61.3415433116805,1.0000000006593,0.48038381444617
27999.999999873,62.9485383730367,1.0000000006393,0.488721868517231
28099.9999998716,64.4362318429923,1.00000000068423,0.498240174109406
28199.9999998701,65.8261808543849,1.00000000061323,0.513059925928381
28299.9999998687,67.1005955289243,1.00000000063639,0.528150052596937
28399.9999998672,68.2875023054969,1.00000000055773,0.533929808078881
28499.9999998658,69.3748366623938,1.00000000057206,0.536001817712288
28599.9999998643,70.3728295394828,1.00000000062812,0.535357579419953
28699.9999998629,71.2829113573069,1.00000000058328,0.547044922588256
28799.9999998614,72.1017612035237,1.00000000060016,0.558979812687888
28899.9999998599,72.8528338005755,1.00000000056923,0.567177144804544
28999.9999998585,73.5306598558185,1.00000000056205,0.563271632333813
29099.999999857,74.158295256885,1.00000000054379,0.563830589570754
