Time,AGPnorm,Energy,Entropy
0,0,1,2.00214156488432e-18
99.9999999999986,0.00781427073331917,0.999999999998047,0.0219785385626197
199.999999999993,0.021104420495532,0.999999999999842,0.0631700805814364
300,0.0422067489556427,0.999999999999394,0.126127222201773
400.000000000022,0.0631647421007946,1.00000000004565,0.21660989799843
500.000000000045,0.0859241609820324,1.00000000057048,0.346721897756791
600.000000000068,0.305822514418078,1.0000000016,0.460392573793954
700.000000000091,1.03942350699004,1.00000000249639,0.530107968733966
800.000000000113,2.60105772979567,1.0000000029118,0.565475967555946
900.000000000136,4.89723556853542,1.00000000298717,0.580608676708476
1000.00000000016,7.63567434633386,1.00000000284758,0.583055676404891
1100.0000000001,10.4844776708483,1.00000000268764,0.579522156224443
1200,13.1227026620701,1.00000000243691,0.570240085815745
1299.99999999991,15.3587511592299,1.0000000022287,0.5639806581683
1399.99999999982,17.0905878161842,1.0000000021781,0.554494693769767
1499.99999999973,18.2824986597159,1.00000000199602,0.554121116099538
1599.99999999964,18.9647679155981,1.00000000169578,0.536836642009191
1699.99999999955,19.2560656520338,1.00000000170029,0.528738998289659
1799.99999999946,19.1816809907891,1.00000000202614,0.566856864251946
1899.99999999937,18.9248326176939,1.00000000116181,0.471206654317568
1999.99999999928,18.4657740912782,1.00000000225802,0.572344001753716
2099.99999999919,18.0048733032328,1.00000000127407,0.457532459194352
2199.99999999909,17.3931782847146,1.00000000184648,0.504658236391415
2299.999999999,16.8519991843645,1.00000000225626,0.564814650228987
2399.99999999891,16.2977056007007,1.00000000095355,0.381541020353424
2499.99999999882,15.7014480594671,1.00000000203481,0.508330329582907
2599.99999999873,15.1611407970916,1.0000000024321,0.569080427756664
2699.99999999864,14.6669457299357,1.00000000125529,0.428531333586111
2799.99999999855,14.1844571287222,1.00000000138911,0.41642913612769
2899.99999999846,13.7093233179852,1.00000000198681,0.523072012922366
2999.99999999837,13.2582397705558,1.00000000233317,0.544498498394743
3099.99999999828,12.8444721071377,1.00000000182899,0.524228136576056
3199.99999999819,12.4875918651055,1.00000000098978,0.382031207143195
3299.99999999809,12.1792305972052,1.00000000176018,0.460574154997905
3399.999999998,11.8648688510911,1.00000000192602,0.531548106575268
3499.99999999791,11.5636681718247,1.00000000169676,0.523810973841753
3599.99999999782,11.2586105196234,1.00000000242399,0.548855930873423
3699.99999999773,10.9605102914903,1.00000000192549,0.550344331259235
3799.99999999764,10.7209285453833,1.00000000101221,0.41645387821883
3899.99999999755,10.5776585466198,1.00000000126281,0.40785281603823
3999.99999999746,10.4538199086348,1.00000000198832,0.506379368693521
4099.99999999738,10.3128015858848,1.00000000183443,0.534135820696951
4199.99999999775,10.1560065488298,1.00000000184711,0.547665269559023
4299.99999999811,9.99593254473086,1.00000000168026,0.554775463742221
4399.99999999848,9.83212139137423,1.00000000182097,0.539428991502315
4499.99999999884,9.65215859118758,1.00000000247484,0.555341876495837
4599.9999999992,9.45879152339754,1.00000000229671,0.576453655915935
4699.99999999957,9.29734001448814,1.000000001254,0.484010517085934
4799.99999999993,9.23490552932759,1.00000000109494,0.412305414773343
4900.00000000029,9.26454859220326,1.00000000173345,0.439604835951621
5000.00000000066,9.30104196884996,1.00000000184353,0.493876514570861
5100.00000000102,9.3017702215697,1.00000000202422,0.544014122208413
5200.00000000139,9.28541655909983,1.00000000178838,0.555608843593825
5300.00000000175,9.25484356795035,1.00000000176186,0.575309092325072
5400.00000000211,9.20612973354242,1.00000000181101,0.565815345892882
5500.00000000248,9.14188136207944,1.00000000192799,0.554318897770775
5600.00000000284,9.05857569569881,1.00000000187907,0.584494834772366
5700.00000000321,8.97273564339431,1.00000000162993,0.571842293372414
5800.00000000357,8.88771288220342,1.0000000018405,0.58120014329736
5900.00000000393,8.79143421625319,1.00000000205581,0.581868002516698
6000.0000000043,8.68109388394154,1.00000000241693,0.578642216627988
6100.00000000466,8.55764364924623,1.00000000230132,0.580770372391771
6200.00000000502,8.43590569419313,1.00000000183094,0.552354059465802
6300.00000000539,8.3591378456923,1.00000000115051,0.473736881032626
6400.00000000575,8.38084603196436,1.00000000115616,0.430500922275361
6500.00000000612,8.50391427650587,1.00000000152201,0.441542470042233
6600.00000000648,8.65657111953473,1.00000000196413,0.483908665870492
6700.00000000684,8.79171953113419,1.00000000206932,0.51665809017416
6800.00000000721,8.90227199421256,1.00000000196752,0.539423409984916
6900.00000000757,8.99559669572995,1.00000000202465,0.569183519743317
7000.00000000793,9.05954105968089,1.00000000203006,0.582630721277083
7100.0000000083,9.09589465655132,1.00000000205771,0.600702473747072
7200.00000000866,9.10795274491819,1.00000000197894,0.604875104975437
7300.00000000903,9.09679458733035,1.00000000193385,0.603746813135392
7400.00000000939,9.07828927996482,1.00000000200884,0.589236269514019
7500.00000000975,9.05489922323635,1.0000000019202,0.579588247559938
7600.00000001012,9.03148546761836,1.00000000194998,0.564268678617701
7700.00000001048,8.99789427138139,1.00000000210787,0.566594665646729
7800.00000001084,8.95711070292716,1.0000000019377,0.588164090940022
7900.00000001121,8.92406129451768,1.00000000185314,0.586164767900424
8000.00000001157,8.88870496564242,1.00000000198574,0.597908492813363
8100.00000001194,8.85233356945823,1.0000000019552,0.595451917346853
8200.0000000123,8.80941519873431,1.00000000212413,0.592815210717539
8300.00000001266,8.75964812106352,1.00000000233417,0.590770283298162
8400.00000001303,8.70149333816279,1.00000000213941,0.610262316252565
8500.00000001339,8.634398793483,1.0000000021047,0.625874054017528
8600.00000001376,8.56543177003706,1.00000000184788,0.621133782877532
8700.00000001412,8.49873988921762,1.00000000195807,0.621888334355594
8800.00000001448,8.43015049849615,1.00000000208664,0.616544031007794
8900.00000001485,8.35927577067191,1.00000000252512,0.609824947101944
9000.00000001521,8.28796833507194,1.00000000269043,0.603420062728982
9100.00000001557,8.21722967948357,1.00000000275049,0.584897130922726
9200.00000001594,8.13992954553371,1.00000000240732,0.566446721370831
9300.0000000163,8.05638045253993,1.00000000205684,0.556850680006037
9400.00000001667,7.98562758470408,1.00000000158164,0.508012654804709
9500.00000001703,7.96336505194377,1.00000000127962,0.457304911484511
9600.00000001739,8.02520666843322,1.00000000142719,0.438285011493591
9700.00000001776,8.18207184458437,1.00000000157619,0.438516246234204
9800.00000001812,8.39520191812136,1.00000000200131,0.465019987089532
9900.00000001848,8.63226472473543,1.00000000223295,0.481678786411796
10000.0000000188,8.85855816097217,1.00000000214562,0.507155737817378
10100.0000000192,9.07231800533439,1.00000000225185,0.533096104836654
10200.0000000196,9.26653208535813,1.00000000217084,0.545594893313359
10300.0000000199,9.44694284223153,1.00000000215218,0.56273231720101
10400.0000000203,9.60788010839127,1.00000000206202,0.587720803664949
10500.0000000207,9.75095955274767,1.00000000211592,0.609436546596947
10600.000000021,9.86390947507589,1.00000000240169,0.613975305310051
10700.0000000214,9.95941388626074,1.00000000208927,0.620968246876356
10800.0000000218,10.0303853087268,1.00000000229831,0.640456327744143
10900.0000000221,10.0771251133901,1.00000000223709,0.642502543184181
11000.0000000225,10.1045115919155,1.00000000207238,0.642339349026307
11100.0000000229,10.1249624127075,1.00000000218573,0.639004120115419
11200.0000000232,10.1333978614832,1.00000000218065,0.642347802587483
11300.0000000236,10.1377863072204,1.00000000208792,0.63556324015655
11400.0000000239,10.129231396437,1.00000000235629,0.640168824743717
11500.0000000243,10.1080799921719,1.00000000221133,0.621783685123248
11600.0000000247,10.0885786378543,1.00000000198601,0.617677338338697
11700.000000025,10.0614075699138,1.00000000223788,0.634428634892447
11800.0000000254,10.0242155791643,1.00000000208994,0.629049072085431
11900.0000000258,9.98360205465809,1.00000000219336,0.647732940465067
12000.0000000261,9.94211455777851,1.00000000224921,0.651087053878086
12100.0000000265,9.90003006884056,1.00000000221035,0.65592047280126
12200.0000000269,9.85783077630623,1.00000000218686,0.636807182573212
12300.0000000272,9.8224077937009,1.00000000200022,0.626516913824474
12400.0000000276,9.79585883169615,1.00000000219325,0.62031663187861
12500.0000000279,9.77281261367421,1.00000000223716,0.624114681166024
12600.0000000283,9.75577769326844,1.00000000202528,0.622335022207102
12700.0000000287,9.74178714032904,1.00000000224835,0.625860062661488
12800.000000029,9.72152583555633,1.00000000245242,0.634380508942276
12900.0000000294,9.69752470589138,1.00000000205749,0.622018247878875
13000.0000000298,9.6751661919712,1.00000000218009,0.616022404184461
13100.0000000301,9.64976174847478,1.00000000223476,0.613116720954485
13200.0000000305,9.62854450634987,1.00000000213374,0.617330087245628
13300.0000000309,9.61165987505722,1.00000000219482,0.604908521796638
13400.0000000312,9.59385097133757,1.00000000216525,0.59212884800559
13500.0000000316,9.57132672244633,1.00000000246193,0.594075240222206
13600.0000000319,9.54965661882538,1.00000000213152,0.592742235567465
13700.0000000323,9.53374479192876,1.00000000213724,0.597468498446948
13800.0000000327,9.51964215947602,1.00000000223207,0.626190945850333
13900.000000033,9.50746795641721,1.00000000227231,0.632027244899147
14000.0000000334,9.49474177431558,1.00000000225567,0.635044530642951
14100.0000000338,9.47853000514251,1.00000000212367,0.636084492388697
14200.0000000341,9.46510361622305,1.00000000212583,0.63719846007816
14300.0000000345,9.45170738953709,1.00000000218417,0.632875770578877
14400.0000000349,9.42764307257241,1.0000000025509,0.651993109140497
14500.0000000352,9.40113643352308,1.00000000195833,0.640970446009554
14600.0000000356,9.38055249512209,1.00000000208336,0.642964791772359
14700.0000000359,9.3553826284731,1.00000000232671,0.646455305149909
14800.0000000363,9.32760971847157,1.00000000227752,0.62872345902326
14900.0000000367,9.29608884692493,1.00000000257345,0.628248749012661
15000.000000037,9.26592964996446,1.00000000198088,0.640234563270903
15100.0000000374,9.24026843257142,1.00000000209226,0.652702749966042
15200.0000000378,9.21196029451,1.00000000236107,0.648012454757448
15300.0000000381,9.17920869493112,1.00000000240121,0.648438105209326
15400.0000000385,9.14413096024028,1.0000000021458,0.643505148123752
15500.0000000389,9.11323637524434,1.00000000196267,0.639140337806938
15600.0000000392,9.08065443926803,1.00000000228663,0.638208113582067
15700.0000000396,9.04780630094945,1.00000000218847,0.646155323653954
15800.0000000399,9.01560029205798,1.00000000210068,0.647776312194095
15900.0000000403,8.98192414229219,1.00000000219663,0.658249245297783
16000.0000000407,8.94706698680442,1.00000000228418,0.658654715282515
16100.000000041,8.91294243198088,1.00000000215726,0.651880259972002
16200.0000000414,8.87720876585862,1.00000000240081,0.661217477398524
16300.0000000418,8.83594770533026,1.00000000224005,0.646179753793604
16400.0000000418,8.79379425176252,1.00000000228971,0.648002295106261
16500.0000000404,8.74889892623278,1.00000000248772,0.655502245255273
16600.0000000389,8.70274027771291,1.0000000023929,0.6463421297814
16700.0000000375,8.65749515511311,1.00000000239752,0.651808243695529
16800.000000036,8.60883836353344,1.00000000252812,0.659726742360111
16900.0000000346,8.55925204982589,1.00000000214018,0.661669631140413
17000.0000000331,8.50993081282986,1.00000000235656,0.668294252238307
17100.0000000317,8.46115334889694,1.00000000207981,0.669913239921028
17200.0000000302,8.41261890807475,1.00000000217124,0.678632067462143
17300.0000000287,8.36532127627668,1.00000000219016,0.653241930542225
17400.0000000273,8.3198969232148,1.00000000203681,0.664875382906996
17500.0000000258,8.27841966785122,1.00000000212464,0.661164885801559
17600.0000000244,8.24162810622745,1.00000000222524,0.657926617500901
17700.0000000229,8.21130626471762,1.00000000237703,0.660744875023827
17800.0000000215,8.19063571396746,1.00000000226693,0.659407960439182
17900.00000002,8.17808801095661,1.00000000267839,0.662389447880208
18000.0000000186,8.18221275301024,1.00000000382926,0.664541535601561
18100.0000000171,8.1898226195777,1.00000000292214,0.676773721256572
18200.0000000156,8.21492495838005,1.00000000286552,0.678129591258011
18300.0000000142,8.23146224534595,1.00000000282375,0.670749306610456
18400.0000000127,8.25188379564989,1.00000000276869,0.66024448949731
18500.0000000113,8.24938126217318,1.00000000258253,0.639775307822126
18600.0000000098,8.23395382394725,1.00000000237138,0.62031538487215
18700.0000000084,8.20048283023542,1.00000000193171,0.600375746316999
18800.0000000069,8.15990487263292,1.00000000188329,0.566556869058991
18900.0000000055,8.12991226028062,1.00000000149457,0.542882012677554
19000.000000004,8.12858852476753,1.00000000166965,0.518202267725579
19100.0000000026,8.18014657236752,1.00000000150178,0.496884646503321
19200.0000000011,8.2962815431757,1.00000000165339,0.481043921049559
19299.9999999996,8.49573792891491,1.00000000178672,0.48286020278066
19399.9999999982,8.75509197981395,1.00000000190698,0.482391432485841
19499.9999999967,9.09351994570264,1.0000000021981,0.492267596639725
19599.9999999953,9.447970015689,1.00000000250217,0.495592304837946
19699.9999999938,9.85134992048168,1.00000000256547,0.504753152331447
19799.9999999924,10.2418103841569,1.0000000025583,0.51381964515247
19899.9999999909,10.6483764046996,1.00000000247825,0.520671116669649
19999.9999999895,11.0373247900697,1.00000000255532,0.530055499883791
20099.999999988,11.4163150297282,1.00000000272214,0.540631536379569
20199.9999999865,11.7884185072583,1.00000000247797,0.543187284784392
20299.9999999851,12.1391753542507,1.00000000263804,0.55236814831491
20399.9999999836,12.4950737175343,1.0000000027875,0.564507342192727
20499.9999999822,12.8269006603174,1.00000000237986,0.571833791617337
20599.9999999807,13.1661214402919,1.00000000272115,0.572965092397424
20699.9999999793,13.4916541934669,1.00000000262705,0.590003920990077
20799.9999999778,13.8001052878633,1.00000000252315,0.593315152470941
20899.9999999764,14.1072878145759,1.00000000251102,0.620968317017406
20999.9999999749,14.3881906650333,1.00000000282049,0.626262122485075
21099.9999999734,14.660913008975,1.00000000254058,0.633838827170625
21199.999999972,14.9049795641793,1.00000000282668,0.650784334822751
21299.9999999705,15.1415374739048,1.00000000272619,0.644143064993571
21399.9999999691,15.3490115843525,1.00000000249576,0.63177172975652
21499.9999999676,15.5344822179637,1.00000000275101,0.652333156716423
21599.9999999662,15.7072143280552,1.00000000237008,0.658430454965812
21699.9999999647,15.8652499776018,1.00000000264215,0.666217818763442
21799.9999999633,16.0155295881437,1.0000000027379,0.665036807746426
21899.9999999618,16.1432783159986,1.00000000271737,0.666309348613546
21999.9999999603,16.2636068559139,1.00000000284262,0.673843610567241
22099.9999999589,16.3655884221741,1.00000000274493,0.670881432626964
22199.9999999574,16.4605192848329,1.00000000263345,0.67231977388939
22299.999999956,16.5452873088309,1.00000000276318,0.683924863392909
22399.9999999545,16.6176242727958,1.00000000252398,0.688514175082533
22499.9999999531,16.6865753571155,1.00000000262281,0.686443362954739
22599.9999999516,16.7547362964118,1.00000000273154,0.678782200281238
22699.9999999502,16.8288454157027,1.00000000269459,0.677721891311046
22799.9999999487,16.8897625809705,1.0000000025876,0.679428241357719
22899.9999999473,16.9355414233846,1.0000000027497,0.674644646787004
22999.9999999458,16.9683378600057,1.00000000276691,0.677853954404355
23099.9999999443,17.0037257778708,1.00000000235789,0.661499274433228
23199.9999999429,17.0530632786774,1.00000000230922,0.658637351036921
23299.9999999414,17.1053296674735,1.00000000275816,0.675153357336822
23399.99999994,17.1525605692992,1.00000000276143,0.678713574661509
23499.9999999385,17.1860681308957,1.00000000328599,0.661625000440687
23599.9999999371,17.210696232126,1.00000000271261,0.656506712646862
23699.9999999356,17.2329326296508,1.00000000250868,0.651258754085644
23799.9999999342,17.260338661406,1.00000000238414,0.652915206798453
23899.9999999327,17.2883685614553,1.00000000291162,0.655974877001684
23999.9999999312,17.3116002981875,1.0000000028757,0.654407796864249
24099.9999999298,17.3260293556545,1.00000000301163,0.671454663862696
24199.9999999283,17.3358791776835,1.00000000266251,0.670830385070925
24299.9999999269,17.3528144933502,1.0000000026865,0.661607069582772
24399.9999999254,17.3741820851658,1.00000000249007,0.66242754309239
24499.999999924,17.3950049840098,1.00000000287997,0.671407881604771
24599.9999999225,17.4102329041484,1.0000000029026,0.675142456357592
24699.9999999211,17.4251532827649,1.0000000030689,0.666993856964989
24799.9999999196,17.4427373329369,1.00000000262569,0.641380496818125
24899.9999999181,17.4658534051408,1.00000000254245,0.639705044489091
24999.9999999167,17.4879344324408,1.00000000298398,0.679711788711416
25099.9999999152,17.504760302633,1.00000000277378,0.670571507752025
25199.9999999138,17.5274582522033,1.00000000246755,0.653018580900504
25299.9999999123,17.55228825582,1.00000000256818,0.679489187086439
25399.9999999109,17.5750068637452,1.00000000269572,0.695395724059726
25499.9999999094,17.5956002033396,1.00000000269126,0.691499332450812
25599.999999908,17.6147316582715,1.00000000251896,0.687585235512258
25699.9999999065,17.6396504035796,1.0000000024156,0.680229699724185
25799.9999999051,17.658275689879,1.00000000299185,0.688690989375973
25899.9999999036,17.6687009498779,1.00000000304046,0.679053341331489
25999.9999999021,17.6819178012453,1.00000000232725,0.662853533936779
26099.9999999007,17.699967636388,1.00000000261003,0.653147638634849
26199.9999998992,17.7239493894752,1.0000000027096,0.643107503219803
26299.9999998978,17.7436493174629,1.00000000275753,0.6678960452322
26399.9999998963,17.7550570412981,1.0000000026661,0.662438184982357
26499.9999998949,17.7619394405377,1.00000000274679,0.652020578579571
26599.9999998934,17.7670968616119,1.00000000269553,0.644705645986812
26699.999999892,17.7740468821201,1.0000000027393,0.652083056376388
26799.9999998905,17.781977187533,1.00000000249715,0.656911826239152
26899.999999889,17.7903651238997,1.00000000263416,0.652081490548118
26999.9999998876,17.79626660131,1.00000000252431,0.656466216854254
27099.9999998861,17.7993411089302,1.00000000263739,0.665940764661046
27199.9999998847,17.8018156767334,1.00000000279675,0.644792864753766
27299.9999998832,17.8049620938813,1.00000000269407,0.627659406098258
27399.9999998818,17.8120692403469,1.00000000257269,0.639957343578916
27499.9999998803,17.8212678418776,1.00000000253703,0.650686784677051
27599.9999998789,17.8326672916656,1.00000000275565,0.649399830849676
27699.9999998774,17.8486125430557,1.00000000246853,0.6510555150502
27799.9999998759,17.8731424928096,1.00000000260126,0.646893736188184
27899.9999998745,17.9040965703208,1.00000000275234,0.663195860851308
27999.999999873,17.9376057478316,1.00000000280364,0.68231540143222
28099.9999998716,17.9735508157433,1.00000000296491,0.684082692172631
28199.9999998701,18.0163489538968,1.0000000025889,0.673045096695759
28299.9999998687,18.063477877597,1.00000000265249,0.678887761894044
28399.9999998672,18.1074830806252,1.00000000288129,0.667758786421657
28499.9999998658,18.15288362602,1.00000000285708,0.667426947305959
28599.9999998643,18.193235685566,1.00000000270098,0.678520334515905
28699.9999998629,18.2274306745997,1.00000000309239,0.672796008489124
28799.9999998614,18.2607529100951,1.0000000024108,0.674787120209989
28899.9999998599,18.2904192661682,1.0000000030421,0.693647604367225
28999.9999998585,18.321657746644,1.00000000301336,0.67644611770366
29099.999999857,18.3634012209623,1.00000000256146,0.653993665400834
