Time,AGPnorm,Energy,Entropy
0,0,1,3.63055003765688e-18
99.9999999999986,0.0033698225749223,0.999999999998766,0.0111302661082128
199.999999999993,0.00967368784625382,0.999999999999783,0.032203279206921
300,0.0201392114839729,0.999999999999178,0.0630602204229291
400.000000000022,0.0319476937132113,0.999999999999988,0.101255350002685
500.000000000045,0.0454841341080095,1.00000000000161,0.150365827284187
600.000000000068,0.0607043653279825,1.00000000002411,0.2137873804784
700.000000000091,0.076168875043569,1.00000000014558,0.295153997171021
800.000000000113,0.170529115543606,1.00000000045104,0.379977241009977
900.000000000136,0.470927684081647,1.0000000008195,0.450159766071732
1000.00000000016,1.31236566487267,1.00000000104556,0.498870740010847
1100.0000000001,2.86546406877535,1.00000000118795,0.530373928660136
1200,5.28693683741587,1.00000000130437,0.547421757192463
1299.99999999991,8.46994344578881,1.00000000141808,0.556869529226469
1399.99999999982,12.2743582397385,1.00000000140674,0.558093444802443
1499.99999999973,16.4288517522822,1.00000000133199,0.556506302758681
1599.99999999964,20.7172149642607,1.00000000134087,0.552033635515624
1699.99999999955,24.8948201667684,1.00000000122497,0.546957435306699
1799.99999999946,28.810809082641,1.00000000121571,0.536699705643264
1899.99999999937,32.3071193129179,1.00000000108054,0.533353724241454
1999.99999999928,35.3243986328691,1.0000000010486,0.519956805288457
2099.99999999919,37.786628349243,1.00000000094312,0.51901268788163
2199.99999999909,39.7275921618572,1.0000000009233,0.516797084487012
2299.999999999,41.1035719096272,1.00000000078526,0.486188784729053
2399.99999999891,41.9977105199693,1.00000000087479,0.527412288038672
2499.99999999882,42.5322069765438,1.0000000007808,0.499696754394082
2599.99999999873,42.5777784558109,1.00000000057652,0.448590454734723
2699.99999999864,42.3278819923963,1.00000000091998,0.540298124093548
2799.99999999855,42.0141915132084,1.00000000097154,0.530450606541096
2899.99999999846,41.4483483621314,1.00000000046099,0.393144976862954
2999.99999999837,40.5991147602272,1.00000000067707,0.457429116566294
3099.99999999828,39.7665880606733,1.00000000115396,0.563577085252207
3199.99999999819,39.0536213946778,1.00000000103577,0.538361663756998
3299.99999999809,38.2626435837988,1.00000000047394,0.369683273108194
3399.999999998,37.3084689982326,1.000000000419,0.341620099628821
3499.99999999791,36.3290678723727,1.00000000098717,0.494498188916153
3599.99999999782,35.4390679153805,1.00000000119205,0.552848585753067
3699.99999999773,34.6730006898146,1.00000000107463,0.553376395116689
3799.99999999764,33.9333438385647,1.00000000072309,0.434977628318461
3899.99999999755,33.1425936710077,1.00000000032949,0.294275582687964
3999.99999999746,32.3570728480411,1.0000000005046,0.346574439008904
4099.99999999738,31.5960751065749,1.00000000089595,0.487682157714726
4199.99999999775,30.8520749821095,1.00000000095186,0.516702032336345
4299.99999999811,30.1440905818233,1.00000000108016,0.511469194439947
4399.99999999848,29.489917557728,1.00000000119855,0.563992664770918
4499.99999999884,28.8796490484176,1.00000000081683,0.518037190797339
4599.9999999992,28.2822463851164,1.00000000045451,0.373413108554158
4699.99999999957,27.7440115551855,1.00000000035295,0.28720406335334
4799.99999999993,27.3102740148775,1.00000000053812,0.343787808495243
4900.00000000029,26.9254129183387,1.00000000085301,0.450908674118945
5000.00000000066,26.5045581532527,1.00000000107298,0.52960506425646
5100.00000000102,26.0537691293582,1.00000000083944,0.534238998253448
5200.00000000139,25.6178474194189,1.00000000065929,0.467065482342039
5300.00000000175,25.1867689127655,1.00000000089469,0.470950725167485
5400.00000000211,24.7361215284473,1.00000000116906,0.529870055220231
5500.00000000248,24.2886377394987,1.00000000121688,0.570912294449241
5600.00000000284,23.8625096210974,1.00000000094227,0.54254712873807
5700.00000000321,23.4604887274539,1.00000000054137,0.437603324958382
5800.00000000357,23.1315783072534,1.00000000032125,0.330628159927928
5900.00000000393,22.9488139895029,1.00000000037279,0.289040942347425
6000.0000000043,22.9136367810622,1.00000000057745,0.340325916725188
6100.00000000466,22.9322224189524,1.00000000085508,0.433799539828963
6200.00000000502,22.9199788033942,1.00000000092874,0.505034168862893
6300.00000000539,22.8471716662553,1.00000000096152,0.518933551048888
6400.00000000575,22.711632054332,1.00000000095675,0.517713798594013
6500.00000000612,22.5192062163955,1.00000000095147,0.540535008810935
6600.00000000648,22.2963645594249,1.00000000082678,0.536489395996174
6700.00000000684,22.0836569413421,1.00000000062695,0.504303780837372
6800.00000000721,21.8909190918268,1.00000000066542,0.495289909450092
6900.00000000757,21.695657010026,1.00000000079129,0.513779269001592
7000.00000000793,21.4803003376648,1.00000000078069,0.511604078101379
7100.0000000083,21.2398641407352,1.00000000100458,0.516672550623001
7200.00000000866,20.9732272732458,1.00000000111699,0.533962598434463
7300.00000000903,20.69344114288,1.00000000118105,0.56368256898833
7400.00000000939,20.4185066715494,1.00000000110185,0.571568971165374
7500.00000000975,20.1513850035532,1.00000000082678,0.530318481710099
7600.00000001012,19.9056872017312,1.00000000048761,0.44945262476646
7700.00000001048,19.733135114088,1.00000000033912,0.363637459166942
7800.00000001084,19.7019712994112,1.00000000029693,0.314891912650716
7900.00000001121,19.8555492410747,1.00000000042967,0.305817907930864
8000.00000001157,20.1631043288694,1.00000000058951,0.351650646976691
8100.00000001194,20.5424878762264,1.00000000082615,0.415119233647884
8200.0000000123,20.9003036060312,1.00000000090524,0.471259685301132
8300.00000001266,21.1818227198445,1.00000000098734,0.514946994157239
8400.00000001303,21.3890620110944,1.00000000084449,0.529069444556848
8500.00000001339,21.5331005703172,1.00000000088035,0.540860855313726
8600.00000001376,21.6136222040726,1.00000000092019,0.563892534041437
8700.00000001412,21.6358427234393,1.00000000083476,0.565088202119345
8800.00000001448,21.6230555214235,1.00000000078101,0.544224952165794
8900.00000001485,21.5821807624705,1.00000000081994,0.534898780445236
9000.00000001521,21.5124751836088,1.00000000089104,0.533953444024929
9100.00000001557,21.4091374014683,1.00000000092052,0.541680949265447
9200.00000001594,21.2897812442743,1.00000000082927,0.539772717974897
9300.0000000163,21.1832061963889,1.00000000060137,0.521597409304235
9400.00000001667,21.0961501271329,1.00000000070214,0.5127687549266
9500.00000001703,21.0103034802216,1.00000000081146,0.516358856142567
9600.00000001739,20.918285951072,1.00000000080029,0.523911125388966
9700.00000001776,20.8242717478301,1.00000000078228,0.523281787433274
9800.00000001812,20.7291215125596,1.00000000087834,0.530585113981925
9900.00000001848,20.6287919560186,1.00000000082548,0.537247247639825
10000.0000000188,20.5131025037254,1.00000000086632,0.553586659726854
10100.0000000192,20.3860935198206,1.00000000077454,0.563065403808217
10200.0000000196,20.2555950642769,1.00000000069283,0.564579852209891
10300.0000000199,20.1270977146277,1.00000000067878,0.55681778233528
10400.0000000203,19.9950942319979,1.00000000075804,0.558822864927498
10500.0000000207,19.8505773380049,1.00000000088113,0.566603506054919
10600.000000021,19.692280859784,1.00000000094665,0.562647485880073
10700.0000000214,19.5238064838334,1.00000000103169,0.573068764624869
10800.0000000218,19.3527254703824,1.00000000109023,0.574068467256223
10900.0000000221,19.1894836300436,1.00000000117363,0.578606299289381
11000.0000000225,19.0401460988585,1.00000000117926,0.58460334806201
11100.0000000229,18.9012082792611,1.0000000010258,0.579956399936121
11200.0000000232,18.75926676325,1.00000000088348,0.56086471299442
11300.0000000236,18.6048241813624,1.00000000066224,0.517345311447859
11400.0000000239,18.4472841236007,1.00000000049128,0.459947767193175
11500.0000000243,18.3202858703351,1.00000000037391,0.403307969644143
11600.0000000247,18.2719282174367,1.00000000033091,0.354626024749241
11700.000000025,18.3555667613561,1.00000000027121,0.322665429295919
11800.0000000254,18.6078416233179,1.00000000039522,0.32375523783302
11900.0000000258,19.0296167167019,1.00000000041958,0.33330131339122
12000.0000000261,19.5994045999069,1.00000000064129,0.359328699142708
12100.0000000265,20.2407065709152,1.00000000073965,0.402289849325358
12200.0000000269,20.8961619574461,1.00000000090423,0.439170768965305
12300.0000000272,21.5196136983296,1.00000000092982,0.474281573750738
12400.0000000276,22.0741126270331,1.00000000095694,0.505940644453619
12500.0000000279,22.5559319570011,1.00000000097901,0.526999581801635
12600.0000000283,22.972904304452,1.00000000094554,0.534197546854651
12700.0000000287,23.3266383175479,1.00000000088547,0.551711156949078
12800.000000029,23.6193921580634,1.00000000091699,0.572981655000745
12900.0000000294,23.8576917478028,1.00000000086092,0.575765978667366
13000.0000000298,24.0455611000109,1.00000000086159,0.573448134172686
13100.0000000301,24.1893367322175,1.00000000085354,0.57381984139896
13200.0000000305,24.2983595391215,1.00000000083699,0.585456417929888
13300.0000000309,24.3656794349425,1.00000000092716,0.599911336592166
13400.0000000312,24.3952993876816,1.00000000088625,0.588359519922841
13500.0000000316,24.4022368500936,1.00000000080408,0.573795109919429
13600.0000000319,24.386690984599,1.00000000084516,0.562557463682494
13700.0000000323,24.3525093344557,1.00000000086244,0.556052924031411
13800.0000000327,24.3135138974118,1.00000000073966,0.548624738626209
13900.000000033,24.2656759877937,1.00000000085959,0.564461756414519
14000.0000000334,24.2016095478341,1.00000000084679,0.563634900864481
14100.0000000338,24.1258552567627,1.00000000081596,0.575055057349267
14200.0000000341,24.0405064732035,1.00000000088082,0.579277516343277
14300.0000000345,23.9455997377332,1.00000000087738,0.574770833441431
14400.0000000349,23.843461682714,1.00000000083581,0.573470594375016
14500.0000000352,23.7368464372188,1.00000000082466,0.575675450529634
14600.0000000356,23.6301565665864,1.00000000076689,0.563825322635702
14700.0000000359,23.5292279548563,1.00000000068644,0.552443856733362
14800.0000000363,23.4354132312607,1.00000000072815,0.546298742176999
14900.0000000367,23.3413848496695,1.00000000091902,0.550678875246954
15000.000000037,23.2438183789539,1.00000000084253,0.558127108096203
15100.0000000374,23.1439093141581,1.0000000008982,0.563471635301461
15200.0000000378,23.0369327634434,1.00000000091432,0.572377803490239
15300.0000000381,22.9258882213519,1.00000000081196,0.569260698213516
15400.0000000385,22.8193086485047,1.00000000076001,0.564996039847254
15500.0000000389,22.7238299713049,1.00000000077273,0.561259076586183
15600.0000000392,22.6392641033973,1.00000000075238,0.549995450756731
15700.0000000396,22.563726536494,1.0000000007827,0.550012392279461
15800.0000000399,22.4996998273974,1.00000000068891,0.537108716550678
15900.0000000403,22.4465775811584,1.0000000008028,0.523271191806733
16000.0000000407,22.3921964065775,1.00000000088593,0.517573855900648
16100.000000041,22.3357001568106,1.0000000008175,0.524808818481202
16200.0000000414,22.285554087617,1.00000000074371,0.528310756752558
16300.0000000418,22.2423497296286,1.00000000077836,0.544164412319593
16400.0000000418,22.2000908352723,1.00000000083244,0.565128148379508
16500.0000000404,22.1572044124223,1.00000000078674,0.577982840580387
16600.0000000389,22.1089833221373,1.00000000090306,0.577948853975507
16700.0000000375,22.0507294639238,1.00000000090526,0.562574269108485
16800.000000036,21.9873504520242,1.00000000084723,0.557211869701585
16900.0000000346,21.928290763472,1.0000000007045,0.558505068399654
17000.0000000331,21.8723606572735,1.00000000084015,0.57361324893958
17100.0000000317,21.8113741956034,1.00000000088081,0.58276424425237
17200.0000000302,21.7467498215076,1.00000000081182,0.594772491080324
17300.0000000287,21.6835078541018,1.00000000080658,0.592097827527755
17400.0000000273,21.6156153150444,1.00000000086377,0.603317317553388
17500.0000000258,21.5400301244113,1.00000000081672,0.600443287136339
17600.0000000244,21.4604489097227,1.00000000087344,0.596426723379232
17700.0000000229,21.3760215050605,1.00000000089675,0.597634930423767
17800.0000000215,21.2872720877667,1.00000000084638,0.604299646180719
17900.00000002,21.2000959415159,1.00000000074442,0.594854016011788
18000.0000000186,21.119492444203,1.00000000073645,0.586485766393376
18100.0000000171,21.039477884275,1.00000000088073,0.58730008283711
18200.0000000156,20.9561995809144,1.00000000090173,0.578938695056718
18300.0000000142,20.8723596974179,1.00000000082789,0.575470746966435
18400.0000000127,20.7901901223677,1.00000000074648,0.588625218483373
18500.0000000113,20.7085101980172,1.000000000893,0.594601961873769
18600.0000000098,20.6252597904532,1.00000000081917,0.59431745467814
18700.0000000084,20.5429924942161,1.00000000077284,0.588036355809569
18800.0000000069,20.4629223373164,1.00000000078049,0.59223891936453
18900.0000000055,20.3829540486347,1.00000000083352,0.581377351007945
19000.000000004,20.2996659006815,1.00000000088558,0.588240472104715
19100.0000000026,20.2132671624097,1.00000000083039,0.58797450652986
19200.0000000011,20.1252543160413,1.00000000078759,0.584588325497321
19299.9999999996,20.035231993617,1.00000000089865,0.587112328449121
19399.9999999982,19.9430835486545,1.0000000008622,0.596769442302282
19499.9999999967,19.8480274734651,1.00000000094046,0.613558797426394
19599.9999999953,19.7512827533194,1.00000000089648,0.615371897621743
19699.9999999938,19.6549492977369,1.00000000079767,0.607062164442076
19799.9999999924,19.560430741255,1.000000000727,0.592853760516378
19899.9999999909,19.4664636596249,1.00000000090865,0.609422518079196
19999.9999999895,19.3704782439782,1.00000000097688,0.614990163130034
20099.999999988,19.2748540437763,1.00000000086305,0.618514927557553
20199.9999999865,19.1802937812743,1.00000000071806,0.593586902207059
20299.9999999851,19.0863713132437,1.0000000007649,0.590502936515927
20399.9999999836,18.9932756227914,1.00000000082018,0.606253079151166
20499.9999999822,18.9012071325612,1.00000000073814,0.60839773761943
20599.9999999807,18.8101687592594,1.00000000072478,0.603368556358699
20699.9999999793,18.7205774621447,1.00000000073555,0.600008859709482
20799.9999999778,18.6327926299672,1.00000000079262,0.607648011780859
20899.9999999764,18.5483540559821,1.00000000087101,0.610322788424697
20999.9999999749,18.4687611402331,1.00000000086965,0.600933479383121
21099.9999999734,18.3967042734442,1.00000000087776,0.608796845366329
21199.999999972,18.3359149968214,1.00000000092995,0.61643645340972
21299.9999999705,18.2892616466283,1.0000000010748,0.61452642401622
21399.9999999691,18.2651897928547,1.00000000101943,0.619258983794862
21499.9999999676,18.2617270967095,1.00000000108469,0.625383452087349
21599.9999999662,18.2943076587494,1.00000000115031,0.628617214010297
21699.9999999647,18.354678716774,1.0000000011829,0.634755054246623
21799.9999999633,18.4608222556943,1.00000000115556,0.63474227035908
21899.9999999618,18.5933129778238,1.00000000121096,0.62757086951116
21999.9999999603,18.7693191321862,1.00000000120261,0.621403633113162
22099.9999999589,18.9649918603404,1.00000000126914,0.611792640396686
22199.9999999574,19.1801188654745,1.00000000107567,0.599937547289104
22299.999999956,19.3857925830546,1.00000000102581,0.593393596430806
22399.9999999545,19.5675382278464,1.00000000089863,0.580153510774195
22499.9999999531,19.7071596655093,1.00000000080504,0.557757682093511
22599.9999999516,19.7929123552971,1.00000000068894,0.532262287433746
22699.9999999502,19.8232749406594,1.00000000061103,0.499783585811286
22799.9999999487,19.8031030097536,1.00000000053983,0.47072836353158
22899.9999999473,19.743508798445,1.00000000045752,0.43971642515349
22999.9999999458,19.6723431425006,1.00000000037518,0.409475830310456
23099.9999999443,19.6072428657383,1.0000000003886,0.384998915603463
23199.9999999429,19.5858861850944,1.00000000033624,0.360861077342473
23299.9999999414,19.6346276293466,1.00000000032736,0.343684113056697
23399.99999994,19.7813242280898,1.0000000003007,0.330595113108559
23499.9999999385,20.0606883657844,1.00000000031899,0.325204267212387
23599.9999999371,20.4741661878494,1.00000000039206,0.329322798122715
23699.9999999356,21.0479281755176,1.00000000043512,0.333694989776288
23799.9999999342,21.7635264408904,1.00000000049677,0.347735187363844
23899.9999999327,22.611194425407,1.00000000054847,0.358677020284825
23999.9999999312,23.5790068678495,1.00000000068523,0.372514384085275
24099.9999999298,24.608364230821,1.00000000077177,0.390684794139845
24199.9999999283,25.7128784309273,1.00000000084128,0.40689978617028
24299.9999999269,26.8141269523127,1.00000000097403,0.424825361594696
24399.9999999254,27.9352923306377,1.00000000094538,0.445556067161731
24499.999999924,29.0161129087148,1.00000000100134,0.458866400775159
24599.9999999225,30.0736785535432,1.00000000101826,0.464471442620702
24699.9999999211,31.0728852274273,1.00000000105917,0.48767642064432
24799.9999999196,32.0236978438324,1.0000000009732,0.497053288373244
24899.9999999181,32.9226462733629,1.00000000101329,0.507975139935975
24999.9999999167,33.7491827846825,1.00000000098361,0.516173935191575
25099.9999999152,34.5295655126485,1.00000000092803,0.531031939339358
25199.9999999138,35.2492868487664,1.00000000092744,0.539136666761409
25299.9999999123,35.9301342051963,1.0000000009469,0.546548860788057
25399.9999999109,36.5546861159755,1.00000000092441,0.55621232809207
25499.9999999094,37.1306701201376,1.0000000009209,0.560354688864801
25599.999999908,37.6659377082707,1.00000000092565,0.573978060882787
25699.9999999065,38.1492094327521,1.00000000092684,0.584670426928592
25799.9999999051,38.6039154633784,1.00000000087064,0.586170285690102
25899.9999999036,39.0147313738728,1.00000000089092,0.581598396450229
25999.9999999021,39.3927093018029,1.00000000097028,0.599215219832941
26099.9999999007,39.714146579137,1.00000000093916,0.616640150835645
26199.9999998992,39.9993470095509,1.00000000088673,0.618730707579564
26299.9999998978,40.2574492224151,1.00000000089553,0.609489399967059
26399.9999998963,40.4907416758699,1.00000000090768,0.601395444434037
26499.9999998949,40.6951328971999,1.00000000089286,0.613614497046642
26599.9999998934,40.8557364301574,1.00000000105538,0.622630809506514
26699.999999892,40.9820858593712,1.00000000096722,0.634276496726108
26799.9999998905,41.0764803584059,1.00000000091291,0.629642871181713
26899.999999889,41.1629339875735,1.00000000083516,0.609040467556795
26999.9999998876,41.2359906715537,1.00000000083826,0.598740383758802
27099.9999998861,41.2925636957174,1.00000000096052,0.605232213004861
27199.9999998847,41.321515380589,1.00000000099106,0.620536454494844
27299.9999998832,41.3255962162475,1.00000000095565,0.616476204547895
27399.9999998818,41.3159122743353,1.00000000088007,0.618522327440672
27499.9999998803,41.2983493635311,1.00000000079873,0.60406832917425
27599.9999998789,41.2794826383414,1.00000000080106,0.602074457670297
27699.9999998774,41.2513136561607,1.00000000086719,0.600122760794002
27799.9999998759,41.212281815334,1.00000000093687,0.588328039496703
27899.9999998745,41.160877480997,1.00000000087907,0.579806066470723
27999.999999873,41.1027241311586,1.00000000084175,0.58613982366524
28099.9999998716,41.0373187448885,1.00000000087269,0.611114319190054
28199.9999998701,40.9655102755232,1.00000000085711,0.616722638981211
28299.9999998687,40.8925275310428,1.00000000081204,0.598651305168386
28399.9999998672,40.8232673188984,1.00000000069919,0.573310719276042
28499.9999998658,40.7582743938483,1.00000000084204,0.58665635782158
28599.9999998643,40.6816290570811,1.00000000101316,0.589026314411169
28699.9999998629,40.5929715122085,1.00000000090283,0.583738706200914
28799.9999998614,40.4986391991902,1.00000000083715,0.578647142624716
28899.9999998599,40.4054470395217,1.0000000009018,0.562219334150779
28999.9999998585,40.31339895403,1.00000000082993,0.575538577896439
