Time,AGPnorm,Energy,Entropy
0,0,1,-7.40906787096632e-17
99.9999999999986,0.00157704200505893,1.00000000000137,0.00475737784742493
199.999999999993,0.0101140441408147,1.00000000000178,0.0140855575096266
300,0.0208194234713254,1.00000000000091,0.0260076906867766
400.000000000022,0.0312612505649921,1.00000000000007,0.0408631459397984
500.000000000045,0.0441605654132703,1.00000000000046,0.0589185724041788
600.000000000068,0.060199948449786,1.00000000000133,0.0802252666782373
700.000000000091,0.0760863018196691,1.00000000000162,0.104466051044764
800.000000000113,0.0922992868876251,1.0000000000011,0.132829437032334
900.000000000136,0.108402166851997,1.00000000000375,0.167210136370614
1000.00000000016,0.124981863015365,1.00000000003442,0.211294285472365
1100.0000000001,0.142349332713278,1.00000000015792,0.264267089363346
1200,0.183017733870931,1.00000000041965,0.319539728152972
1299.99999999991,0.258873646459522,1.00000000077904,0.369792124410714
1399.99999999982,0.429119015357456,1.00000000114455,0.413817313971376
1499.99999999973,0.815784827000647,1.00000000140175,0.450994499329876
1599.99999999964,1.52342115553198,1.00000000157451,0.482169864646883
1699.99999999955,2.59735408471383,1.0000000018391,0.507836461354532
1799.99999999946,4.07703441822296,1.00000000195228,0.528773714234183
1899.99999999937,5.99130024219733,1.00000000209211,0.54513056496958
1999.99999999928,8.31360559272134,1.00000000216608,0.558393850949919
2099.99999999919,10.9945514395302,1.00000000207846,0.568956691406866
2199.99999999909,13.9793524280029,1.00000000203458,0.576347187987364
2299.999999999,17.184510156065,1.00000000213585,0.581232830253624
2399.99999999891,20.5159805905488,1.00000000212148,0.58458642382998
2499.99999999882,23.8950093285815,1.00000000205128,0.587697893925024
2599.99999999873,27.2724971366425,1.00000000204401,0.587750057552697
2699.99999999864,30.5803090139172,1.00000000191865,0.587648734495133
2799.99999999855,33.7436268772684,1.00000000180687,0.587078122426687
2899.99999999846,36.7140175060098,1.0000000016727,0.586408068579046
2999.99999999837,39.467141540936,1.00000000173056,0.583415476710252
3099.99999999828,41.9912569468623,1.00000000158678,0.580568655172513
3199.99999999819,44.2565441165634,1.00000000158343,0.578863214102704
3299.99999999809,46.2407164985493,1.00000000155199,0.578416718120667
3399.999999998,47.9426159809719,1.0000000014458,0.575677564666302
3499.99999999791,49.3766201373987,1.0000000014275,0.572499609415802
3599.99999999782,50.549013521046,1.00000000137971,0.574337829945421
3699.99999999773,51.4612337167805,1.00000000126458,0.566133276066127
3799.99999999764,52.130138367814,1.00000000135239,0.572680677411951
3899.99999999755,52.5642231495413,1.00000000122959,0.563852349041228
3999.99999999746,52.8021936995323,1.00000000126402,0.572169219074684
4099.99999999738,52.859925782784,1.00000000112407,0.554507124913392
4199.99999999775,52.7520559873151,1.00000000125118,0.576132241407561
4299.99999999811,52.5261565642615,1.00000000105487,0.549685306226711
4399.99999999848,52.1548561904978,1.00000000122833,0.564212019627921
4499.99999999884,51.7353308471271,1.00000000128302,0.565427983106998
4599.9999999992,51.2137291828127,1.00000000089477,0.523034778386585
4699.99999999957,50.635241791419,1.00000000152621,0.580415238672887
4799.99999999993,50.0465760524599,1.00000000107683,0.533103252248351
4900.00000000029,49.3776038535615,1.00000000092908,0.515858888904651
5000.00000000066,48.7010177443423,1.00000000159796,0.581110500795665
5100.00000000102,48.0418438514837,1.00000000109201,0.524217703105623
5200.00000000139,47.3323193202337,1.00000000094079,0.493205616952005
5300.00000000175,46.6123293944753,1.00000000156792,0.571108369734932
5400.00000000211,45.9297474859093,1.00000000142535,0.540053434807797
5500.00000000248,45.2370666816367,1.00000000088574,0.481754243202312
5600.00000000284,44.5226079269344,1.00000000120191,0.506594741426059
5700.00000000321,43.8292892846422,1.00000000168772,0.566338467242559
5800.00000000357,43.1656690093048,1.00000000132974,0.512462762274199
5900.00000000393,42.5015148896012,1.00000000100171,0.477241503637422
6000.0000000043,41.8336701017569,1.00000000119781,0.497466663560814
6100.00000000466,41.1816527959805,1.00000000152651,0.541431645213697
6200.00000000502,40.5552599615331,1.00000000147372,0.533892128765003
6300.00000000539,39.9436353604722,1.00000000111709,0.483938074357713
6400.00000000575,39.3408002062057,1.00000000108323,0.494503404882901
6500.00000000612,38.7485783563761,1.00000000124064,0.506985035710605
6600.00000000648,38.1718101662756,1.00000000137127,0.52747492591347
6700.00000000684,37.6123422106212,1.0000000014652,0.531109127763119
6800.00000000721,37.0695355793484,1.00000000112656,0.496610888049087
6900.00000000757,36.5442565017908,1.0000000011075,0.498721881891456
7000.00000000793,36.0344072280903,1.0000000013356,0.522423632247135
7100.0000000083,35.5399909685813,1.00000000109009,0.506876181219722
7200.00000000866,35.0613883739207,1.00000000133898,0.518249147823109
7300.00000000903,34.5946873726128,1.00000000142391,0.528392671023454
7400.00000000939,34.1413173698092,1.00000000113483,0.507945014334648
7500.00000000975,33.7094888934871,1.00000000097898,0.493802497113682
7600.00000001012,33.2949330109596,1.00000000136549,0.519989296806039
7700.00000001048,32.8900243516102,1.00000000126274,0.529284816701312
7800.00000001084,32.5027727135454,1.00000000098805,0.492759674877929
7900.00000001121,32.1332416239421,1.00000000125964,0.504836374056834
8000.00000001157,31.7707925995396,1.00000000144302,0.531659372293056
8100.00000001194,31.412817974848,1.00000000136948,0.519548612548208
8200.0000000123,31.073328400021,1.000000001083,0.498801283987901
8300.00000001266,30.7543280304668,1.00000000112797,0.507469115616257
8400.00000001303,30.4445714246553,1.00000000143399,0.521147222875608
8500.00000001339,30.1379826064585,1.00000000141322,0.523226242523715
8600.00000001376,29.8461617458074,1.00000000107016,0.511386169918829
8700.00000001412,29.5731758798905,1.0000000011375,0.496906934558149
8800.00000001448,29.3092367463206,1.00000000139621,0.527187269230823
8900.00000001485,29.0467154323596,1.00000000143901,0.536850495435216
9000.00000001521,28.7872935987845,1.00000000130919,0.523774802489095
9100.00000001557,28.5439905666025,1.00000000116376,0.510648714007753
9200.00000001594,28.3167505232958,1.00000000117489,0.519366786058026
9300.0000000163,28.0990289400926,1.00000000124066,0.529069931306894
9400.00000001667,27.8874694004021,1.00000000125769,0.525967792477034
9500.00000001703,27.6806603102781,1.00000000129238,0.516779489374219
9600.00000001739,27.4802465952283,1.00000000128243,0.534256295263869
9700.00000001776,27.2884451002738,1.00000000120731,0.533752609571521
9800.00000001812,27.1050463544003,1.00000000123621,0.525053237845543
9900.00000001848,26.9294441710782,1.00000000132683,0.534661915633873
10000.0000000188,26.7578485472657,1.00000000143537,0.540009376619344
10100.0000000192,26.5885527084363,1.00000000123983,0.536989910050774
10200.0000000196,26.4285153050664,1.00000000112206,0.527965567907016
10300.0000000199,26.2847287803357,1.00000000118278,0.522788256800246
10400.0000000203,26.1487181850582,1.00000000138616,0.534987851642584
10500.0000000207,26.011438656517,1.00000000136484,0.540231923420515
10600.000000021,25.8837078508972,1.00000000108378,0.518136894995084
10700.0000000214,25.7696689232543,1.00000000118746,0.522746120275887
10800.0000000218,25.659956145808,1.00000000132667,0.52620927260699
10900.0000000221,25.544411283797,1.00000000144456,0.551235428385448
11000.0000000225,25.4208717260771,1.00000000141207,0.563581466221842
11100.0000000229,25.2990386826598,1.00000000123311,0.555432820132654
11200.0000000232,25.184244184908,1.00000000126988,0.546364093755904
11300.0000000236,25.0774754427106,1.0000000013665,0.548984529828922
11400.0000000239,24.974305854788,1.00000000134302,0.546641908547103
11500.0000000243,24.8735788841295,1.00000000135609,0.546378428944747
11600.0000000247,24.7772447539524,1.00000000129112,0.54078517912905
11700.000000025,24.6918402391568,1.00000000114295,0.541560605524522
11800.0000000254,24.6160340174217,1.00000000127151,0.548711749935089
11900.0000000258,24.5464367281942,1.00000000130215,0.544226689316466
12000.0000000261,24.4766984943477,1.00000000138548,0.546896390763587
12100.0000000265,24.4071661063723,1.00000000129898,0.546391015410331
12200.0000000269,24.3454893688941,1.00000000119067,0.533021690785998
12300.0000000272,24.2958602053679,1.00000000125521,0.537979090253267
12400.0000000276,24.2516733224415,1.0000000013925,0.55906549831636
12500.0000000279,24.2045586175175,1.00000000139023,0.558851166755903
12600.0000000283,24.152684874961,1.00000000140489,0.559559278895617
12700.0000000287,24.0921017533892,1.0000000013706,0.561607203266556
12800.000000029,24.0238314900094,1.00000000140058,0.575293103679072
12900.0000000294,23.9508408662923,1.00000000131077,0.580620021787381
13000.0000000298,23.8762559135663,1.00000000125072,0.579819935223194
13100.0000000301,23.8060430151216,1.00000000124211,0.56980151159086
13200.0000000305,23.7442074156729,1.00000000130605,0.561417051186896
13300.0000000309,23.6879552420235,1.00000000124979,0.553019189167038
13400.0000000312,23.6353473451982,1.00000000131613,0.550584098246321
13500.0000000316,23.5874826672123,1.00000000134999,0.552951707662857
13600.0000000319,23.5458627419977,1.00000000128393,0.554995841517333
13700.0000000323,23.512575878003,1.00000000117646,0.557598914661849
13800.0000000327,23.4876360652855,1.00000000134073,0.555335391801007
13900.000000033,23.4607897117341,1.00000000141749,0.561092309135333
14000.0000000334,23.4344068193454,1.00000000132268,0.558295091348147
14100.0000000338,23.4128325938888,1.00000000120408,0.545007550780025
14200.0000000341,23.3977926051479,1.00000000132635,0.542330669616666
14300.0000000345,23.3859199650554,1.0000000013112,0.548168464125333
14400.0000000349,23.3767195397017,1.00000000125456,0.557657237769487
14500.0000000352,23.3700641710542,1.00000000130501,0.57308345700742
14600.0000000356,23.3638002060954,1.00000000138139,0.582056369693674
14700.0000000359,23.3528020356661,1.00000000133652,0.590305220183453
14800.0000000363,23.3356605969029,1.00000000136049,0.599152950205247
14900.0000000367,23.315923684321,1.00000000132665,0.59321940436618
15000.000000037,23.2958134703327,1.000000001308,0.593666955941613
15100.0000000374,23.2732401393772,1.00000000127805,0.588816582266324
15200.0000000378,23.2435629566461,1.00000000143258,0.595482600843644
15300.0000000381,23.2059608251378,1.00000000136105,0.593806406105434
15400.0000000385,23.1581494060062,1.00000000145119,0.604157532448207
15500.0000000389,23.1048868880443,1.00000000133949,0.603471176827731
15600.0000000392,23.0504254172931,1.0000000013039,0.605545958479841
15700.0000000396,22.9987329082585,1.00000000123881,0.600183259416424
15800.0000000399,22.9543875193063,1.0000000013648,0.590297946791461
15900.0000000403,22.917023759123,1.00000000141137,0.585269195192286
16000.0000000407,22.8847241362808,1.00000000135927,0.579237750982032
16100.000000041,22.8578842945211,1.0000000013732,0.57887190883822
16200.0000000414,22.8354317742047,1.00000000142787,0.577553216752023
16300.0000000418,22.8186459121755,1.00000000130618,0.572487889330427
16400.0000000418,22.8087769580524,1.00000000127401,0.583814362648055
16500.0000000404,22.80569409849,1.0000000012943,0.579719182146197
16600.0000000389,22.8045581766652,1.00000000141487,0.579937198688883
16700.0000000375,22.8039749655931,1.00000000140717,0.575206078703484
16800.000000036,22.8049098119634,1.00000000134493,0.571698077495423
16900.0000000346,22.8091025540797,1.00000000137166,0.557363706266599
17000.0000000331,22.8170005857894,1.00000000129384,0.562520835935579
17100.0000000317,22.8309526233899,1.00000000129405,0.57358406106336
17200.0000000302,22.8484788353477,1.00000000131758,0.575701139077175
17300.0000000287,22.8665196492828,1.00000000136237,0.579155151462477
17400.0000000273,22.8826388255883,1.00000000139272,0.582438359381983
17500.0000000258,22.8963464659217,1.00000000145254,0.577932835617337
17600.0000000244,22.9096781798529,1.00000000134677,0.577075519005652
17700.0000000229,22.9216988791095,1.0000000013766,0.593588334802214
17800.0000000215,22.9318008289317,1.00000000137146,0.602354597509096
17900.00000002,22.9395133012668,1.00000000137862,0.607571850446096
18000.0000000186,22.9442210879016,1.00000000141807,0.613510638960432
18100.0000000171,22.9454154623906,1.00000000144025,0.611355151920213
18200.0000000156,22.9401775679222,1.00000000144854,0.611391825983922
18300.0000000142,22.9321140168657,1.0000000013707,0.616543637370188
18400.0000000127,22.9241688975061,1.00000000140701,0.624366166723371
18500.0000000113,22.9133402980937,1.00000000148377,0.628058799630901
18600.0000000098,22.8981014157659,1.00000000144495,0.629790847074768
18700.0000000084,22.8780058784909,1.00000000142422,0.629441203302545
18800.0000000069,22.8546641361952,1.00000000135224,0.622738735813639
18900.0000000055,22.8275960355868,1.00000000144059,0.623629828449922
19000.000000004,22.7952095737538,1.00000000146121,0.622941903129557
19100.0000000026,22.7573221217466,1.00000000155762,0.62005831789197
19200.0000000011,22.7128951415549,1.00000000150971,0.623115798285154
19299.9999999996,22.6635875387564,1.0000000014464,0.613605458831043
19399.9999999982,22.6130469689043,1.00000000134659,0.618673399968744
19499.9999999967,22.5634436357035,1.0000000013304,0.617219088764748
19599.9999999953,22.5176779073372,1.00000000130198,0.609424822497724
19699.9999999938,22.4769830298572,1.00000000132878,0.608920260866837
19799.9999999924,22.4419620751874,1.00000000142577,0.609007178814642
19899.9999999909,22.4120466131146,1.00000000141768,0.605941195454761
19999.9999999895,22.3856012719272,1.0000000014024,0.606566630401356
20099.999999988,22.3635102374951,1.00000000145848,0.600803206350219
20199.9999999865,22.3464936193475,1.0000000013699,0.586045595214462
20299.9999999851,22.3357773128641,1.00000000135333,0.57789687538331
20399.9999999836,22.3305531824051,1.00000000136425,0.579579348048892
20499.9999999822,22.3311299186163,1.00000000138108,0.584307926968738
20599.9999999807,22.3371427817098,1.00000000143352,0.588887314787213
20699.9999999793,22.3460422365539,1.00000000136483,0.595847514444425
20799.9999999778,22.3574122938017,1.00000000153114,0.59038882170631
20899.9999999764,22.369826374644,1.00000000140193,0.588597887268082
20999.9999999749,22.3840117969165,1.00000000140102,0.585859433927987
21099.9999999734,22.4009404643109,1.00000000140191,0.57407312603694
21199.999999972,22.4208006546365,1.00000000134329,0.568553555088599
21299.9999999705,22.4468813773633,1.00000000139113,0.568674893310676
21399.9999999691,22.476724976327,1.00000000134246,0.57205411341417
21499.9999999676,22.5064939700029,1.00000000147257,0.577985658691016
21599.9999999662,22.5348325499387,1.00000000142204,0.582594800190273
21699.9999999647,22.5649772955537,1.00000000141448,0.587438831326328
21799.9999999633,22.5958664224065,1.00000000148442,0.58935480865139
21899.9999999618,22.624069669169,1.00000000148654,0.587755779041049
21999.9999999603,22.6470003627057,1.00000000153318,0.59670815335247
22099.9999999589,22.6652039267567,1.00000000145594,0.601734743805879
22199.9999999574,22.6810616361675,1.00000000144882,0.616036074413315
22299.999999956,22.6956236894009,1.00000000141668,0.62922511269686
22399.9999999545,22.708681248039,1.00000000146028,0.631459098877266
22499.9999999531,22.7193902432872,1.00000000149014,0.633583836510498
22599.9999999516,22.7278501534206,1.00000000141159,0.626307629387716
22699.9999999502,22.7352312817191,1.0000000013902,0.626754965772182
22799.9999999487,22.7431563261912,1.0000000013842,0.631253220293073
22899.9999999473,22.7514032219609,1.0000000014513,0.636532602403192
22999.9999999458,22.7603736771134,1.00000000143352,0.636949207674802
23099.9999999443,22.7691580646352,1.00000000145202,0.635714434549067
23199.9999999429,22.7732992633952,1.00000000156426,0.635346962177422
23299.9999999414,22.7719443463677,1.00000000154455,0.63884018409079
23399.99999994,22.7676059954005,1.00000000144091,0.645819270687634
23499.9999999385,22.7608836814094,1.00000000157468,0.644415109207042
23599.9999999371,22.7522388277447,1.00000000144173,0.638867407228431
23699.9999999356,22.7409900849337,1.00000000147248,0.644617832411416
23799.9999999342,22.7297923743662,1.00000000146148,0.644190957310563
23899.9999999327,22.7203879217635,1.00000000142935,0.63514077736351
23999.9999999312,22.7128492564672,1.00000000152542,0.63672880725961
24099.9999999298,22.7038339318409,1.00000000148206,0.638941946505726
24199.9999999283,22.6913242485827,1.00000000153526,0.639961830770438
24299.9999999269,22.6737434686518,1.00000000154776,0.641868226948991
24399.9999999254,22.6523579170392,1.00000000151111,0.639448513784172
24499.999999924,22.6298767658402,1.00000000149124,0.646075362479188
24599.9999999225,22.6055086227035,1.0000000015369,0.645971600250385
24699.9999999211,22.5804132549548,1.00000000144848,0.64334828395121
24799.9999999196,22.5547545043261,1.00000000146698,0.646927024413482
24899.9999999181,22.5273076207082,1.00000000150665,0.648928604884304
24999.9999999167,22.4988333377718,1.00000000142701,0.636185738499819
25099.9999999152,22.468623072009,1.00000000148661,0.6350803035133
25199.9999999138,22.4360613206601,1.000000001497,0.637476007464341
25299.9999999123,22.4010521797368,1.00000000147675,0.638910043228209
25399.9999999109,22.3640948910213,1.0000000014708,0.639012174284195
25499.9999999094,22.3247069653517,1.00000000156783,0.65062282183363
25599.999999908,22.2821704358297,1.00000000164277,0.648654422707924
25699.9999999065,22.2370343780552,1.00000000156416,0.646907142093453
25799.9999999051,22.1907818861857,1.00000000150903,0.646421943814764
25899.9999999036,22.1441425972026,1.00000000143982,0.649261279522055
25999.9999999021,22.0979022849301,1.00000000153924,0.648431306069959
26099.9999999007,22.0539296210403,1.00000000139967,0.635889158031673
26199.9999998992,22.0126744317234,1.00000000146858,0.628969266523299
26299.9999998978,21.9748821673364,1.00000000151761,0.621913763895359
26399.9999998963,21.9410558162025,1.00000000144014,0.622505740441361
26499.9999998949,21.911046241332,1.00000000146447,0.62614900043939
26599.9999998934,21.8849692166136,1.00000000156927,0.629318434622613
26699.999999892,21.8614341639421,1.00000000151109,0.631563101868096
26799.9999998905,21.8413943169788,1.00000000146885,0.628966617641242
26899.999999889,21.8259665473531,1.00000000144398,0.624521619212479
26999.9999998876,21.8146025505463,1.00000000150298,0.622268015715299
27099.9999998861,21.8090172193448,1.00000000145708,0.614686688733829
27199.9999998847,21.808351341487,1.00000000154175,0.610605708556935
27299.9999998832,21.8121485862291,1.00000000156337,0.610908202243028
27399.9999998818,21.8212444226967,1.00000000149976,0.609408155457022
27499.9999998803,21.8334496204963,1.00000000146492,0.610858176549709
27599.9999998789,21.8487231023775,1.0000000015159,0.606471081258478
27699.9999998774,21.8669168193149,1.00000000148016,0.601052050910253
27799.9999998759,21.8873840759117,1.00000000151626,0.599875317176816
27899.9999998745,21.9080500700483,1.00000000151162,0.592803949282619
27999.999999873,21.9307971431326,1.0000000014873,0.593941319765744
28099.9999998716,21.9568840517054,1.00000000152999,0.596274875971794
28199.9999998701,21.9840200819605,1.00000000161725,0.594833155371542
28299.9999998687,22.0144608449275,1.00000000145546,0.587437694340862
28399.9999998672,22.0503780486273,1.00000000148084,0.590347831699828
28499.9999998658,22.0888692851362,1.00000000151569,0.592243250132445
28599.9999998643,22.1276334287444,1.0000000015733,0.59895953639762
28699.9999998629,22.1681554214077,1.00000000150073,0.599102769587571
28799.9999998614,22.2104663504562,1.00000000155813,0.606548093923741
28899.9999998599,22.2533176002998,1.00000000153938,0.609710056742122
28999.9999998585,22.2965541090445,1.00000000159753,0.6159365872667
