Time,AGPnorm,Energy,Entropy
0,0,1,-7.4777127246195e-17
99.9999999999986,0.000413070720550893,1.00000000000076,0.00158723105474371
199.999999999993,0.00275450686419453,1.00000000000029,0.00479953493022242
300,0.00583195968954136,0.99999999999946,0.00893294199461572
400.000000000022,0.00900329416252653,0.999999999999687,0.0140715373754073
500.000000000045,0.0127920294235179,1.0000000000004,0.0203590685726853
600.000000000068,0.0178440094415017,1.00000000000054,0.0276406718591785
700.000000000091,0.0236110842877509,0.999999999999826,0.0355348912431793
800.000000000113,0.0296087949005373,0.99999999999958,0.0440305946226115
900.000000000136,0.0363686206955671,1.00000000000013,0.0533922237858159
1000.00000000016,0.0434539244521142,1.00000000000038,0.0636274418190752
1100.0000000001,0.0514377062583647,1.00000000000025,0.0746816456891641
1200,0.0592291941309089,0.999999999999654,0.0864311559321815
1299.99999999991,0.0676802184928776,1.00000000000002,0.0991209286967087
1399.99999999982,0.0760633644540193,1.00000000000026,0.113025210458728
1499.99999999973,0.0849365409011731,1.00000000000043,0.128185690827556
1599.99999999964,0.0939252805982167,1.00000000000044,0.144840348138232
1699.99999999955,0.102770184090898,1.00000000000129,0.163170523623697
1799.99999999946,0.111751324775719,1.0000000000045,0.183921052103349
1899.99999999937,0.119810448178783,1.00000000001142,0.207240820574005
1999.99999999928,0.130830586062967,1.00000000002679,0.233035212797883
2099.99999999919,0.147529801593979,1.00000000005159,0.260467207482081
2199.99999999909,0.17159530390168,1.00000000008752,0.288618171565363
2299.999999999,0.209959455680263,1.00000000012878,0.31649712181959
2399.99999999891,0.294106263355596,1.00000000018158,0.342851444390968
2499.99999999882,0.463414684954676,1.00000000022861,0.367403203787301
2599.99999999873,0.7437159527759,1.0000000002959,0.389530423705286
2699.99999999864,1.17084073222976,1.0000000003339,0.409883723248612
2799.99999999855,1.81045161237439,1.00000000038926,0.428033796870646
2899.99999999846,2.73362939269968,1.00000000041314,0.444342235257744
2999.99999999837,3.97965362675717,1.00000000048275,0.45864414269967
3099.99999999828,5.57514511666366,1.00000000050602,0.471609620332386
3199.99999999819,7.56659001621769,1.00000000051668,0.483197540586576
3299.99999999809,9.99732539925649,1.00000000055239,0.493135216165918
3399.999999998,12.8833008142875,1.0000000005488,0.501836703267566
3499.99999999791,16.2156642078753,1.00000000059071,0.509498003751099
3599.99999999782,19.9935511953599,1.00000000060803,0.516391631933114
3699.99999999773,24.2134686843234,1.00000000061404,0.522002032066956
3799.99999999764,28.855145377055,1.00000000062046,0.526625563600021
3899.99999999755,33.8852808942908,1.00000000063822,0.530889952153953
3999.99999999746,39.2659113170004,1.00000000061884,0.534931164536949
4099.99999999738,44.9662322504691,1.00000000062501,0.537188103118383
4199.99999999775,50.9412174190424,1.00000000063557,0.5392241318155
4299.99999999811,57.1449946674117,1.00000000062804,0.541607814972698
4399.99999999848,63.5318907633008,1.00000000061632,0.542839882186758
4499.99999999884,70.0629723960521,1.00000000059183,0.543283973869261
4599.9999999992,76.6901151894251,1.00000000060297,0.544314014703992
4699.99999999957,83.3614773728823,1.00000000060624,0.544196769438427
4799.99999999993,90.0450585498824,1.00000000058259,0.543920053060411
4900.00000000029,96.701669382935,1.00000000057123,0.544138324272526
5000.00000000066,103.295065279823,1.00000000056822,0.542788505883185
5100.00000000102,109.783867380048,1.00000000054146,0.542264955291423
5200.00000000139,116.139851461826,1.00000000056725,0.542133019306257
5300.00000000175,122.341138250959,1.00000000054149,0.540662782642258
5400.00000000211,128.364457799491,1.00000000052694,0.539348380866506
5500.00000000248,134.182193305731,1.00000000051303,0.539078045233158
5600.00000000284,139.770978957793,1.0000000005288,0.537394932353944
5700.00000000321,145.121320622645,1.00000000051998,0.535536461392043
5800.00000000357,150.223118724329,1.00000000050161,0.534402316074867
5900.00000000393,155.060156979662,1.0000000004951,0.5334224634486
6000.0000000043,159.617554027894,1.00000000046342,0.531216488946762
6100.00000000466,163.889527646102,1.00000000045451,0.529307622549784
6200.00000000502,167.879872179734,1.00000000043247,0.52881611380724
6300.00000000539,171.584142016181,1.00000000043492,0.528053886564126
6400.00000000575,174.99698374083,1.00000000041456,0.524652442894431
6500.00000000612,178.113465818661,1.00000000040814,0.521935243966175
6600.00000000648,180.94242979417,1.00000000041599,0.523309541449115
6700.00000000684,183.49528047676,1.00000000040247,0.52610417708335
6800.00000000721,185.776581916663,1.00000000039143,0.522390907495773
6900.00000000757,187.779550412784,1.00000000036633,0.513590253289037
7000.00000000793,189.500482432739,1.00000000037059,0.511900274479965
7100.0000000083,190.96471701205,1.00000000037409,0.521549139930132
7200.00000000866,192.205230956565,1.00000000038911,0.529744553746522
7300.00000000903,193.233102284652,1.0000000003684,0.522264127245501
7400.00000000939,194.026290313227,1.00000000032345,0.503273375609797
7500.00000000975,194.562887631791,1.00000000030035,0.496121329531725
7600.00000001012,194.871441121822,1.00000000033507,0.514207706187915
7700.00000001048,195.019171753187,1.00000000036922,0.536250445447542
7800.00000001084,195.05237576226,1.00000000039958,0.537924915654556
7900.00000001121,194.952682046389,1.00000000032659,0.512334270521828
8000.00000001157,194.659457262825,1.00000000026468,0.478398274274873
8100.00000001194,194.145329211135,1.00000000023821,0.476066877212971
8200.0000000123,193.466586180329,1.00000000031702,0.512027319474764
8300.00000001266,192.71811624926,1.00000000040935,0.54510097349179
8400.00000001303,191.959489572424,1.00000000045878,0.551637191691684
8500.00000001339,191.174281737994,1.00000000038665,0.524444150494109
8600.00000001376,190.286401891572,1.00000000026799,0.471085641397349
8700.00000001412,189.229538491886,1.00000000018103,0.436323384780431
8800.00000001448,188.016353446229,1.00000000023508,0.463547553178191
8900.00000001485,186.733546070618,1.00000000036861,0.517085950230861
9000.00000001521,185.46994609661,1.0000000004839,0.550412230638219
9100.00000001557,184.265336706421,1.00000000049947,0.556944836402741
9200.00000001594,183.10022340415,1.00000000043029,0.531740555021968
9300.0000000163,181.904665444789,1.000000000308,0.470394939175664
9400.00000001667,180.605804929112,1.00000000017522,0.40620788199976
9500.00000001703,179.186856054629,1.00000000016649,0.398483453515665
9600.00000001739,177.695193667109,1.00000000028126,0.456943321649958
9700.00000001776,176.199923772847,1.00000000040562,0.518703359169574
9800.00000001812,174.755448783873,1.00000000050914,0.549458883763291
9900.00000001848,173.386789807701,1.00000000052847,0.555635759926323
10000.0000000188,172.083134001311,1.00000000047277,0.540603090674031
10100.0000000192,170.801647931643,1.00000000036279,0.490832620706704
10200.0000000196,169.485909761402,1.00000000023925,0.414091505688026
10300.0000000199,168.099543488304,1.00000000014866,0.35777569414624
10400.0000000203,166.650856728053,1.00000000016174,0.366603395089156
10500.0000000207,165.176442622132,1.00000000028256,0.43013698215394
10600.000000021,163.713120611882,1.000000000416,0.496265627739602
10700.0000000214,162.288537557734,1.00000000052796,0.5324336334305
10800.0000000218,160.920362675103,1.00000000053297,0.544462355940553
10900.0000000221,159.612007671692,1.00000000050403,0.544437846247264
11000.0000000225,158.350889132531,1.00000000046962,0.527994719078378
11100.0000000229,157.111091931212,1.00000000035611,0.486347516177156
11200.0000000232,155.863400273924,1.00000000029201,0.422026993795487
11300.0000000236,154.590706311783,1.00000000019076,0.362777148875062
11400.0000000239,153.295899111834,1.00000000016588,0.342994292244568
11500.0000000243,151.994698877741,1.0000000001997,0.368444699847539
11600.0000000247,150.701958159033,1.00000000030214,0.426988843636209
11700.000000025,149.426711572204,1.00000000038999,0.483554262560614
11800.0000000254,148.174195319366,1.00000000045046,0.51342944055098
11900.0000000258,146.94905048195,1.00000000050413,0.523245336468727
12000.0000000261,145.755708846138,1.00000000050525,0.529427242682684
12100.0000000265,144.595434164541,1.00000000045574,0.534299160872264
12200.0000000269,143.463245222224,1.00000000041508,0.523522526190373
12300.0000000272,142.348414059249,1.00000000037156,0.491482390205733
12400.0000000276,141.240560480101,1.00000000029423,0.445006498377229
12500.0000000279,140.136101346088,1.00000000024937,0.398992886150791
12600.0000000283,139.039774123259,1.00000000022361,0.367731525480539
12700.0000000287,137.960681815991,1.00000000021771,0.362682566303554
12800.000000029,136.905961725494,1.00000000024533,0.386467241273554
12900.0000000294,135.875922530019,1.00000000029547,0.419106818872775
13000.0000000298,134.865242001572,1.00000000034445,0.459501979264133
13100.0000000301,133.868137421071,1.00000000037137,0.493827410964343
13200.0000000305,132.881764337467,1.00000000039605,0.506848269742947
13300.0000000309,131.905316578485,1.00000000040027,0.501810233689345
13400.0000000312,130.938028008349,1.00000000043441,0.501179797502071
13500.0000000316,129.979891120638,1.000000000463,0.515320729656499
13600.0000000319,129.032559756112,1.00000000049787,0.532681488999463
13700.0000000323,128.097802444168,1.0000000004479,0.534666529253239
13800.0000000327,127.176509617904,1.00000000037749,0.512527290546493
13900.000000033,126.269813601339,1.00000000029224,0.469913355512247
14000.0000000334,125.38203006732,1.00000000022028,0.423641793517826
14100.0000000338,124.521076182886,1.00000000020416,0.389526988438462
14200.0000000341,123.693345607088,1.00000000022819,0.375226060012224
14300.0000000345,122.900044858741,1.00000000027103,0.379252642160324
14400.0000000349,122.13915342867,1.00000000031355,0.400159551428233
14500.0000000352,121.405203694361,1.00000000032827,0.430061946446032
14600.0000000356,120.690128022097,1.00000000035996,0.453222228640869
14700.0000000359,119.984896508281,1.00000000038222,0.472409489213568
14800.0000000363,119.283639503382,1.00000000037084,0.491312152796322
14900.0000000367,118.586372279418,1.00000000034788,0.501101403841278
15000.000000037,117.897238659189,1.00000000031985,0.495435739493592
15100.0000000374,117.21940507425,1.00000000029486,0.482443813987252
15200.0000000378,116.549103874501,1.00000000036218,0.476958301318326
15300.0000000381,115.877135963823,1.00000000043892,0.489025395754928
15400.0000000385,115.195756048924,1.00000000047612,0.508963173184457
15500.0000000389,114.504005975736,1.00000000052242,0.527990198003051
15600.0000000392,113.806880922002,1.00000000045987,0.537722254498659
15700.0000000396,113.111245103301,1.00000000042223,0.529802341131321
15800.0000000399,112.424363020938,1.00000000036978,0.505151183815255
15900.0000000403,111.754575117935,1.00000000030677,0.468097416810497
16000.0000000407,111.112422818902,1.00000000024001,0.42954362882096
16100.000000041,110.509468562161,1.0000000001881,0.398992384980634
16200.0000000414,109.953049541891,1.00000000020207,0.379975724119658
16300.0000000418,109.441431564388,1.00000000024772,0.377799980040318
16400.0000000418,108.96560890615,1.00000000030471,0.39309837878258
16500.0000000404,108.515106109519,1.00000000033621,0.415417809224784
16600.0000000389,108.081123003207,1.00000000035799,0.437395228586889
16700.0000000375,107.657387180734,1.00000000035884,0.457592174671883
16800.000000036,107.237638393451,1.00000000037675,0.473291146222847
16900.0000000346,106.816863027392,1.00000000040816,0.483588113778515
17000.0000000331,106.39174106253,1.00000000040421,0.492818252876513
17100.0000000317,105.961162576723,1.00000000040076,0.502705700719136
17200.0000000302,105.527702059021,1.00000000036087,0.508317317568968
17300.0000000287,105.096343950985,1.00000000031675,0.508467679469328
17400.0000000273,104.672688336259,1.0000000002966,0.504442723778895
17500.0000000258,104.258406746283,1.00000000029143,0.497079084974569
17600.0000000244,103.848937585017,1.00000000032897,0.492718654199079
17700.0000000229,103.436928176401,1.00000000038133,0.488636443134356
17800.0000000215,103.014418779093,1.00000000040565,0.489090809427337
17900.00000002,102.576678278859,1.00000000043157,0.497086760662421
18000.0000000186,102.121888814418,1.00000000046049,0.509365459479704
18100.0000000171,101.651822670539,1.00000000047202,0.526504019694897
18200.0000000156,101.171791624377,1.00000000046691,0.53861512385643
18300.0000000142,100.688549096741,1.00000000042955,0.536931969829345
18400.0000000127,100.21075178397,1.00000000035538,0.520631393005782
18500.0000000113,99.748244750018,1.00000000030933,0.492868957087275
18600.0000000098,99.31177035681,1.00000000024778,0.460004987151199
18700.0000000084,98.9112070995947,1.00000000021229,0.432137997673341
18800.0000000069,98.5529563309173,1.00000000022234,0.416247453791124
18900.0000000055,98.2400017490242,1.00000000022364,0.407007046298154
19000.000000004,97.972201711186,1.00000000024438,0.402388746101009
19100.0000000026,97.7449183724347,1.00000000027219,0.402638461564137
19200.0000000011,97.5483770676918,1.00000000031003,0.409448328581939
19299.9999999996,97.3698284719288,1.00000000036106,0.427523973297267
19399.9999999982,97.1967265231718,1.00000000037953,0.450907433950905
19499.9999999967,97.0216097138236,1.0000000004052,0.469421962074883
19599.9999999953,96.8450084818699,1.00000000035806,0.479311622432756
19699.9999999938,96.6725538498302,1.00000000033316,0.482603847503738
19799.9999999924,96.5097724102392,1.00000000030413,0.482012244724686
19899.9999999909,96.3586253741497,1.00000000030354,0.481444917092525
19999.9999999895,96.2145418806102,1.00000000032817,0.487927552402723
20099.999999988,96.0669053551472,1.00000000037712,0.50026563617891
20199.9999999865,95.9039821991185,1.00000000042219,0.513121584393983
20299.9999999851,95.7180256832567,1.00000000042127,0.523102844907795
20399.9999999836,95.5067230173836,1.00000000043023,0.529756748469594
20499.9999999822,95.2737478010998,1.00000000041347,0.533167037785013
20599.9999999807,95.0269505355204,1.0000000003799,0.535200827652444
20699.9999999793,94.7749653926317,1.00000000034832,0.532787436822184
20799.9999999778,94.5243948912077,1.00000000030837,0.524010709643153
20899.9999999764,94.2790366681149,1.00000000030406,0.512943972610582
20999.9999999749,94.0400916997148,1.00000000030058,0.505323844224432
21099.9999999734,93.8063782454253,1.00000000030444,0.501029268449558
21199.999999972,93.5745852010021,1.00000000033205,0.49536736162328
21299.9999999705,93.3393022387644,1.00000000037297,0.493707711396931
21399.9999999691,93.0945078424278,1.00000000039455,0.498682052314567
21499.9999999676,92.8348161371103,1.00000000042735,0.507625125151592
21599.9999999662,92.5562356022776,1.0000000004491,0.51965365183167
21699.9999999647,92.2585293635625,1.00000000050459,0.532307721261694
21799.9999999633,91.9456551521746,1.00000000049324,0.542203942277568
21899.9999999618,91.6238972240848,1.00000000044809,0.543825417683109
21999.9999999603,91.3004566005921,1.00000000038576,0.538037290119919
22099.9999999589,90.9832811569469,1.0000000003341,0.52566658319348
22199.9999999574,90.6812669780878,1.00000000030813,0.502793571377193
22299.999999956,90.403227029382,1.00000000026972,0.478722977391596
22399.9999999545,90.1572231642929,1.00000000024065,0.457962923740697
22499.9999999531,89.9503660532411,1.00000000022821,0.439351089075844
22599.9999999516,89.7871353710624,1.00000000021758,0.427509091085945
22699.9999999502,89.668493184613,1.00000000024036,0.420468749905546
22799.9999999487,89.5913704719826,1.00000000026358,0.415114187521227
22899.9999999473,89.5484092989227,1.00000000028701,0.413612316556194
22999.9999999458,89.5307664792505,1.00000000032458,0.418695746762523
23099.9999999443,89.5307151774734,1.0000000003613,0.426253592665904
23199.9999999429,89.5418258984262,1.00000000036198,0.433037180109214
23299.9999999414,89.5595817094348,1.0000000003505,0.439018424954603
23399.99999994,89.5808948037907,1.00000000034176,0.448495091597331
23499.9999999385,89.6032610871161,1.00000000035525,0.463095072518427
23599.9999999371,89.624054805617,1.00000000036444,0.476308026036393
23699.9999999356,89.6415515107305,1.00000000036836,0.484729646485994
23799.9999999342,89.6538370787261,1.00000000035674,0.493526636755853
23899.9999999327,89.6600302454751,1.00000000038003,0.505606360844395
23999.9999999312,89.6604589785802,1.00000000036204,0.517130548307325
24099.9999999298,89.6573760972512,1.00000000036614,0.524049962262261
24199.9999999283,89.6540309308579,1.00000000034519,0.525177607357344
24299.9999999269,89.6519361538924,1.00000000032244,0.525299223711212
24399.9999999254,89.6503653778971,1.00000000033964,0.525990318188919
24499.999999924,89.6456782164574,1.00000000034579,0.52887016733398
24599.9999999225,89.6334945444717,1.00000000036021,0.532738712827297
24699.9999999211,89.6094632975906,1.000000000372,0.533154289264556
24799.9999999196,89.5699619202527,1.00000000037072,0.531694121221146
24899.9999999181,89.5137545816636,1.00000000038192,0.530100851266904
24999.9999999167,89.4408811896065,1.00000000037174,0.52680345001351
25099.9999999152,89.3506075263305,1.00000000037477,0.523118854892684
25199.9999999138,89.2424411354247,1.00000000038986,0.52038333874778
25299.9999999123,89.1168791080591,1.00000000039416,0.52357589630794
25399.9999999109,88.976536750348,1.00000000038114,0.532559483152613
25499.9999999094,88.8261273773431,1.00000000036625,0.536845671632533
25599.999999908,88.6707327965955,1.00000000035262,0.536029146629292
25699.9999999065,88.5143490876114,1.00000000034404,0.53391093765776
25799.9999999051,88.359547445195,1.00000000032975,0.532775454363521
25899.9999999036,88.2076687455331,1.00000000031653,0.531954086757358
25999.9999999021,88.0597251885575,1.00000000030127,0.531408031431236
26099.9999999007,87.916055204093,1.00000000029232,0.532511009259292
26199.9999998992,87.7756704650451,1.00000000031329,0.534358970330951
26299.9999998978,87.6363296330516,1.00000000032436,0.534244019037966
26399.9999998963,87.4956339290556,1.00000000032931,0.532973603417111
26499.9999998949,87.3518979772933,1.00000000034298,0.53202223547571
26599.9999998934,87.2033541621917,1.00000000035649,0.530839675843095
26699.999999892,87.0477924265959,1.00000000038243,0.529555475030163
26799.9999998905,86.8826760875272,1.00000000039362,0.527136224807381
26899.999999889,86.7060561032423,1.00000000041653,0.525250869127865
26999.9999998876,86.5170420078442,1.00000000047108,0.526511553036199
27099.9999998861,86.3150536994158,1.00000000047757,0.530743243845492
27199.9999998847,86.1003923309783,1.0000000004599,0.534903389688483
27299.9999998832,85.8754587036983,1.00000000044549,0.539769248062138
27399.9999998818,85.6446540476893,1.00000000040673,0.542865425018566
27499.9999998803,85.4132771898514,1.00000000039731,0.541782085739022
27599.9999998789,85.1868734924496,1.00000000035855,0.535147815571636
27699.9999998774,84.9713214748853,1.00000000032102,0.521791777467171
27799.9999998759,84.7727173410516,1.0000000002801,0.506174863064028
27899.9999998745,84.5972464589906,1.00000000025103,0.490326155971876
27999.999999873,84.4504353825954,1.00000000023807,0.475141275297389
28099.9999998716,84.3371362354889,1.00000000022839,0.463267408563268
28199.9999998701,84.2603853192891,1.00000000023609,0.452206332802787
28299.9999998687,84.2216565593316,1.00000000023915,0.441339411013206
28399.9999998672,84.2201823893846,1.00000000025684,0.433559574625226
28499.9999998658,84.2525442854156,1.00000000027503,0.431944009497505
28599.9999998643,84.3140709720473,1.00000000029613,0.435025071967518
28699.9999998629,84.3987759370821,1.00000000033229,0.440275967931392
28799.9999998614,84.5006061938058,1.00000000032587,0.444330117054532
28899.9999998599,84.6153160378764,1.00000000033743,0.446793834302993
28999.9999998585,84.739906916521,1.00000000033945,0.447575722210187
