Time,AGPnorm,Energy,Entropy
0,0,1,5.36573939388997e-18
99.9999999999986,0.00189942104962878,1.00000000000473,0.00695126653983524
199.999999999993,0.00556556202661725,0.999999999999214,0.019971256922994
300,0.0116556012722744,1.0000000000052,0.0392170926812673
400.000000000022,0.019245857580162,0.99999999999943,0.0623737521943008
500.000000000045,0.0280723192119077,1.00000000000502,0.0903557288050482
600.000000000068,0.0382334947165902,1.000000000001,0.12352522752698
700.000000000091,0.0478933313426175,1.00000000000741,0.163041253770076
800.000000000113,0.0611184991414689,1.00000000001867,0.21168389894369
900.000000000136,0.0751383141449562,1.00000000006723,0.268876586306788
1000.00000000016,0.131890051098077,1.00000000016077,0.331865808481845
1100.0000000001,0.29213483477358,1.00000000031121,0.39044327452026
1200,0.731925961477521,1.00000000042686,0.440583820651775
1299.99999999991,1.65378681265423,1.00000000057153,0.478001204439669
1399.99999999982,3.23081981770315,1.00000000063279,0.505444460474363
1499.99999999973,5.64624343127802,1.00000000068007,0.523399776937966
1599.99999999964,8.86382357904249,1.00000000071732,0.53435970951319
1699.99999999955,12.9304498729489,1.00000000073662,0.539686498722125
1799.99999999946,17.6302551251123,1.00000000071763,0.542072946616402
1899.99999999937,22.8924387652988,1.00000000076808,0.540251249668787
1999.99999999928,28.4554389612644,1.00000000072561,0.537164260271324
2099.99999999919,34.1872499914293,1.00000000072754,0.532082400722392
2199.99999999909,39.879574865774,1.00000000070059,0.526386909235554
2299.999999999,45.3870300964503,1.00000000066328,0.518418953582013
2399.99999999891,50.594749866132,1.00000000068148,0.515980077644847
2499.99999999882,55.3790541472549,1.00000000057543,0.503479723695134
2599.99999999873,59.6932497253181,1.00000000062505,0.496925555488402
2699.99999999864,63.4761142968104,1.0000000005865,0.503103250988103
2799.99999999855,66.7292580112308,1.00000000053926,0.489854174067207
2899.99999999846,69.3871536073334,1.00000000054043,0.465333203865439
2999.99999999837,71.4835484475562,1.00000000051664,0.478010970493956
3099.99999999828,73.115326845716,1.00000000048521,0.50620237996938
3199.99999999819,74.3239029548601,1.0000000004481,0.482283497607732
3299.99999999809,75.0181145843107,1.00000000037363,0.425312378594559
3399.999999998,75.1836417936656,1.00000000035499,0.435122188232677
3499.99999999791,75.0534587090398,1.0000000005075,0.505415450734786
3599.99999999782,74.8267644259589,1.00000000056254,0.534027289566718
3699.99999999773,74.4723186902477,1.00000000044257,0.474575969939081
3799.99999999764,73.7861729482945,1.00000000024471,0.368636045951757
3899.99999999755,72.7322003467832,1.00000000022655,0.364331148556717
3999.99999999746,71.5220243671829,1.00000000047971,0.464783928647251
4099.99999999738,70.3699846196016,1.00000000067155,0.536417734045335
4199.99999999775,69.3694895967757,1.00000000069161,0.551539082481237
4299.99999999811,68.4463606508307,1.00000000054324,0.496705075783409
4399.99999999848,67.4248628008491,1.00000000030143,0.371445794140811
4499.99999999884,66.209447807033,1.00000000014744,0.271106060960526
4599.9999999992,64.8848186449737,1.00000000023507,0.323688772936735
4699.99999999957,63.5619265526703,1.00000000046231,0.441186920074406
4799.99999999993,62.2942701697915,1.0000000006362,0.502132970060657
4900.00000000029,61.1290598920382,1.00000000072507,0.523286888914557
5000.00000000066,60.092741782828,1.0000000006309,0.54199724667014
5100.00000000102,59.1548168305672,1.00000000058063,0.527370775334883
5200.00000000139,58.2275416981484,1.00000000040823,0.447009534812678
5300.00000000175,57.2447027511702,1.00000000024764,0.32655258496263
5400.00000000211,56.2321582277122,1.00000000016475,0.245189967981961
5500.00000000248,55.2692520045674,1.0000000001873,0.266536365139284
5600.00000000284,54.3875454571329,1.00000000035332,0.358869816274583
5700.00000000321,53.5362862189284,1.00000000049506,0.46567422376323
5800.00000000357,52.6766343902882,1.0000000005579,0.518806406264878
5900.00000000393,51.816429859689,1.00000000049798,0.495239568846435
6000.0000000043,50.970328033754,1.00000000048953,0.454024189678044
6100.00000000466,50.1422974829893,1.00000000061377,0.47454275176174
6200.00000000502,49.3451800076727,1.00000000071451,0.533011100699461
6300.00000000539,48.5953553264014,1.00000000067862,0.557700474024129
6400.00000000575,47.885983154279,1.00000000058178,0.530255859787766
6500.00000000612,47.187215906377,1.00000000038087,0.454202542918977
6600.00000000648,46.495462027761,1.00000000021156,0.347158439665464
6700.00000000684,45.8717030299396,1.0000000001215,0.255961917102018
6800.00000000721,45.3954833971538,1.00000000015815,0.231670656322658
6900.00000000757,45.09476530843,1.00000000024749,0.274803023638197
7000.00000000793,44.9373069749806,1.00000000033605,0.350648975295768
7100.0000000083,44.8280546236992,1.00000000047976,0.429774439344845
7200.00000000866,44.6590425427311,1.00000000059031,0.482352629411863
7300.00000000903,44.3726824908851,1.00000000064007,0.508554904665469
7400.00000000939,43.9796495513977,1.00000000061493,0.532224365202216
7500.00000000975,43.5286455795357,1.00000000052927,0.536790563189324
7600.00000001012,43.0717762121193,1.00000000038722,0.493468566417786
7700.00000001048,42.6465206015359,1.00000000029404,0.435983637131655
7800.00000001084,42.2544131730149,1.00000000034699,0.425796324648926
7900.00000001121,41.859930021428,1.00000000044675,0.455332597918035
8000.00000001157,41.4322703741018,1.0000000005361,0.485900997840869
8100.00000001194,40.9695570756329,1.00000000060858,0.496780636607896
8200.0000000123,40.4860659544293,1.00000000065754,0.51132823776897
8300.00000001266,40.0025556542908,1.0000000007242,0.54183182735108
8400.00000001303,39.5369084887698,1.00000000062071,0.559655774162548
8500.00000001339,39.0909042497468,1.00000000058801,0.547445909758117
8600.00000001376,38.6520012363552,1.00000000045627,0.503534155005729
8700.00000001412,38.2178710242829,1.00000000027562,0.431219254655608
8800.00000001448,37.8227319601862,1.00000000016569,0.350530296114071
8900.00000001485,37.5363509982765,1.00000000011694,0.28162162636463
9000.00000001521,37.432497132087,1.00000000012901,0.239044812477923
9100.00000001557,37.5597904003674,1.00000000016559,0.236575954055648
9200.00000001594,37.9244924607023,1.00000000021035,0.269345689846781
9300.0000000163,38.4729746666266,1.0000000003259,0.323705408317159
9400.00000001667,39.0968288630381,1.00000000042525,0.386838057235633
9500.00000001703,39.6934811157793,1.00000000050562,0.442996314039819
9600.00000001739,40.1887653010983,1.0000000005605,0.485708341990148
9700.00000001776,40.5438438432917,1.00000000058374,0.516673587763883
9800.00000001812,40.7543379247561,1.00000000058993,0.538884329604802
9900.00000001848,40.8447233267645,1.0000000005058,0.546674381358521
10000.0000000188,40.8565728586187,1.0000000004513,0.526751909116059
10100.0000000192,40.8239215481144,1.00000000040721,0.488942831021809
10200.0000000196,40.7531767480302,1.00000000045531,0.471983523822866
10300.0000000199,40.6263082098333,1.0000000005426,0.487911868858857
10400.0000000203,40.4382253529888,1.00000000055975,0.517093049530167
10500.0000000207,40.2119242104538,1.0000000005282,0.529155740460302
10600.000000021,39.9774922554615,1.00000000039235,0.51000822508448
10700.0000000214,39.7553271146742,1.00000000039164,0.481488155692676
10800.0000000218,39.5526009790069,1.00000000040478,0.460473137784767
10900.0000000221,39.3708577261921,1.00000000040058,0.454382521505458
11000.0000000225,39.2072568844785,1.00000000040996,0.459967404564008
11100.0000000229,39.0540064010083,1.00000000040829,0.471012032654678
11200.0000000232,38.8976724732618,1.00000000046595,0.491601453645187
11300.0000000236,38.7253808456798,1.0000000004857,0.515480731391174
11400.0000000239,38.5328156074178,1.00000000043947,0.529635307436686
11500.0000000243,38.3282629328863,1.00000000041214,0.523420359078707
11600.0000000247,38.1232230992204,1.00000000033096,0.51335290762742
11700.000000025,37.9170422523644,1.00000000037255,0.513719786481507
11800.0000000254,37.6989567853814,1.00000000041643,0.518807886349208
11900.0000000258,37.4600862655973,1.00000000046554,0.521887605516441
12000.0000000261,37.1997381031889,1.00000000050419,0.52106140050792
12100.0000000265,36.9211650187085,1.00000000055232,0.524485252249623
12200.0000000269,36.6304937692767,1.00000000057401,0.533049345712217
12300.0000000272,36.3390128317102,1.00000000070245,0.539509677129483
12400.0000000276,36.0605620397025,1.00000000073506,0.549241995111946
12500.0000000279,35.8075041488436,1.00000000065664,0.559502750615842
12600.0000000283,35.5846597547628,1.00000000067219,0.565379002813266
12700.0000000287,35.3826094367764,1.0000000006016,0.561900467864562
12800.000000029,35.1825375735356,1.00000000048802,0.54388074006605
12900.0000000294,34.9644330822759,1.00000000040616,0.512466212990781
13000.0000000298,34.7204589784865,1.00000000031406,0.466412471445216
13100.0000000301,34.4627745760043,1.00000000022971,0.410942130317574
13200.0000000305,34.2270409752013,1.00000000016198,0.355361743717656
13300.0000000309,34.0663771625924,1.00000000013657,0.310411319650844
13400.0000000312,34.040089029563,1.00000000011792,0.273889774125892
13500.0000000316,34.2063139700115,1.00000000010155,0.247211984325135
13600.0000000319,34.612145997975,1.00000000011543,0.236949426125318
13700.0000000323,35.2721982987709,1.00000000017926,0.248736921272431
13800.0000000327,36.176094290656,1.00000000021905,0.276788866489195
13900.000000033,37.2887227374945,1.00000000028961,0.312713683505916
14000.0000000334,38.5403732134837,1.00000000037847,0.352715114953416
14100.0000000338,39.8437519373433,1.00000000046887,0.392190063723958
14200.0000000341,41.1217535201644,1.00000000052237,0.429915274289783
14300.0000000345,42.3215204396669,1.00000000051892,0.460458918375896
14400.0000000349,43.4018946675651,1.00000000057555,0.488168373832288
14500.0000000352,44.3408885280592,1.00000000052957,0.513946925552688
14600.0000000356,45.1329197769697,1.00000000056273,0.534136507256576
14700.0000000359,45.7895769889663,1.00000000053293,0.542419369064387
14800.0000000363,46.3321437663521,1.00000000049292,0.537296424317515
14900.0000000367,46.7807906836972,1.00000000048073,0.531114321230883
15000.000000037,47.1456285537411,1.00000000045356,0.536874313070403
15100.0000000374,47.4275270979534,1.00000000052268,0.550040892066223
15200.0000000378,47.6319939071665,1.00000000052219,0.559914031938958
15300.0000000381,47.768221268227,1.00000000049874,0.559200177630376
15400.0000000385,47.8469857424144,1.00000000045439,0.541424383278176
15500.0000000389,47.8833313219897,1.00000000045425,0.520751880382003
15600.0000000392,47.8921720972675,1.00000000039669,0.508671361197639
15700.0000000396,47.8776079721621,1.000000000441,0.511253429790343
15800.0000000399,47.8301484817377,1.00000000047732,0.525358842863992
15900.0000000403,47.7479427640283,1.00000000046847,0.53159818465506
16000.0000000407,47.6419319046824,1.00000000041192,0.534965778926557
16100.000000041,47.5223507740886,1.00000000045069,0.536968841619933
16200.0000000414,47.3892582326877,1.00000000047877,0.536949984115049
16300.0000000418,47.2403335861406,1.00000000048007,0.536996545987814
16400.0000000418,47.0791159554385,1.00000000046736,0.532074027403463
16500.0000000404,46.9133547401201,1.00000000044504,0.525652817326255
16600.0000000389,46.7514520390372,1.00000000036699,0.511998726667248
16700.0000000375,46.5975581361441,1.00000000038373,0.505757769852764
16800.000000036,46.449383341486,1.00000000039231,0.508532672007577
16900.0000000346,46.2971943540849,1.00000000043976,0.511107485759949
17000.0000000331,46.1339562953386,1.0000000004919,0.512867870529921
17100.0000000317,45.957587490101,1.00000000051461,0.517685103560296
17200.0000000302,45.7664673900039,1.00000000054783,0.527090300746941
17300.0000000287,45.5592371392856,1.00000000056833,0.540272540334737
17400.0000000273,45.3390464389148,1.00000000054309,0.548569896729774
17500.0000000258,45.1117099822448,1.0000000004968,0.550492411750457
17600.0000000244,44.8838094279424,1.00000000042864,0.550998537635495
17700.0000000229,44.6623140509972,1.00000000038735,0.541559777900592
17800.0000000215,44.4580777190414,1.00000000031836,0.516783238327586
17900.00000002,44.2819829358144,1.00000000028503,0.49738130272189
18000.0000000186,44.1367034441555,1.00000000033182,0.476649997820892
18100.0000000171,44.0164778773335,1.00000000036521,0.464131583763372
18200.0000000156,43.9163848840141,1.00000000042437,0.462460729955599
18300.0000000142,43.8332998081999,1.00000000036471,0.470277136477511
18400.0000000127,43.7662506232764,1.00000000037218,0.475729435593468
18500.0000000113,43.7109280727718,1.00000000039205,0.482288848813521
18600.0000000098,43.6603043415618,1.00000000043685,0.49620538203836
18700.0000000084,43.6082842728813,1.00000000043047,0.508554474757182
18800.0000000069,43.551291229981,1.00000000046333,0.515826251216292
18900.0000000055,43.485538645196,1.00000000048062,0.519519333741112
19000.000000004,43.4096971428922,1.00000000048196,0.518114911991668
19100.0000000026,43.3268072282704,1.00000000042562,0.517925128230633
19200.0000000011,43.2383436971126,1.00000000044679,0.521967277050402
19299.9999999996,43.1436650275091,1.00000000045573,0.530866674457188
19399.9999999982,43.0409516992944,1.00000000042275,0.544828297155194
19499.9999999967,42.9312442917587,1.00000000048375,0.559531670179791
19599.9999999953,42.8170888453603,1.00000000041446,0.564239034610809
19699.9999999938,42.6998621903924,1.0000000004369,0.565195956174537
19799.9999999924,42.5774789447647,1.00000000049909,0.56456130357415
19899.9999999909,42.4454097874785,1.00000000046556,0.573775430383152
19999.9999999895,42.301353640118,1.00000000054617,0.581556880822374
20099.999999988,42.1471791135324,1.00000000047036,0.575689501893073
20199.9999999865,41.9913961499369,1.00000000041171,0.573184649600684
20299.9999999851,41.841634581211,1.00000000034736,0.56847912195856
20399.9999999836,41.6988461170142,1.00000000041521,0.561275036936234
20499.9999999822,41.5564270340842,1.00000000046466,0.558420846764845
20599.9999999807,41.4081836919404,1.00000000051821,0.552351931388484
20699.9999999793,41.2556805738676,1.00000000044529,0.536048137361835
20799.9999999778,41.1039109447214,1.00000000042046,0.527193528268955
20899.9999999764,40.9571124665286,1.00000000036761,0.529066409751241
20999.9999999749,40.814174440617,1.0000000004309,0.530887404517335
21099.9999999734,40.6729954259878,1.00000000040704,0.53575596742153
21199.999999972,40.5328061421994,1.00000000041958,0.541233221979101
21299.9999999705,40.3945046527676,1.00000000041102,0.548879109133506
21399.9999999691,40.2573448365345,1.00000000043354,0.55182057414017
21499.9999999676,40.1178899053074,1.00000000045441,0.549198512422484
21599.9999999662,39.9726688088906,1.00000000047845,0.553336767223483
21699.9999999647,39.8205293284242,1.00000000047544,0.555632632774693
21799.9999999633,39.6633300198434,1.00000000048805,0.5504691864356
21899.9999999618,39.5025086357414,1.00000000047077,0.548370131325297
21999.9999999603,39.3381525401309,1.00000000046868,0.552910250890634
22099.9999999589,39.1711556057464,1.00000000049342,0.565652390937958
22199.9999999574,39.003745091938,1.00000000043773,0.571520490984081
22299.999999956,38.8378538454644,1.00000000038056,0.566465494772403
22399.9999999545,38.6737304332018,1.0000000003858,0.560720053352867
22499.9999999531,38.5113412643015,1.0000000004122,0.566652300958632
22599.9999999516,38.348570793524,1.00000000046901,0.575269964339346
22699.9999999502,38.1839578959879,1.0000000004504,0.573092245363516
22799.9999999487,38.019173963386,1.00000000040787,0.576378804829594
22899.9999999473,37.8555309916582,1.00000000039666,0.570275299324279
22999.9999999458,37.6932249550911,1.00000000035986,0.56089778727099
23099.9999999443,37.5324761565299,1.00000000037089,0.558413204767317
23199.9999999429,37.3729059797638,1.00000000038201,0.564145363366494
23299.9999999414,37.2141739969179,1.00000000038135,0.567894194482758
23399.99999994,37.0564948553663,1.00000000037825,0.566618951375836
23499.9999999385,36.9003313254381,1.00000000041003,0.565387145636049
23599.9999999371,36.7460257680981,1.00000000040607,0.569341845642712
23699.9999999356,36.5951140324375,1.00000000045651,0.578193569490083
23799.9999999342,36.4493218525859,1.00000000047053,0.571606721278755
23899.9999999327,36.3111237449701,1.00000000048308,0.564142838329705
23999.9999999312,36.1847253000783,1.00000000050652,0.577348521721901
24099.9999999298,36.0740285034624,1.0000000005693,0.586602778561785
24199.9999999283,35.985971843805,1.00000000055998,0.583082005184546
24299.9999999269,35.9242789085255,1.00000000057057,0.579840307678536
24399.9999999254,35.8960994873062,1.00000000059289,0.588343984624419
24499.999999924,35.9080911319026,1.00000000062162,0.595371199856842
24599.9999999225,35.9663761318875,1.00000000062758,0.602042515296365
24699.9999999211,36.0824603045256,1.00000000065205,0.60458714601892
24799.9999999196,36.2502635001424,1.00000000065253,0.604829170210287
24899.9999999181,36.4842176833851,1.0000000006785,0.602415807232493
24999.9999999167,36.7675176025945,1.0000000006848,0.599402873773893
25099.9999999152,37.1243888243421,1.00000000070431,0.594566386452566
25199.9999999138,37.5214795458249,1.00000000067513,0.587468483252215
25299.9999999123,37.9759791737939,1.00000000066023,0.580357220632011
25399.9999999109,38.4362176573632,1.00000000059174,0.574074706774181
25499.9999999094,38.9092830800818,1.00000000057638,0.567366100220976
25599.999999908,39.3434026796041,1.00000000053044,0.556447691827959
25699.9999999065,39.7377993507866,1.00000000044758,0.541251424441525
25799.9999999051,40.0554397573271,1.00000000039398,0.52072215178577
25899.9999999036,40.2951598457568,1.00000000035539,0.498834440799513
25999.9999999021,40.4439275210612,1.00000000030297,0.473018737507302
26099.9999999007,40.5059448327525,1.00000000024493,0.44512833802864
26199.9999998992,40.4870713673071,1.00000000022941,0.416107310134766
26299.9999998978,40.4058477793628,1.00000000019521,0.389155075115915
26399.9999998963,40.2803691165443,1.00000000017143,0.362408245987063
26499.9999998949,40.1443851735956,1.00000000014003,0.335728374765
26599.9999998934,40.0205435554289,1.00000000012778,0.311986389804995
26699.999999892,39.9518559701152,1.00000000010833,0.291529183046579
26799.9999998905,39.9666612098777,1.00000000010684,0.273870757523446
26899.999999889,40.1045126974791,1.00000000008165,0.258533026548682
26999.9999998876,40.4013269704862,1.00000000009535,0.245869637264118
27099.9999998861,40.8794767805851,1.00000000009236,0.24065420014419
27199.9999998847,41.578672739651,1.0000000001068,0.240239173167615
27299.9999998832,42.5032492701484,1.00000000013213,0.245072498690214
27399.9999998818,43.6736029001848,1.00000000015165,0.250950993562901
27499.9999998803,45.0886941843169,1.00000000017644,0.263401156333807
27599.9999998789,46.7316890277516,1.00000000019799,0.278527002510842
27699.9999998774,48.6005725154438,1.00000000024576,0.29897872388337
27799.9999998759,50.6333996635717,1.0000000002896,0.318601647054133
27899.9999998745,52.8465069411102,1.00000000032559,0.338169139729507
27999.999999873,55.1357401036028,1.0000000003906,0.356279078306903
28099.9999998716,57.521707482513,1.00000000041256,0.372317382550991
28199.9999998701,59.9060771366331,1.00000000046835,0.389167974258263
28299.9999998687,62.3018081539232,1.0000000004538,0.407600763685645
28399.9999998672,64.6331700600708,1.00000000055717,0.424660828829872
28499.9999998658,66.90204066289,1.00000000051189,0.439303898688128
28599.9999998643,69.082863428796,1.0000000005847,0.456395048931274
28699.9999998629,71.1582883279726,1.00000000060073,0.465313301587331
28799.9999998614,73.1270610594156,1.00000000059494,0.475873237556174
28899.9999998599,74.9632068055666,1.00000000062477,0.489217381751668
28999.9999998585,76.6831595795598,1.00000000059395,0.503392524126145
29099.999999857,78.2719527252133,1.00000000058021,0.518296691944306
