Time,AGPnorm,Energy,Entropy
0,0,1,-1.19327637267105e-17
99.9999999999986,4.41905203106489e-05,1.00000000000053,0.00174042384068654
199.999999999993,0.00413299779009729,0.999999999997497,0.0028873036157937
300,0.0101241613793392,1.00000000000172,0.00504152060854832
400.000000000022,0.0143104483781629,0.999999999998337,0.00844767608810304
500.000000000045,0.0174486167911221,0.999999999999151,0.011608518329712
600.000000000068,0.0242813388538609,1.00000000000124,0.0158341969639771
700.000000000091,0.0303239716185834,0.999999999997244,0.0203733931064192
800.000000000113,0.0386418775875959,1.00000000000148,0.0251617719116698
900.000000000136,0.0480930055104687,0.999999999999044,0.0306231604980434
1000.00000000016,0.0555980420775435,0.999999999998224,0.0363406017738544
1100.0000000001,0.0656982941295242,1.0000000000018,0.042369674995811
1200,0.0776067157890278,0.999999999997413,0.0489747093053012
1299.99999999991,0.0887792634521693,1.00000000000081,0.0559510882693747
1399.99999999982,0.100185596860949,0.999999999999817,0.0632052501958891
1499.99999999973,0.111500848738561,0.99999999999755,0.0710864774084981
1599.99999999964,0.124282028361646,1.00000000000212,0.0792545380465458
1699.99999999955,0.138861226894023,0.999999999997851,0.0880973967022905
1799.99999999946,0.151489103570427,0.999999999999824,0.0976223107393083
1899.99999999937,0.163951553577468,1.00000000000058,0.107383082242904
1999.99999999928,0.177787601606249,0.999999999997352,0.118247593235475
2099.99999999919,0.191838377467062,1.00000000000211,0.12994035021967
2199.99999999909,0.206259270170088,0.999999999998779,0.142729755537057
2299.999999999,0.218943010571896,1.00000000000038,0.157147897399222
2399.99999999891,0.232056168712054,1.00000000000667,0.17290767981266
2499.99999999882,0.245724523852895,1.00000000001461,0.191139118791249
2599.99999999873,0.260677514588171,1.00000000004479,0.211174872689114
2699.99999999864,0.274337867372404,1.00000000008176,0.232064808148095
2799.99999999855,0.286224517465577,1.00000000014204,0.253664511210212
2899.99999999846,0.312191277974172,1.00000000022435,0.27485017639693
2999.99999999837,0.337774444217168,1.00000000030356,0.296015151199738
3099.99999999828,0.386479007046498,1.00000000039111,0.316778705076653
3199.99999999819,0.467986631984341,1.0000000004883,0.336150850068325
3299.99999999809,0.579933666820088,1.00000000058428,0.355527547940124
3399.999999998,0.765179057853155,1.00000000070125,0.373764117960403
3499.99999999791,1.02421306201633,1.00000000080642,0.391013021272814
3599.99999999782,1.3760220530621,1.00000000084924,0.408176472323135
3699.99999999773,1.85870439943351,1.00000000094516,0.423229493889472
3799.99999999764,2.4752443692815,1.00000000102964,0.438297686849513
3899.99999999755,3.24335595545068,1.00000000106573,0.452483752667124
3999.99999999746,4.20440089807929,1.0000000011499,0.464907668178757
4099.99999999738,5.34455302440942,1.00000000118433,0.477547926924972
4199.99999999775,6.68463306975407,1.00000000120568,0.488569611818981
4299.99999999811,8.25927834598712,1.00000000126094,0.498926161084562
4399.99999999848,10.0226410452159,1.00000000133742,0.509125595448975
4499.99999999884,12.0306497849283,1.00000000137287,0.517359494027364
4599.9999999992,14.2657224171152,1.00000000136435,0.52610374893066
4699.99999999957,16.6881473165891,1.00000000132776,0.534093607163969
4799.99999999993,19.3704185476162,1.00000000146379,0.540051232349681
4900.00000000029,22.2264094379896,1.0000000014094,0.547466942477658
5000.00000000066,25.2832650803457,1.00000000143582,0.552813357866598
5100.00000000102,28.5572854925287,1.00000000143858,0.558280827088559
5200.00000000139,31.950822551316,1.00000000139109,0.563872010686714
5300.00000000175,35.5489075039947,1.00000000144174,0.56735714974954
5400.00000000211,39.2735501766093,1.00000000140865,0.572126826222106
5500.00000000248,43.1018612971919,1.00000000138605,0.575978493746152
5600.00000000284,47.0889577579988,1.00000000143342,0.578603940887757
5700.00000000321,51.1156281029985,1.00000000135614,0.582649030556389
5800.00000000357,55.2481015208749,1.00000000136049,0.584581365271457
5900.00000000393,59.445963435156,1.00000000137802,0.587071307551297
6000.0000000043,63.6465128446386,1.00000000137701,0.589609929827288
6100.00000000466,67.9235503118416,1.00000000135322,0.590618982062629
6200.00000000502,72.1710461366437,1.00000000134032,0.592992902874459
6300.00000000539,76.4226756055419,1.0000000013015,0.594155217855577
6400.00000000575,80.6776850496174,1.00000000128111,0.594876933851859
6500.00000000612,84.8563983562535,1.00000000129013,0.596361453209813
6600.00000000648,89.0304664836431,1.00000000127196,0.596633020582919
6700.00000000684,93.1233603213161,1.00000000124846,0.597920869963552
6800.00000000721,97.1412788533223,1.00000000126122,0.598307899119434
6900.00000000757,101.108426341215,1.00000000123695,0.59810029609069
7000.00000000793,104.948703067509,1.0000000011833,0.599402968805492
7100.0000000083,108.718969925166,1.00000000119014,0.59906557354903
7200.00000000866,112.375046821528,1.00000000113598,0.599154664354721
7300.00000000903,115.905585122104,1.0000000011466,0.599493661815062
7400.00000000939,119.344916114587,1.00000000110356,0.598963229854261
7500.00000000975,122.630977469265,1.00000000116262,0.598820496938889
7600.00000001012,125.806216440678,1.00000000106255,0.598894377979805
7700.00000001048,128.8493465176,1.000000001078,0.598069820952606
7800.00000001084,131.741500520749,1.00000000105366,0.59907375001678
7900.00000001121,134.51905176085,1.0000000010348,0.596603819511922
8000.00000001157,137.136650809285,1.00000000103171,0.598749594954819
8100.00000001194,139.623018759647,1.00000000101131,0.596178856011775
8200.0000000123,141.974105534159,1.00000000101698,0.59730185952489
8300.00000001266,144.167268361595,1.00000000096273,0.595794687315539
8400.00000001303,146.239500172262,1.00000000097557,0.596186331273944
8500.00000001339,148.155235734496,1.00000000093092,0.594842809548152
8600.00000001376,149.937939688156,1.00000000092411,0.595618169204348
8700.00000001412,151.588039254383,1.00000000092106,0.593074476114089
8800.00000001448,153.089063676624,1.00000000093006,0.594910944893228
8900.00000001485,154.469962113925,1.00000000088011,0.59240263936563
9000.00000001521,155.709269501753,1.00000000085451,0.593624316688876
9100.00000001557,156.821667023175,1.00000000083387,0.59247153784697
9200.00000001594,157.814235396545,1.00000000084792,0.592177978684596
9300.0000000163,158.672972188263,1.00000000083079,0.591189452765888
9400.00000001667,159.422402927723,1.00000000084231,0.592667137529699
9500.00000001703,160.051931245682,1.00000000081141,0.589891113923571
9600.00000001739,160.566269350178,1.00000000081101,0.590670389169948
9700.00000001776,160.982073361858,1.00000000081788,0.5925318590186
9800.00000001812,161.285378116208,1.0000000007681,0.587548427094386
9900.00000001848,161.494851270481,1.00000000082749,0.591768457129709
10000.0000000188,161.612155680083,1.00000000084186,0.591991135700711
10100.0000000192,161.638132395996,1.00000000075949,0.585270054245679
10200.0000000196,161.580481311322,1.00000000079939,0.590301870864124
10300.0000000199,161.443726749607,1.00000000081753,0.590988251045653
10400.0000000203,161.236915697073,1.00000000072757,0.579965981313935
10500.0000000207,160.951042438016,1.00000000080395,0.587484657549427
10600.000000021,160.608159643229,1.00000000080958,0.589885624643392
10700.0000000214,160.210670693487,1.00000000071774,0.576100286955186
10800.0000000218,159.743658884739,1.000000000762,0.581305957306976
10900.0000000221,159.237802163306,1.00000000085033,0.588074598346643
11000.0000000225,158.690275157733,1.00000000075367,0.576645548761453
11100.0000000229,158.090014986707,1.00000000073117,0.570315226413873
11200.0000000232,157.454685118593,1.00000000081544,0.584777292669963
11300.0000000236,156.789553437536,1.00000000079126,0.580525211021733
11400.0000000239,156.093834419442,1.00000000073198,0.568166394749166
11500.0000000243,155.357154721756,1.00000000078392,0.571458275378905
11600.0000000247,154.598944509775,1.00000000085706,0.581455210996398
11700.000000025,153.829634483718,1.00000000080047,0.575426763906436
11800.0000000254,153.03020775175,1.00000000070736,0.557402742049679
11900.0000000258,152.206419415536,1.00000000078489,0.571563175936101
12000.0000000261,151.375175632933,1.00000000088704,0.578390288793944
12100.0000000265,150.536187906972,1.0000000008022,0.570320064243496
12200.0000000269,149.680750995373,1.00000000069549,0.55105578772319
12300.0000000272,148.802589074242,1.00000000080813,0.567260560554893
12400.0000000276,147.926271239006,1.0000000008641,0.576150108168181
12500.0000000279,147.050192352369,1.00000000083293,0.563752481189608
12600.0000000283,146.162747534806,1.00000000070237,0.551984002438159
12700.0000000287,145.263445490011,1.00000000076672,0.553759185064516
12800.000000029,144.363374877421,1.00000000094975,0.577151359981447
12900.0000000294,143.469189078052,1.00000000082196,0.556867234857843
13000.0000000298,142.574862822862,1.00000000079558,0.553908492577713
13100.0000000301,141.671118874933,1.00000000075885,0.548407454836409
13200.0000000305,140.767775796718,1.00000000088944,0.561947570380078
13300.0000000309,139.869578751431,1.00000000089379,0.565201267931412
13400.0000000312,138.977307881857,1.00000000083192,0.547334638187925
13500.0000000316,138.086812060922,1.00000000079646,0.548516532397001
13600.0000000319,137.193533242221,1.00000000083672,0.55311152431891
13700.0000000323,136.305913837567,1.00000000089064,0.557398377846887
13800.0000000327,135.424090650856,1.00000000085844,0.558089452251094
13900.000000033,134.548668222829,1.00000000087609,0.540507695524848
14000.0000000334,133.678362539568,1.00000000079157,0.543439931423617
14100.0000000338,132.809775582134,1.00000000079946,0.55580858596369
14200.0000000341,131.948388115105,1.00000000085142,0.555278376136438
14300.0000000345,131.093247888312,1.00000000088441,0.549957148913395
14400.0000000349,130.24447290496,1.0000000008453,0.543295943346141
14500.0000000352,129.402905532505,1.00000000082129,0.535599569721823
14600.0000000356,128.566233599893,1.00000000078167,0.546307339789911
14700.0000000359,127.736961366312,1.00000000087501,0.559377400420505
14800.0000000363,126.914972834921,1.00000000081893,0.550225246248289
14900.0000000367,126.100075160288,1.00000000082194,0.541872980526852
15000.000000037,125.292315470134,1.00000000080671,0.538206153590384
15100.0000000374,124.490653715508,1.00000000082766,0.535213522547442
15200.0000000378,123.697278963554,1.00000000082583,0.54437468092249
15300.0000000381,122.911284376872,1.00000000084946,0.559068142474926
15400.0000000385,122.133350655344,1.00000000084311,0.552988333918542
15500.0000000389,121.363601526533,1.00000000080481,0.537699280221809
15600.0000000392,120.600333882072,1.00000000078751,0.535333340425812
15700.0000000396,119.844746469246,1.0000000008291,0.539179826226624
15800.0000000399,119.097034134961,1.00000000079599,0.536947352563909
15900.0000000403,118.357425828928,1.00000000085154,0.550462837923328
16000.0000000407,117.626668863539,1.00000000084969,0.558485606565565
16100.000000041,116.903587542025,1.00000000077233,0.547868934113542
16200.0000000414,116.18862153103,1.00000000078811,0.538857507878333
16300.0000000418,115.481689991893,1.00000000078782,0.533157262288003
16400.0000000418,114.782619394389,1.0000000007923,0.540462631282312
16500.0000000404,114.091954132838,1.00000000082849,0.546170448086546
16600.0000000389,113.40933738181,1.00000000084532,0.545347861601248
16700.0000000375,112.735407196087,1.00000000083573,0.554271846930807
16800.000000036,112.069897139311,1.00000000076376,0.552719787325016
16900.0000000346,111.412644507892,1.00000000077515,0.543751451384231
17000.0000000331,110.764025934587,1.00000000078719,0.533967702448648
17100.0000000317,110.12413068782,1.00000000076313,0.533229555622179
17200.0000000302,109.492564576012,1.00000000082145,0.546423343979667
17300.0000000287,108.868756259984,1.00000000085732,0.551684324441674
17400.0000000273,108.252967071647,1.00000000077575,0.54465170672486
17500.0000000258,107.645156683944,1.00000000083964,0.551829355359923
17600.0000000244,107.045715397036,1.00000000083075,0.551412260247129
17700.0000000229,106.455510607784,1.00000000074623,0.54104850018456
17800.0000000215,105.874422947401,1.00000000080136,0.533747304491007
17900.00000002,105.302014650249,1.00000000079922,0.534283199194611
18000.0000000186,104.737649429161,1.00000000080124,0.537228248464464
18100.0000000171,104.180783971691,1.00000000084281,0.545657240130331
18200.0000000156,103.630581278014,1.00000000083539,0.55530116871995
18300.0000000142,103.087467898241,1.00000000082911,0.549803573072762
18400.0000000127,102.55141094603,1.00000000083515,0.548269691480802
18500.0000000113,102.023589433603,1.00000000079006,0.546900598862891
18600.0000000098,101.50557207746,1.00000000074048,0.5381289641498
18700.0000000084,100.997506080254,1.00000000074643,0.531612550093402
18800.0000000069,100.49776345607,1.00000000080469,0.53403367127077
18900.0000000055,100.004890484018,1.00000000089057,0.53564974076953
19000.000000004,99.5193851027147,1.00000000075899,0.533021217367325
19100.0000000026,99.0399027430508,1.00000000089678,0.545878708254151
19200.0000000011,98.5643779383654,1.00000000084435,0.562860027568823
19299.9999999996,98.0940561275273,1.00000000084345,0.552171128186067
19399.9999999982,97.6307791515785,1.00000000084667,0.545844673923904
19499.9999999967,97.1753387261317,1.00000000082122,0.542139927830706
19599.9999999953,96.7302037507977,1.00000000074139,0.536794722433773
19699.9999999938,96.2950333226199,1.00000000076204,0.53569583590491
19799.9999999924,95.8676891234804,1.00000000079696,0.53281976810003
19899.9999999909,95.44697728801,1.00000000084687,0.532101017782066
19999.9999999895,95.03230805162,1.00000000082451,0.530642383491184
20099.999999988,94.623873332868,1.00000000086318,0.535123403872949
20199.9999999865,94.2181112039568,1.00000000093048,0.548074538813812
20299.9999999851,93.8139481851141,1.00000000092607,0.560793706796878
20399.9999999836,93.4136866818157,1.00000000085231,0.554498604428568
20499.9999999822,93.0193948859478,1.00000000082005,0.542276860674044
20599.9999999807,92.6331592030472,1.00000000080045,0.539073148331924
20699.9999999793,92.2568378330631,1.00000000077711,0.537481479391746
20799.9999999778,91.8887768728744,1.00000000083172,0.541278811403992
20899.9999999764,91.5289324226246,1.00000000081541,0.537168285514945
20999.9999999749,91.1760087328918,1.00000000081209,0.53057090378684
21099.9999999734,90.8296830319435,1.00000000078131,0.528357201828222
21199.999999972,90.4889755101895,1.0000000008368,0.532347631035692
21299.9999999705,90.1516207686342,1.00000000085906,0.536566632960029
21399.9999999691,89.8153003581618,1.00000000095291,0.544144098596017
21499.9999999676,89.4781108890733,1.00000000090236,0.553418418526592
21599.9999999662,89.1428948715237,1.00000000083705,0.556334966158676
21699.9999999647,88.812419685837,1.00000000081849,0.54908740304107
21799.9999999633,88.4885423721301,1.00000000081172,0.541154437896027
21899.9999999618,88.1723389378946,1.00000000078619,0.542589650929547
21999.9999999603,87.8639932129762,1.00000000079866,0.545471238950314
22099.9999999589,87.5635412211655,1.00000000079433,0.543629823233103
22199.9999999574,87.2704410031759,1.00000000080477,0.543661329876844
22299.999999956,86.9837830302714,1.00000000081647,0.538104518882679
22399.9999999545,86.7041306828491,1.0000000007619,0.534819179245744
22499.9999999531,86.4298571998997,1.00000000080632,0.534308307885472
22599.9999999516,86.1595540781201,1.00000000081439,0.537827057739452
22699.9999999502,85.89081245564,1.00000000089365,0.545544492212427
22799.9999999487,85.621007248822,1.0000000008743,0.545620684187
22899.9999999473,85.3501689542959,1.00000000090906,0.550088634288664
22999.9999999458,85.0794287463633,1.00000000083643,0.562319594537524
23099.9999999443,84.8117919503981,1.00000000084218,0.558598610460834
23199.9999999429,84.5498805789301,1.00000000076925,0.550442012080541
23299.9999999414,84.2945629115,1.00000000079594,0.548933216997734
23399.99999994,84.0467883872404,1.00000000078354,0.55055185285098
23499.9999999385,83.8065309536424,1.0000000007993,0.5531464586268
23599.9999999371,83.5730716010463,1.00000000080187,0.550571543430364
23699.9999999356,83.3469207913131,1.00000000078444,0.54912010865056
23799.9999999342,83.1262069986225,1.0000000008143,0.548067034491632
23899.9999999327,82.9105762140065,1.00000000079599,0.543579104179015
23999.9999999312,82.699993863516,1.00000000080062,0.541667133558002
24099.9999999298,82.4938214060618,1.0000000008151,0.543126288379834
24199.9999999283,82.2903689191029,1.00000000080434,0.549613607508579
24299.9999999269,82.0874154558021,1.0000000008651,0.550796084925476
24399.9999999254,81.8828385278129,1.0000000009201,0.550019609373967
24499.999999924,81.67443588735,1.00000000092387,0.556585303627247
24599.9999999225,81.4646142080142,1.00000000083939,0.561889741160149
24699.9999999211,81.2568929158949,1.00000000083064,0.564274233012327
24799.9999999196,81.0533854669946,1.00000000077295,0.557350988825898
24899.9999999181,80.855765356867,1.00000000080081,0.553754498563156
24999.9999999167,80.6641370479069,1.00000000079783,0.554088180687205
25099.9999999152,80.4781371849003,1.00000000082119,0.555717702281959
25199.9999999138,80.2991097957223,1.00000000081713,0.553952190128831
25299.9999999123,80.1266872115143,1.00000000080127,0.554250305312577
25399.9999999109,79.9599775104741,1.00000000082489,0.554042307937159
25499.9999999094,79.7973942405412,1.00000000081552,0.554379906040705
25599.999999908,79.6380250240584,1.00000000085625,0.548497224607034
25699.9999999065,79.4841638414848,1.00000000077174,0.543802750222704
25799.9999999051,79.3348559955209,1.00000000079637,0.548420099787239
25899.9999999036,79.187898157183,1.00000000084521,0.553673027232681
25999.9999999021,79.0408385468586,1.00000000087602,0.561681587542027
26099.9999999007,78.8924017867741,1.00000000085756,0.561374219722152
26199.9999998992,78.7422148524107,1.00000000090364,0.556577964873741
26299.9999998978,78.5886027362071,1.00000000092324,0.560246265516531
26399.9999998963,78.4329735376582,1.00000000087561,0.560203428347001
26499.9999998949,78.2771560695021,1.00000000085406,0.567335447729782
26599.9999998934,78.1226449113403,1.0000000008262,0.570543976865182
26699.999999892,77.9719351122316,1.00000000078877,0.567282497786874
26799.9999998905,77.8251790216462,1.00000000082897,0.563093827341728
26899.999999889,77.6831035427382,1.00000000082018,0.557840782095902
26999.9999998876,77.5463770407378,1.00000000082041,0.555140015624415
27099.9999998861,77.4140995394096,1.00000000084025,0.556018791257465
27199.9999998847,77.2874130492841,1.00000000081787,0.556094706461019
27299.9999998832,77.1652340256795,1.00000000083796,0.558610836459117
27399.9999998818,77.0472398835346,1.00000000081809,0.554958461540699
27499.9999998803,76.9339554443517,1.0000000008186,0.552289242933479
27599.9999998789,76.8243116626031,1.00000000085131,0.55294185152726
27699.9999998774,76.7184114981215,1.00000000079682,0.551357292344493
27799.9999998759,76.6147025403566,1.00000000085835,0.558204434909934
27899.9999998745,76.5115634162077,1.00000000087762,0.562324577435567
27999.999999873,76.4068205672437,1.00000000085963,0.567111939721293
28099.9999998716,76.2998366114165,1.00000000089846,0.570863675219068
28199.9999998701,76.1918862838233,1.00000000085677,0.568646396688298
28299.9999998687,76.0828958746377,1.00000000087726,0.563031500796575
28399.9999998672,75.9725597514645,1.00000000088732,0.562069422735028
28499.9999998658,75.8610750914158,1.00000000089219,0.565684830504496
28599.9999998643,75.7484877320172,1.00000000084319,0.564138650592379
28699.9999998629,75.6366748139385,1.00000000088132,0.564909148524182
28799.9999998614,75.525584617468,1.00000000085865,0.573409383947469
28899.9999998599,75.4169799694329,1.00000000080148,0.572900024866818
28999.9999998585,75.3122043947043,1.00000000084923,0.571021827686939
