Time,AGPnorm,Energy,Entropy
0,0,1,-7.41135603275477e-17
99.9999999999986,0.00211650936503886,1.00000000000031,0.00624778813393437
199.999999999993,0.0141156876808534,1.00000000000109,0.0181814131232429
300,0.0281527651425563,1.00000000000146,0.0336322790423021
400.000000000022,0.0421183566502204,1.00000000000065,0.0531813853647669
500.000000000045,0.0587638406526535,0.999999999999615,0.077012201515882
600.000000000068,0.0797388519534261,1.00000000000041,0.105622675927831
700.000000000091,0.0988650335874187,1.00000000000203,0.139816539147304
800.000000000113,0.118317518254909,1.00000000001316,0.183393489959331
900.000000000136,0.13568569019653,1.00000000012336,0.240521587379885
1000.00000000016,0.151771170391975,1.00000000046739,0.305829279407056
1100.0000000001,0.216921658956956,1.00000000099896,0.366861467288388
1200,0.40716872243113,1.00000000152883,0.419045183329361
1299.99999999991,0.789528883144184,1.00000000198585,0.462419984496033
1399.99999999982,1.48216122700221,1.00000000236569,0.497722239862576
1499.99999999973,2.58154053578081,1.00000000258644,0.525475846745434
1599.99999999964,4.09767777688794,1.00000000288615,0.547714545352822
1699.99999999955,6.01722483988119,1.00000000291694,0.564844038622588
1799.99999999946,8.30951911966239,1.00000000289144,0.577400518255485
1899.99999999937,10.8823466081599,1.00000000295661,0.5857258834003
1999.99999999928,13.618852224789,1.00000000292953,0.592246314647831
2099.99999999919,16.4492096399052,1.00000000283336,0.596230692028021
2199.99999999909,19.3154639657545,1.00000000269829,0.59773067820811
2299.999999999,22.1218433733818,1.00000000253323,0.598175524340735
2399.99999999891,24.7778033775258,1.00000000235364,0.5971478244371
2499.99999999882,27.2344368843498,1.00000000232473,0.596705592687665
2599.99999999873,29.4782175603802,1.00000000219071,0.594078683599144
2699.99999999864,31.4878540258051,1.00000000212268,0.590216106682018
2799.99999999855,33.2308684908152,1.00000000206408,0.587567907422326
2899.99999999846,34.6939104525646,1.00000000201476,0.58661511162915
2999.99999999837,35.8840064788386,1.00000000187296,0.585465476564837
3099.99999999828,36.8215235881415,1.00000000179786,0.583577035764862
3199.99999999819,37.5150034733603,1.00000000175841,0.583696271685491
3299.99999999809,37.9751695701831,1.00000000168123,0.578524252541962
3399.999999998,38.2264756072022,1.00000000165486,0.58067555134464
3499.99999999791,38.29145160657,1.00000000155499,0.57612640220011
3599.99999999782,38.2143353798831,1.0000000015961,0.572755415343458
3699.99999999773,38.000403982506,1.00000000168263,0.575098906709984
3799.99999999764,37.6929861984565,1.00000000151327,0.563389115578332
3899.99999999755,37.2845414180812,1.00000000168807,0.576656550388484
3999.99999999746,36.8321506793816,1.00000000142692,0.554459310228131
4099.99999999738,36.3096820508232,1.00000000189291,0.569699383954243
4199.99999999775,35.7814846954502,1.00000000168978,0.551879292306357
4299.99999999811,35.2030640141568,1.00000000153127,0.534935359735624
4399.99999999848,34.6269647006618,1.0000000019968,0.563393571552326
4499.99999999884,34.0399440505023,1.00000000143095,0.520417583722186
4599.9999999992,33.4376143570196,1.00000000194449,0.558631256444072
4699.99999999957,32.8582643983856,1.00000000180898,0.532053731300047
4799.99999999993,32.2723145039283,1.00000000146465,0.514899431712886
4900.00000000029,31.6855969057919,1.0000000018382,0.548685876113837
5000.00000000066,31.1216836780407,1.00000000178598,0.520545789866397
5100.00000000102,30.5654756719692,1.0000000014687,0.514980107542059
5200.00000000139,30.0135113240862,1.0000000016693,0.523260222363124
5300.00000000175,29.4783950535213,1.00000000192836,0.539321137343506
5400.00000000211,28.9594508638654,1.00000000144186,0.495486971767
5500.00000000248,28.4518727744448,1.00000000158291,0.529279438007856
5600.00000000284,27.9566936944527,1.00000000169321,0.523881353846978
5700.00000000321,27.4775780515651,1.00000000184786,0.522397166575053
5800.00000000357,27.0139184312147,1.0000000016597,0.508650767382443
5900.00000000393,26.5673169178673,1.00000000153762,0.523400049502816
6000.0000000043,26.1334786120572,1.00000000175155,0.544560977268073
6100.00000000466,25.7165707287955,1.00000000162309,0.509059111760561
6200.00000000502,25.3148071147968,1.00000000192092,0.517180947740619
6300.00000000539,24.9275598679319,1.00000000167207,0.512026587305473
6400.00000000575,24.5594919280525,1.00000000159946,0.525208650730147
6500.00000000612,24.2000010823054,1.0000000018604,0.548452366212058
6600.00000000648,23.8564823351001,1.00000000145413,0.509866441627937
6700.00000000684,23.5309667679527,1.00000000182499,0.512555844250057
6800.00000000721,23.2154156343373,1.0000000019021,0.51847976684937
6900.00000000757,22.9137811852594,1.00000000166463,0.51187940017045
7000.00000000793,22.6270281372744,1.00000000165613,0.5339845516557
7100.0000000083,22.3441784348788,1.00000000196563,0.546314221378512
7200.00000000866,22.0729622820776,1.00000000154198,0.52737061956896
7300.00000000903,21.8178898655767,1.00000000160603,0.509327013075733
7400.00000000939,21.5758619800113,1.00000000178616,0.528497169720258
7500.00000000975,21.3427584218962,1.00000000177421,0.520226766049568
7600.00000001012,21.122123071602,1.0000000017843,0.523929911354709
7700.00000001048,20.9098633513565,1.00000000177797,0.549306203327693
7800.00000001084,20.7044011451985,1.00000000168576,0.54252345656482
7900.00000001121,20.5031112073258,1.00000000181266,0.538522957504768
8000.00000001157,20.3088878627108,1.00000000170489,0.547652777670833
8100.00000001194,20.1256872006697,1.00000000162049,0.528180293974914
8200.0000000123,19.9554215590583,1.00000000168566,0.537352054188979
8300.00000001266,19.7972932655045,1.00000000173568,0.536462836390203
8400.00000001303,19.6487282527517,1.00000000165973,0.532917595105298
8500.00000001339,19.5071693655999,1.0000000017506,0.549338884631819
8600.00000001376,19.3644691961637,1.0000000018009,0.562224737484709
8700.00000001412,19.2320065429776,1.00000000155167,0.544953231955225
8800.00000001448,19.1077821228395,1.00000000183738,0.552592087710042
8900.00000001485,18.9790641059922,1.00000000197741,0.562283682465913
9000.00000001521,18.8474589889579,1.00000000189104,0.568138001857045
9100.00000001557,18.7242688278273,1.0000000016266,0.541759958711302
9200.00000001594,18.6159380003779,1.00000000169012,0.546508864061034
9300.0000000163,18.5187251914325,1.00000000175517,0.558375241212417
9400.00000001667,18.4291602214843,1.00000000170429,0.545671452075146
9500.00000001703,18.3450395666607,1.00000000168961,0.556310885084799
9600.00000001739,18.2627261585152,1.00000000188506,0.568428705596761
9700.00000001776,18.1770622926392,1.00000000193137,0.566196775562367
9800.00000001812,18.0971316282571,1.00000000159774,0.556226664830163
9900.00000001848,18.0289825423481,1.00000000174075,0.55446156794259
10000.0000000188,17.9616049580149,1.0000000019341,0.571537831660397
10100.0000000192,17.8866981817398,1.00000000198719,0.571701646944875
10200.0000000196,17.8066952032314,1.00000000183341,0.577510935665985
10300.0000000199,17.725819142112,1.00000000176662,0.581619535742948
10400.0000000203,17.649904948746,1.00000000172615,0.572797071233715
10500.0000000207,17.583508729243,1.00000000172962,0.571238381543324
10600.000000021,17.5284055937055,1.00000000176791,0.571538377221794
10700.0000000214,17.4820065108206,1.0000000017089,0.562594550602454
10800.0000000218,17.4430681648275,1.00000000179855,0.566622475445829
10900.0000000221,17.4066306954068,1.00000000177475,0.575302609637488
11000.0000000225,17.3680806740299,1.0000000019364,0.583513751785623
11100.0000000229,17.3302892970049,1.00000000176766,0.577785614570513
11200.0000000232,17.2960554637331,1.00000000181003,0.57895413978384
11300.0000000236,17.2637703017687,1.00000000181694,0.581768046814366
11400.0000000239,17.2322646291999,1.0000000018187,0.573847040899672
11500.0000000243,17.2009501543159,1.00000000187569,0.58397017322873
11600.0000000247,17.1673559255443,1.00000000186392,0.585264516762448
11700.000000025,17.1333532775035,1.00000000173867,0.580370258034124
11800.0000000254,17.0992036773619,1.00000000187491,0.58598134682544
11900.0000000258,17.0573623934857,1.00000000203315,0.586396671390967
12000.0000000261,17.0084394394888,1.00000000183747,0.596114323005512
12100.0000000265,16.9584297678151,1.00000000180195,0.597505650139206
12200.0000000269,16.9135293224028,1.00000000180291,0.590381185804589
12300.0000000272,16.878840261251,1.00000000171498,0.583921594501228
12400.0000000276,16.8542819512054,1.00000000175178,0.572614660205678
12500.0000000279,16.8392795575582,1.000000001764,0.564028163288346
12600.0000000283,16.8327426320505,1.0000000018634,0.57374927017537
12700.0000000287,16.8282666930318,1.00000000188738,0.589359225175126
12800.000000029,16.8202698692996,1.00000000195503,0.592436456229364
12900.0000000294,16.8116057372551,1.00000000193489,0.584871576475389
13000.0000000298,16.8050441090125,1.00000000179246,0.585101529033583
13100.0000000301,16.8025892484217,1.00000000184855,0.587251013235391
13200.0000000305,16.800942755791,1.00000000184421,0.583451408236732
13300.0000000309,16.7949371111418,1.00000000205908,0.591902761195012
13400.0000000312,16.788543095588,1.00000000182031,0.595180158462749
13500.0000000316,16.7862497098221,1.00000000183135,0.596597780103566
13600.0000000319,16.7831011940165,1.00000000195875,0.611684484411457
13700.0000000323,16.7743096863687,1.00000000210724,0.620950981595771
13800.0000000327,16.7630176228087,1.00000000196031,0.608487077287829
13900.000000033,16.7520953472347,1.00000000188192,0.619380087839621
14000.0000000334,16.7446102718784,1.00000000181365,0.615382596137928
14100.0000000338,16.7352083740956,1.00000000203265,0.617662281301691
14200.0000000341,16.7185161740041,1.00000000205344,0.622340553864844
14300.0000000345,16.6906439620858,1.00000000205768,0.616740624986923
14400.0000000349,16.6541549043003,1.00000000207033,0.624048128421474
14500.0000000352,16.6157708919114,1.00000000193453,0.62716491165889
14600.0000000356,16.5812487939431,1.00000000179397,0.619549187529247
14700.0000000359,16.5555315805398,1.00000000189828,0.612781792869053
14800.0000000363,16.5410301077638,1.00000000186865,0.609124819497207
14900.0000000367,16.535884343972,1.00000000191001,0.603391324430147
15000.000000037,16.5382697415981,1.00000000185094,0.599772776931465
15100.0000000374,16.5470234523115,1.00000000194455,0.594671758036241
15200.0000000378,16.5596322686992,1.00000000202993,0.601402760371813
15300.0000000381,16.5722281004827,1.00000000210028,0.607770373979983
15400.0000000385,16.5830288329761,1.00000000202554,0.611401054407662
15500.0000000389,16.5941741452957,1.00000000197252,0.608695036317608
15600.0000000392,16.6072415414957,1.00000000192728,0.602307569974122
15700.0000000396,16.6240710179741,1.00000000187084,0.607605212058378
15800.0000000399,16.6408451603837,1.00000000203016,0.611567953498902
15900.0000000403,16.6558050299312,1.00000000210861,0.620476098021874
16000.0000000407,16.667877344615,1.00000000189119,0.620257977445358
16100.000000041,16.6826912497463,1.00000000200679,0.621621819727112
16200.0000000414,16.6947407551213,1.00000000211186,0.622417635541533
16300.0000000418,16.7027659296379,1.0000000020244,0.614181523389469
16400.0000000418,16.7101300331551,1.00000000206041,0.608681220151472
16500.0000000404,16.7169569624406,1.00000000201982,0.612665617968347
16600.0000000389,16.7257326068348,1.00000000196637,0.622478696847716
16700.0000000375,16.7363159556182,1.0000000020217,0.624098258593843
16800.000000036,16.7461512409948,1.00000000206457,0.632393670368896
16900.0000000346,16.7549889332872,1.00000000204657,0.639190014729417
17000.0000000331,16.7620635708187,1.00000000210181,0.627680458615777
17100.0000000317,16.764010241156,1.00000000216205,0.642478046001301
17200.0000000302,16.7627314313767,1.00000000209857,0.653300704920372
17300.0000000287,16.7583068986613,1.00000000214314,0.646464827404464
17400.0000000273,16.7516190070059,1.0000000021394,0.648917498076096
17500.0000000258,16.7432565872905,1.00000000199426,0.648843871234961
17600.0000000244,16.7341893447638,1.00000000214095,0.655243040583033
17700.0000000229,16.7188790944805,1.00000000225078,0.65771224020512
17800.0000000215,16.6977235912773,1.00000000226375,0.649415642433118
17900.00000002,16.672918713306,1.00000000224562,0.650675147542233
18000.0000000186,16.6439489608819,1.00000000225769,0.640486005696938
18100.0000000171,16.6128502153775,1.00000000214402,0.643628396687456
18200.0000000156,16.5836586228772,1.00000000202939,0.64442430826658
18300.0000000142,16.5592321496672,1.00000000211762,0.635012198825777
18400.0000000127,16.5423112819215,1.00000000205267,0.623869562261174
18500.0000000113,16.5347069338472,1.00000000206675,0.621191877764089
18600.0000000098,16.5349592975456,1.00000000206016,0.620431730680677
18700.0000000084,16.5425752216314,1.00000000203721,0.618009761107023
18800.0000000069,16.5587715400627,1.00000000209439,0.606387418699809
18900.0000000055,16.5800525655143,1.00000000209453,0.600335289828339
19000.000000004,16.6059336836624,1.00000000225563,0.607687435826187
19100.0000000026,16.6306828224052,1.0000000023689,0.612125866532523
19200.0000000011,16.6555744483767,1.00000000224547,0.622880778697096
19299.9999999996,16.6806143476904,1.00000000213786,0.620427292854858
19399.9999999982,16.7072299775649,1.0000000022272,0.620574248615271
19499.9999999967,16.7364581013411,1.00000000211021,0.61725745770721
19599.9999999953,16.7680167681326,1.00000000222839,0.619910420045299
19699.9999999938,16.7999210391244,1.00000000219637,0.60863421370713
19799.9999999924,16.8314652577602,1.00000000219518,0.61679720503722
19899.9999999909,16.8637339389279,1.00000000222383,0.61632409485364
19999.9999999895,16.8932112746835,1.00000000227772,0.621685598835127
20099.999999988,16.9197969616654,1.00000000237607,0.623351285128654
20199.9999999865,16.9440720206017,1.00000000220656,0.627097112108817
20299.9999999851,16.9681363730381,1.00000000213996,0.627366236233687
20399.9999999836,16.9926643666618,1.0000000022403,0.628210720182653
20499.9999999822,17.0169856260301,1.00000000238553,0.633824979369356
20599.9999999807,17.0381234730715,1.00000000228952,0.641644322635314
20699.9999999793,17.0587887833927,1.00000000229177,0.642276176870888
20799.9999999778,17.0790586226829,1.0000000022294,0.649141519685936
20899.9999999764,17.0991633700867,1.00000000235553,0.651756949827038
20999.9999999749,17.1208150135227,1.00000000221715,0.652535248483727
21099.9999999734,17.1422329628438,1.0000000023203,0.648476374374451
21199.999999972,17.1629084688566,1.00000000231157,0.651397624568352
21299.9999999705,17.1839878939072,1.00000000237593,0.662432158956758
21399.9999999691,17.2044036922583,1.00000000225743,0.664891111002823
21499.9999999676,17.2246254873974,1.00000000230388,0.657818772800521
21599.9999999662,17.2432821863827,1.00000000240659,0.664910742196255
21699.9999999647,17.2582395704585,1.00000000240886,0.665340933043846
21799.9999999633,17.2729774120292,1.00000000232025,0.673148195709221
21899.9999999618,17.2887709239079,1.00000000232153,0.674893464091995
21999.9999999603,17.3044948545511,1.00000000241879,0.672704475228641
22099.9999999589,17.3179145034298,1.00000000233488,0.670039814048131
22199.9999999574,17.3304252993193,1.00000000237784,0.669772340145403
22299.999999956,17.3400986663734,1.00000000231552,0.660399472579441
22399.9999999545,17.3497886349033,1.00000000231357,0.662217089667867
22499.9999999531,17.3576483240475,1.0000000024026,0.662244800190619
22599.9999999516,17.3644450975306,1.00000000228443,0.659045522676547
22699.9999999502,17.3674100301952,1.00000000250537,0.662811227711807
22799.9999999487,17.3678469409827,1.00000000227882,0.664787826117913
22899.9999999473,17.3674822017747,1.00000000240981,0.672647224122631
22999.9999999458,17.3626499666034,1.00000000233278,0.672221042164927
23099.9999999443,17.3578592065557,1.00000000214097,0.669399913731375
23199.9999999429,17.3511432787173,1.00000000242513,0.677355445292371
23299.9999999414,17.3421338706196,1.00000000227643,0.673858736259746
23399.99999994,17.333944280937,1.00000000228102,0.674841764664941
23499.9999999385,17.3245625742365,1.00000000231375,0.676446379792107
23599.9999999371,17.3139474486856,1.00000000238943,0.668675941869544
23699.9999999356,17.3000735264334,1.0000000023749,0.670535203280852
23799.9999999342,17.2835648544965,1.0000000024505,0.674123166088026
23899.9999999327,17.2633581667462,1.00000000251915,0.673569258543181
23999.9999999312,17.2423969213923,1.00000000239369,0.66424231465698
24099.9999999298,17.2200408513699,1.00000000245777,0.66896177577474
24199.9999999283,17.1981672422841,1.00000000225202,0.667474780992815
24299.9999999269,17.1793655212554,1.00000000232578,0.669602988719663
24399.9999999254,17.164662644956,1.00000000250023,0.664493556263699
24499.999999924,17.1540520592796,1.00000000238192,0.65816076279241
24599.9999999225,17.1487369572246,1.00000000234808,0.650117149876182
24699.9999999211,17.150815342242,1.00000000232041,0.643382494762485
24799.9999999196,17.1586310586159,1.0000000024531,0.647133387628404
24899.9999999181,17.1730230926746,1.00000000248841,0.643640853460683
24999.9999999167,17.193932505767,1.00000000221372,0.636535289743006
25099.9999999152,17.2222396176585,1.00000000240275,0.635851105798977
25199.9999999138,17.2560295126266,1.00000000237901,0.628900111495578
25299.9999999123,17.2951249803936,1.0000000024898,0.625341788034691
25399.9999999109,17.3359592163651,1.00000000261007,0.626422994653165
25499.9999999094,17.375678197447,1.00000000253494,0.622676759736139
25599.999999908,17.418842842176,1.00000000238402,0.618233834830487
25699.9999999065,17.4600683891823,1.00000000269472,0.631762839374605
25799.9999999051,17.5006389866845,1.0000000023843,0.620971834008667
25899.9999999036,17.5460602324499,1.00000000239609,0.617339004418103
25999.9999999021,17.5944692117355,1.00000000242608,0.611928712539816
26099.9999999007,17.6455395788711,1.00000000226094,0.615269605275394
26199.9999998992,17.7020911994731,1.00000000243713,0.618877121500236
26299.9999998978,17.7569726299995,1.00000000265514,0.612822904256294
26399.9999998963,17.8099641652479,1.00000000249887,0.617347974596766
26499.9999998949,17.8644188900232,1.0000000024685,0.626276472510229
26599.9999998934,17.9176173889405,1.00000000261178,0.621568664316613
26699.999999892,17.9686076210635,1.00000000246979,0.622927530696165
26799.9999998905,18.0189022621709,1.0000000024822,0.629458068655983
26899.999999889,18.0707736503739,1.00000000249835,0.630715356315463
26999.9999998876,18.1224097251196,1.00000000261334,0.635218553323031
27099.9999998861,18.1711976693289,1.00000000263139,0.630105110908768
27199.9999998847,18.2169587071342,1.00000000249746,0.634914148200873
27299.9999998832,18.2635538445408,1.00000000252142,0.637732341202383
27399.9999998818,18.307564491293,1.00000000280924,0.646315825485783
27499.9999998803,18.3488163223326,1.00000000259003,0.652577753151134
27599.9999998789,18.394585856951,1.00000000236666,0.653312865256783
27699.9999998774,18.4417036658191,1.00000000263217,0.653279461661073
27799.9999998759,18.4912954050764,1.00000000249795,0.654538641428934
27899.9999998745,18.5412894447081,1.00000000259018,0.665538325216996
27999.999999873,18.5869858231418,1.00000000270244,0.670534578477947
28099.9999998716,18.6308144060478,1.00000000257743,0.671941573979519
28199.9999998701,18.6761646514351,1.00000000268736,0.673538508604936
28299.9999998687,18.7203218610745,1.00000000260121,0.677163847460903
28399.9999998672,18.7630637488264,1.00000000265484,0.684836659927618
28499.9999998658,18.8044954775141,1.00000000253128,0.680868239699798
28599.9999998643,18.8482599389078,1.00000000258494,0.689784836281354
28699.9999998629,18.890262087082,1.00000000274872,0.689719601286101
28799.9999998614,18.9275917746369,1.00000000254574,0.68734119466556
28899.9999998599,18.9624642710744,1.00000000272664,0.688324744881447
28999.9999998585,18.9970090230969,1.00000000262824,0.683866472154349
