Time,AGPnorm,Energy,Entropy
0,0,1,-7.52576412217672e-17
99.9999999999986,0.00160887663612724,0.999999999997463,0.0049650690022408
199.999999999993,0.0110889807269711,0.999999999997448,0.0142599871848481
300,0.0214642209865794,1.00000000000027,0.0264847189687406
400.000000000022,0.0321216142621851,1.00000000000105,0.0421221682748677
500.000000000045,0.0449682002486299,0.999999999998007,0.0609803578436771
600.000000000068,0.063163280533671,0.999999999996963,0.0827049090337902
700.000000000091,0.0782895720895768,0.999999999999076,0.107682003638346
800.000000000113,0.0953018127165507,1.00000000000208,0.137547463563429
900.000000000136,0.110939482177386,1.00000000000475,0.174509045316104
1000.00000000016,0.128214532726518,1.00000000004874,0.221010083952817
1100.0000000001,0.147573774032895,1.00000000022318,0.276119705656786
1200,0.192838774580666,1.00000000054651,0.331632438826528
1299.99999999991,0.283615545692094,1.0000000009529,0.382333616720524
1399.99999999982,0.502078216082221,1.00000000125767,0.425207768212116
1499.99999999973,0.973548702290949,1.00000000160384,0.460961297553864
1599.99999999964,1.76773399628389,1.0000000017836,0.490819797252403
1699.99999999955,2.92940488335755,1.00000000198376,0.51643314823052
1799.99999999946,4.53509252325967,1.00000000210947,0.535941669357307
1899.99999999937,6.59181211931916,1.00000000226348,0.550943781821431
1999.99999999928,9.01918371310778,1.00000000226798,0.563263175497433
2099.99999999919,11.7500524180569,1.00000000211091,0.573982923607317
2199.99999999909,14.7687982414152,1.00000000220237,0.580011074056479
2299.999999999,18.0034473129323,1.00000000210319,0.584154189782071
2399.99999999891,21.3205103256159,1.00000000211316,0.586685498473423
2499.99999999882,24.6254916181237,1.00000000198677,0.589678537824297
2599.99999999873,27.888830107169,1.00000000193782,0.58953758650681
2699.99999999864,31.0729691603496,1.00000000191324,0.588742292015038
2799.99999999855,34.0951921354353,1.00000000183626,0.587211899828832
2899.99999999846,36.8925553449529,1.0000000017994,0.586536326854252
2999.99999999837,39.4460512700038,1.00000000170544,0.584256905189063
3099.99999999828,41.7606046322858,1.00000000160887,0.58058534297899
3199.99999999819,43.8210624487801,1.00000000160382,0.578191699684021
3299.99999999809,45.5977151146418,1.00000000150823,0.577093384974574
3399.999999998,47.0879309982777,1.00000000147834,0.575539879959983
3499.99999999791,48.3080721656277,1.00000000140872,0.573342662586161
3599.99999999782,49.2764802459669,1.00000000142898,0.573733543304275
3699.99999999773,49.9992877508889,1.0000000012616,0.56654727282959
3799.99999999764,50.4935161277612,1.00000000133692,0.572099977201374
3899.99999999755,50.7578411070208,1.00000000126582,0.567411467783751
3999.99999999746,50.8538455818135,1.00000000119605,0.568461153312768
4099.99999999738,50.7723030075078,1.0000000011481,0.556719300275007
4199.99999999775,50.5696711734743,1.00000000135867,0.57333089715666
4299.99999999811,50.2413269866389,1.00000000104795,0.540310894294221
4399.99999999848,49.8083508361499,1.00000000149978,0.581076943360951
4499.99999999884,49.3302604108641,1.00000000114765,0.543660811592543
4599.9999999992,48.7509820754847,1.00000000112218,0.540520387476066
4699.99999999957,48.1634915516783,1.00000000149989,0.57268269392841
4799.99999999993,47.540563470186,1.00000000094243,0.512044417909744
4900.00000000029,46.8542055417982,1.00000000144821,0.553281641514586
5000.00000000066,46.1950183983891,1.00000000162292,0.564280999071018
5100.00000000102,45.5246714582573,1.00000000097321,0.498242644891934
5200.00000000139,44.8129098805695,1.00000000124265,0.524348575751292
5300.00000000175,44.1254835698834,1.00000000181661,0.572684071817425
5400.00000000211,43.4565993490686,1.00000000116769,0.502497111945484
5500.00000000248,42.7667527979901,1.00000000101233,0.486019925507638
5600.00000000284,42.078006264904,1.0000000015138,0.540592137215152
5700.00000000321,41.4207089502117,1.00000000157104,0.545919788624801
5800.00000000357,40.7770403210349,1.0000000010924,0.488790381166408
5900.00000000393,40.130116859967,1.00000000113817,0.4931823532026
6000.0000000043,39.4905213949648,1.00000000138751,0.518874429976613
6100.00000000466,38.873330337426,1.00000000161217,0.542599696699493
6200.00000000502,38.2758459746402,1.00000000120472,0.503315379350813
6300.00000000539,37.6904236176975,1.00000000109407,0.495571551041757
6400.00000000575,37.1155421687399,1.00000000124109,0.513264479517722
6500.00000000612,36.554585596837,1.00000000133487,0.511479877639583
6600.00000000648,36.0097995595038,1.00000000148504,0.529960352524248
6700.00000000684,35.4811127502831,1.00000000130633,0.51434468019247
6800.00000000721,34.9708854137398,1.00000000105774,0.493719850754972
6900.00000000757,34.4769554762954,1.00000000134745,0.521661752000975
7000.00000000793,33.9978065146922,1.00000000125315,0.519131142490514
7100.0000000083,33.5359435636758,1.00000000118358,0.504648777460935
7200.00000000866,33.0872531686986,1.00000000154223,0.529708903192878
7300.00000000903,32.6494196440668,1.00000000137189,0.51951358000116
7400.00000000939,32.2313451549174,1.00000000103502,0.49810166261297
7500.00000000975,31.8321785516185,1.00000000125437,0.518621974602978
7600.00000001012,31.4422701104719,1.00000000139813,0.530196121823996
7700.00000001048,31.0672787006777,1.0000000011044,0.50803590681423
7800.00000001084,30.7129836772178,1.00000000119968,0.493527339475252
7900.00000001121,30.3695884480818,1.00000000147798,0.527034872015367
8000.00000001157,30.0292587264298,1.00000000143026,0.519705713917725
8100.00000001194,29.7029607753427,1.00000000115563,0.509602576084009
8200.0000000123,29.3958128932385,1.00000000120941,0.511222882163689
8300.00000001266,29.101398146463,1.00000000147071,0.524527916256719
8400.00000001303,28.8088774501239,1.00000000139818,0.526007726737646
8500.00000001339,28.527115311422,1.00000000119345,0.520219151927954
8600.00000001376,28.2654020487577,1.00000000114652,0.501638403501888
8700.00000001412,28.0159376468822,1.00000000132125,0.519128442587559
8800.00000001448,27.7719051029108,1.00000000146607,0.534378611330182
8900.00000001485,27.5300048466192,1.00000000146931,0.530706856356524
9000.00000001521,27.2992822530077,1.00000000121788,0.516049352370719
9100.00000001557,27.0843309508773,1.00000000130672,0.52719578111774
9200.00000001594,26.8783715499707,1.00000000125328,0.531849342877177
9300.0000000163,26.6804275603098,1.00000000138145,0.529722312090002
9400.00000001667,26.4866337200866,1.00000000135905,0.517860283232421
9500.00000001703,26.2974003776216,1.00000000139166,0.536800609831421
9600.00000001739,26.1149542491088,1.00000000133412,0.538047793579608
9700.00000001776,25.9429029832634,1.00000000124419,0.523318712082079
9800.00000001812,25.781425517015,1.00000000129446,0.533069737738984
9900.00000001848,25.6252908859099,1.00000000143639,0.542400074942747
10000.0000000188,25.4703413737324,1.00000000142636,0.537420919995693
10100.0000000192,25.3230267229342,1.00000000131231,0.535780559138674
10200.0000000196,25.1894547156122,1.00000000114336,0.531530769282502
10300.0000000199,25.0624564500306,1.00000000139501,0.536957487877107
10400.0000000203,24.9332073892846,1.00000000136857,0.545516212945406
10500.0000000207,24.8125468957682,1.00000000121849,0.52325557601865
10600.000000021,24.7066178725108,1.0000000013095,0.529953598599195
10700.0000000214,24.6041728349255,1.00000000133028,0.529676221333382
10800.0000000218,24.4957165303338,1.00000000142279,0.54754656211874
10900.0000000221,24.3811908776575,1.00000000149724,0.561023903354833
11000.0000000225,24.2683018106254,1.00000000126007,0.553896761179743
11100.0000000229,24.1623880054216,1.00000000123315,0.546236114340157
11200.0000000232,24.063409245665,1.00000000127488,0.547300533980508
11300.0000000236,23.9695413830586,1.00000000140686,0.546876219996656
11400.0000000239,23.8801024177718,1.00000000146287,0.543882219940347
11500.0000000243,23.7944516739751,1.00000000134065,0.542807756902341
11600.0000000247,23.717760549181,1.00000000129166,0.54813459020616
11700.000000025,23.6497078040624,1.00000000132032,0.553379753746928
11800.0000000254,23.5853284866757,1.000000001394,0.544039278299578
11900.0000000258,23.5190383087606,1.00000000139561,0.548272329543241
12000.0000000261,23.453485586201,1.00000000133077,0.546446499027299
12100.0000000265,23.3971512418755,1.00000000126061,0.53107658704636
12200.0000000269,23.3506635355419,1.00000000129595,0.54072952571254
12300.0000000272,23.306226933098,1.00000000139432,0.558450098440591
12400.0000000276,23.2606159446784,1.00000000127802,0.551045651619678
12500.0000000279,23.2116268798797,1.00000000131293,0.556470734242866
12600.0000000283,23.1558013817878,1.00000000144705,0.562753360824297
12700.0000000287,23.092956610863,1.00000000146313,0.577163818444455
12800.000000029,23.0226243009376,1.00000000141649,0.582480487726407
12900.0000000294,22.9502497147941,1.00000000133459,0.583991756435527
13000.0000000298,22.8835243844764,1.00000000123039,0.570670659670307
13100.0000000301,22.8262594066437,1.00000000126262,0.55741616080387
13200.0000000305,22.7754195210978,1.00000000139625,0.553589460838383
13300.0000000309,22.7308544446513,1.00000000141784,0.552103264035123
13400.0000000312,22.6899800205576,1.0000000013343,0.552183596569831
13500.0000000316,22.6544776764613,1.00000000128147,0.564486750602054
13600.0000000319,22.6256869153992,1.00000000131833,0.567337306763504
13700.0000000323,22.6002829506739,1.000000001395,0.566848464024349
13800.0000000327,22.5729456411561,1.00000000147218,0.568349295128933
13900.000000033,22.546756646309,1.00000000132187,0.559907724423526
14000.0000000334,22.52701900793,1.00000000130114,0.554024707163276
14100.0000000338,22.5122212146278,1.00000000140058,0.552143589243207
14200.0000000341,22.4988255093063,1.00000000138343,0.556174909914247
14300.0000000345,22.4873213837753,1.00000000130162,0.56353982659142
14400.0000000349,22.4785991743007,1.00000000141113,0.575770470864663
14500.0000000352,22.4702512155806,1.00000000141239,0.583324045309986
14600.0000000356,22.4562547902555,1.00000000144239,0.592864566948281
14700.0000000359,22.4387745855205,1.00000000135174,0.591984821233029
14800.0000000363,22.4198463334711,1.00000000133773,0.595931007262294
14900.0000000367,22.4006119023258,1.0000000013436,0.593632487736261
15000.000000037,22.3777129600983,1.00000000140524,0.592563442250629
15100.0000000374,22.3480564322279,1.00000000154368,0.596081952509805
15200.0000000378,22.307150645266,1.00000000152357,0.594918154286314
15300.0000000381,22.2578586963168,1.00000000151162,0.599353515636773
15400.0000000385,22.203552441625,1.00000000138747,0.604186838906387
15500.0000000389,22.1495825075461,1.00000000136368,0.601625129694802
15600.0000000392,22.1017457773381,1.00000000129199,0.592525604276862
15700.0000000396,22.0624817380351,1.00000000135387,0.584327669085761
15800.0000000399,22.0309487795249,1.00000000138813,0.583927967178186
15900.0000000403,22.0059259496427,1.00000000143409,0.584093162310305
16000.0000000407,21.9870001249864,1.00000000136603,0.579682832941099
16100.000000041,21.9731359810697,1.00000000145383,0.579824497672425
16200.0000000414,21.9626779622605,1.0000000014132,0.583550138608728
16300.0000000418,21.9590071730618,1.00000000137958,0.592577840797808
16400.0000000418,21.9586977348786,1.00000000151081,0.588583705721075
16500.0000000404,21.9577866289772,1.00000000147932,0.588022539361422
16600.0000000389,21.9583936592152,1.00000000140578,0.581678406480878
16700.0000000375,21.9615061743717,1.00000000132607,0.572734233568062
16800.000000036,21.9663775247064,1.00000000142972,0.569244043208753
16900.0000000346,21.9754771170134,1.00000000146077,0.578451150652559
17000.0000000331,21.9886663537336,1.00000000137678,0.582706858000096
17100.0000000317,22.0034661633707,1.00000000145175,0.583579592829036
17200.0000000302,22.017137487566,1.00000000148546,0.588587492513153
17300.0000000287,22.0281010067819,1.00000000143997,0.574480279258586
17400.0000000273,22.0397262069968,1.00000000154471,0.576374746793785
17500.0000000258,22.0510889853203,1.00000000136671,0.584895947878329
17600.0000000244,22.0631767787651,1.00000000142373,0.603378756447483
17700.0000000229,22.0737233597294,1.00000000147067,0.608439109909533
17800.0000000215,22.0807847515466,1.00000000147987,0.614682722284096
17900.00000002,22.0844505563981,1.00000000143787,0.623223221943382
18000.0000000186,22.0853820949331,1.00000000150923,0.618886026606365
18100.0000000171,22.0807576340957,1.00000000150346,0.619065827058728
18200.0000000156,22.0742872265782,1.00000000144063,0.629137431959397
18300.0000000142,22.0654304340622,1.0000000014389,0.634671660361189
18400.0000000127,22.0524752116708,1.00000000155562,0.641257279869588
18500.0000000113,22.0360225755824,1.00000000145413,0.637073281034265
18600.0000000098,22.0175765673216,1.00000000144172,0.630838256228256
18700.0000000084,21.9949237375439,1.00000000150991,0.630635664243884
18800.0000000069,21.967174331292,1.00000000153108,0.62964155449758
18900.0000000055,21.9338750195183,1.00000000165486,0.626639355500174
19000.000000004,21.8945481399095,1.00000000160108,0.630566634235934
19100.0000000026,21.8492977477428,1.00000000159794,0.624398832111117
19200.0000000011,21.8003480721488,1.00000000157667,0.627949944463423
19299.9999999996,21.7526691820174,1.00000000145705,0.628712384617372
19399.9999999982,21.7085815210521,1.00000000138656,0.626770595633378
19499.9999999967,21.6698340416403,1.00000000136979,0.626348929754696
19599.9999999953,21.6381325196578,1.00000000141885,0.624023870033248
19699.9999999938,21.6128934134443,1.0000000014665,0.62226634756114
19799.9999999924,21.5933350232982,1.00000000151842,0.620879082688652
19899.9999999909,21.5797468255396,1.00000000146012,0.612569858190151
19999.9999999895,21.5712817077576,1.00000000148447,0.59891720361314
20099.999999988,21.5689395648373,1.00000000148376,0.590090180753942
20199.9999999865,21.570160425538,1.00000000147748,0.592475678753255
20299.9999999851,21.5751765019776,1.00000000150835,0.596882017578917
20399.9999999836,21.5851613364633,1.00000000140047,0.597650165974943
20499.9999999822,21.5975901121635,1.00000000154253,0.61085040974061
20599.9999999807,21.6111796358999,1.00000000152091,0.607322212577045
20699.9999999793,21.62603376608,1.00000000159049,0.605746971088787
20799.9999999778,21.641877996377,1.00000000151668,0.60247306122134
20899.9999999764,21.6596447826972,1.00000000151069,0.593282689323223
20999.9999999749,21.678773721189,1.00000000144057,0.588769115562099
21099.9999999734,21.7022705191399,1.00000000146633,0.58845379310975
21199.999999972,21.7290835516584,1.00000000152567,0.594071941229829
21299.9999999705,21.7562615304852,1.00000000150521,0.59233815302296
21399.9999999691,21.7818370417104,1.0000000015026,0.59535992064636
21499.9999999676,21.8080101152142,1.00000000139967,0.592648200307121
21599.9999999662,21.8356170265086,1.00000000155515,0.596122972118658
21699.9999999647,21.8622003984138,1.00000000163451,0.595789888118379
21799.9999999633,21.8838978773688,1.00000000165561,0.60106653863348
21899.9999999618,21.9009278302023,1.00000000147426,0.600936469918392
21999.9999999603,21.9184725529399,1.00000000156416,0.615068061960496
22099.9999999589,21.9374282401391,1.00000000153081,0.629314500526104
22199.9999999574,21.9559785356346,1.0000000016131,0.629100361448932
22299.999999956,21.9713895367395,1.00000000157941,0.628877316280963
22399.9999999545,21.9832128333801,1.00000000157006,0.632496594123417
22499.9999999531,21.9928808175104,1.00000000156076,0.634325997765759
22599.9999999516,22.0036080678754,1.00000000150752,0.632011625076016
22699.9999999502,22.0158801488315,1.00000000152124,0.633200276138951
22799.9999999487,22.0287342001639,1.00000000156896,0.6371088365785
22899.9999999473,22.0411693759094,1.00000000152562,0.632470529589066
22999.9999999458,22.0497186325671,1.00000000162545,0.629211215325638
23099.9999999443,22.0540927918643,1.00000000162642,0.633935736428179
23199.9999999429,22.0576174074281,1.00000000156025,0.635092158268956
23299.9999999414,22.0587884163526,1.00000000155423,0.635405139715256
23399.99999994,22.0580038888207,1.00000000163386,0.640166670608407
23499.9999999385,22.0541816029544,1.00000000154838,0.642442177348352
23599.9999999371,22.0501909972361,1.00000000149636,0.642384707631084
23699.9999999356,22.0479080995113,1.0000000015331,0.635582181161593
23799.9999999342,22.0458091181784,1.00000000158486,0.637607720607189
23899.9999999327,22.0416423621377,1.00000000165619,0.642601546895217
23999.9999999312,22.0340448438342,1.00000000166358,0.640592421001806
24099.9999999298,22.0220410286736,1.00000000164073,0.637233000535845
24199.9999999283,22.0068637439009,1.00000000156661,0.641387722281373
24299.9999999269,21.9916097177196,1.00000000162355,0.649262508922627
24399.9999999254,21.9743454333204,1.00000000165473,0.644439720779835
24499.999999924,21.9556599586396,1.00000000153917,0.639982489156377
24599.9999999225,21.9353260436228,1.00000000167292,0.650799598797752
24699.9999999211,21.9130817723616,1.00000000155727,0.647848033070324
24799.9999999196,21.8899631395975,1.00000000156393,0.641290844046142
24899.9999999181,21.8658240953599,1.00000000162401,0.64327330494816
24999.9999999167,21.8389886990892,1.00000000165239,0.638191861098451
25099.9999999152,21.8090167310294,1.00000000175557,0.64234184430179
25199.9999999138,21.7758705576743,1.00000000172367,0.650244479304119
25299.9999999123,21.7410719128749,1.00000000162999,0.650541051010177
25399.9999999109,21.7037130742957,1.00000000168181,0.648957223901769
25499.9999999094,21.6649418193563,1.00000000167979,0.650186332717008
25599.999999908,21.6248800672353,1.00000000164546,0.652327582532325
25699.9999999065,21.5835194038268,1.00000000160424,0.651571387243204
25799.9999999051,21.5420497565144,1.00000000159606,0.644715477626046
25899.9999999036,21.5028220827576,1.00000000158782,0.635175010064892
25999.9999999021,21.4673173885986,1.00000000157378,0.628084497314301
26099.9999999007,21.4373823077791,1.00000000141156,0.61160333535554
26199.9999998992,21.4131500401787,1.00000000145814,0.612225932332137
26299.9999998978,21.3949500146325,1.00000000159741,0.614676547397616
26399.9999998963,21.3807213917618,1.00000000167521,0.618174473605527
26499.9999998949,21.3704900375096,1.00000000164266,0.620150175278362
26599.9999998934,21.3658201822443,1.00000000163174,0.613344923739467
26699.999999892,21.3667085692256,1.00000000160455,0.610105872024751
26799.9999998905,21.3726444509821,1.00000000156271,0.605199152351119
26899.999999889,21.3836031820874,1.00000000155317,0.600947167943256
26999.9999998876,21.3991473917164,1.00000000159679,0.602649539528092
27099.9999998861,21.4171925877807,1.00000000165491,0.609658080533144
27199.9999998847,21.4396932934965,1.00000000161672,0.607016786791918
27299.9999998832,21.4644680989451,1.00000000172203,0.610348298158776
27399.9999998818,21.4885963970716,1.00000000161346,0.605742034841958
27499.9999998803,21.5158938427007,1.00000000170988,0.605055328489892
27599.9999998789,21.5448041596762,1.0000000016599,0.595394984663858
27699.9999998774,21.5743712586354,1.00000000167972,0.597385375851149
27799.9999998759,21.6069459539738,1.00000000168843,0.601545062443401
27899.9999998745,21.6409518305607,1.00000000169083,0.60620055045328
27999.999999873,21.675770457287,1.00000000175843,0.597807087778336
28099.9999998716,21.7128235100555,1.00000000166397,0.601176291476714
28199.9999998701,21.7524012622263,1.00000000166213,0.600513337655585
28299.9999998687,21.7959807407943,1.00000000163259,0.605390126195919
28399.9999998672,21.8394378130513,1.00000000168749,0.605885170644553
28499.9999998658,21.881895838155,1.00000000168725,0.609133808306862
28599.9999998643,21.9248076872315,1.000000001665,0.61325026341485
28699.9999998629,21.9674085735652,1.00000000161148,0.610755209525643
28799.9999998614,22.0095374285821,1.000000001741,0.613723056634557
28899.9999998599,22.0502954441162,1.00000000172987,0.614433040140912
28999.9999998585,22.090714385543,1.00000000166788,0.615451332083332
