Time,AGPnorm,Energy,Entropy
0,0,1,-1.3914883875946e-17
99.9999999999986,2.80991790831524e-05,0.999999999997378,0.00117774327219713
199.999999999993,0.00255857171638331,0.999999999999078,0.00191926803261884
300,0.00632498657829058,0.999999999999166,0.00329806005679382
400.000000000022,0.00879145506578017,0.999999999997357,0.00568819912361941
500.000000000045,0.010509860899026,0.999999999999938,0.0076399555838608
600.000000000068,0.0150473033233366,0.999999999997794,0.0105548426924505
700.000000000091,0.0187373966534848,0.999999999998511,0.0136130669636763
800.000000000113,0.0239465519138773,0.999999999999652,0.0166455606852642
900.000000000136,0.0298832439537022,0.999999999997204,0.020497554405852
1000.00000000016,0.0344822081746817,0.999999999999618,0.0241322066912878
1100.0000000001,0.0413183369229472,0.999999999998383,0.0281703558629608
1200,0.0486372891115047,0.999999999998015,0.0326539768418799
1299.99999999991,0.055738062031625,0.999999999999883,0.0369757002669671
1399.99999999982,0.0636500635988375,0.999999999997287,0.0419172615816907
1499.99999999973,0.0711243644869952,0.99999999999917,0.0468945965407876
1599.99999999964,0.0800533885940499,0.999999999999019,0.0520267013553191
1699.99999999955,0.0895305123923418,0.999999999997635,0.0577569865532237
1799.99999999946,0.0980408804270049,0.999999999999814,0.0633659003542009
1899.99999999937,0.107346136719046,0.999999999997641,0.0694204909738718
1999.99999999928,0.117159065650017,0.999999999998713,0.0758008047603994
2099.99999999919,0.127391590478505,0.999999999999518,0.082271757257184
2199.99999999909,0.137836290121256,0.999999999997386,0.0894019457293139
2299.999999999,0.147353645630208,0.999999999999533,0.096594858678142
2399.99999999891,0.157588244507769,0.999999999998214,0.104188759169355
2499.99999999882,0.168780382781817,0.999999999998269,0.112464313084405
2599.99999999873,0.179419566720138,0.999999999999762,0.120924120916915
2699.99999999864,0.190003141710942,0.999999999997357,0.130230966143181
2799.99999999855,0.200127113939435,0.999999999999361,0.14002437576578
2899.99999999846,0.210936722142951,0.999999999999348,0.150551226248255
2999.99999999837,0.222081748805557,0.999999999999548,0.162429118600532
3099.99999999828,0.232509320712393,1.00000000000392,0.175061202622332
3199.99999999819,0.24291374275116,1.00000000000739,0.189077905450022
3299.99999999809,0.252246872054042,1.00000000001976,0.204232611040686
3399.999999998,0.265450724978165,1.00000000003592,0.220033001934655
3499.99999999791,0.275778427469642,1.00000000005769,0.23678403012417
3599.99999999782,0.288836812374767,1.00000000009169,0.253240453841089
3699.99999999773,0.311681192239843,1.00000000012244,0.269711092800988
3799.99999999764,0.331958942067031,1.00000000016663,0.28617660769553
3899.99999999755,0.378795112909384,1.00000000020808,0.301907333082025
3999.99999999746,0.440204981011074,1.00000000025255,0.317680401948073
4099.99999999738,0.525221431672448,1.00000000030808,0.332647884648887
4199.99999999775,0.670603346694035,1.00000000034104,0.34712507887553
4299.99999999811,0.848576855356141,1.00000000039042,0.361586665501325
4399.99999999848,1.10731727926076,1.00000000042078,0.375102028051079
4499.99999999884,1.45634243892707,1.00000000047682,0.388119856198421
4599.9999999992,1.8837109486942,1.00000000053249,0.40082905021829
4699.99999999957,2.45465721680272,1.00000000054542,0.4126085124775
4799.99999999993,3.14255094036981,1.00000000059626,0.424417152297632
4900.00000000029,3.97597654121711,1.00000000063976,0.435171926533976
5000.00000000066,4.99733111919266,1.00000000064894,0.445409944022465
5100.00000000102,6.1675650676788,1.00000000067591,0.455669366293797
5200.00000000139,7.54681471993156,1.00000000070758,0.464733259763679
5300.00000000175,9.13134245184779,1.00000000074607,0.473635926319989
5400.00000000211,10.9045389796789,1.00000000077632,0.482060261647096
5500.00000000248,12.9257530494647,1.00000000080596,0.489586997151625
5600.00000000284,15.1506331002038,1.00000000080386,0.497311473401482
5700.00000000321,17.6007119970557,1.00000000081501,0.504245928705476
5800.00000000357,20.3024816199075,1.00000000082476,0.510524189783357
5900.00000000393,23.2024274615684,1.00000000086876,0.51687178501016
6000.0000000043,26.3487869328817,1.00000000084076,0.522373454387264
6100.00000000466,29.7175062902572,1.00000000086986,0.5278453766396
6200.00000000502,33.2827347393413,1.00000000085685,0.53298278301996
6300.00000000539,37.0886546035715,1.00000000084137,0.537291755282886
6400.00000000575,41.0733970645435,1.00000000086072,0.541888107209071
6500.00000000612,45.2536092025742,1.00000000086003,0.54586785125378
6600.00000000648,49.6344780088694,1.00000000089514,0.549361509490765
6700.00000000684,54.1577811933387,1.00000000088469,0.553091366723291
6800.00000000721,58.865655952571,1.00000000089559,0.555932935747118
6900.00000000757,63.7122949517374,1.00000000086795,0.559120773092132
7000.00000000793,68.6795986126788,1.0000000008689,0.562056822534656
7100.0000000083,73.7944006962435,1.00000000086574,0.564206059178862
7200.00000000866,78.9910476451265,1.00000000087173,0.566593132952341
7300.00000000903,84.293699482482,1.0000000008659,0.568635635536473
7400.00000000939,89.6824525024947,1.00000000087246,0.570570519788201
7500.00000000975,95.1151875840002,1.00000000085283,0.572484099996697
7600.00000001012,100.626502631025,1.00000000084383,0.573717025234398
7700.00000001048,106.161832125843,1.00000000084354,0.575385427746911
7800.00000001084,111.722838029163,1.00000000080666,0.576784024133114
7900.00000001121,117.313194964423,1.00000000084699,0.577352112225995
8000.00000001157,122.882321529467,1.00000000080417,0.578788319660756
8100.00000001194,128.459691475554,1.0000000007838,0.579565039824618
8200.0000000123,134.0103456261,1.00000000079078,0.580278011682426
8300.00000001266,139.518208849215,1.00000000079032,0.581208750896527
8400.00000001303,145.002789361187,1.00000000080738,0.581134098488115
8500.00000001339,150.414654103249,1.00000000078088,0.582156935931629
8600.00000001376,155.775058104676,1.00000000078603,0.58218046544264
8700.00000001412,161.066844492415,1.00000000077254,0.582485759259495
8800.00000001448,166.265407908957,1.00000000074297,0.58296265317191
8900.00000001485,171.393269672783,1.0000000007219,0.582906483712988
9000.00000001521,176.415025281748,1.00000000076445,0.582952575601763
9100.00000001557,181.337086976438,1.00000000070872,0.582970404060903
9200.00000001594,186.161015508914,1.000000000713,0.58305348770665
9300.0000000163,190.855543781885,1.00000000069721,0.582574468944938
9400.00000001667,195.447008446559,1.00000000070961,0.583042516918325
9500.00000001703,199.908486193433,1.00000000069734,0.581815549933547
9600.00000001739,204.2397287255,1.00000000067935,0.582785001277375
9700.00000001776,208.45156942499,1.00000000068216,0.581592240884389
9800.00000001812,212.514147681876,1.000000000662,0.581705943530492
9900.00000001848,216.451386524057,1.00000000065677,0.581828317497264
10000.0000000188,220.246204348845,1.00000000062127,0.580724174227194
10100.0000000192,223.894523463354,1.00000000064551,0.581201530638337
10200.0000000196,227.409666409734,1.00000000064996,0.580398524608987
10300.0000000199,230.770741569313,1.00000000064645,0.580293071908321
10400.0000000203,233.993691452548,1.00000000062173,0.579852571372213
10500.0000000207,237.071433139021,1.00000000061691,0.579813582791828
10600.000000021,239.999074484063,1.00000000063219,0.57907867203899
10700.0000000214,242.788809609787,1.00000000059852,0.578554195411641
10800.0000000218,245.427112878364,1.00000000059161,0.578966921871871
10900.0000000221,247.925213661922,1.00000000058932,0.577092522474565
11000.0000000225,250.280003311768,1.00000000057323,0.57773378091373
11100.0000000229,252.488553099368,1.00000000056393,0.578023920065028
11200.0000000232,254.562302974623,1.00000000055563,0.575374917495249
11300.0000000236,256.490150917369,1.00000000056658,0.577014168088209
11400.0000000239,258.284529168295,1.00000000054288,0.576384359093561
11500.0000000243,259.944340169362,1.00000000053426,0.574198937294753
11600.0000000247,261.463619357257,1.00000000053621,0.575669920348481
11700.000000025,262.859583533509,1.00000000053586,0.574971316577612
11800.0000000254,264.121484152035,1.00000000053607,0.574607272768213
11900.0000000258,265.257540539432,1.00000000052706,0.574607751694965
12000.0000000261,266.273085168338,1.00000000049477,0.572062406529595
12100.0000000265,267.159959315972,1.00000000050581,0.574867765136853
12200.0000000269,267.937116425383,1.00000000050946,0.575733313660345
12300.0000000272,268.599978808216,1.00000000049225,0.57083078532069
12400.0000000276,269.144796518037,1.00000000046674,0.56996602552716
12500.0000000279,269.584023135601,1.00000000048191,0.575082541812152
12600.0000000283,269.921001737305,1.00000000049096,0.575538614066069
12700.0000000287,270.16384067647,1.00000000047924,0.570148997012859
12800.000000029,270.304108403973,1.00000000045258,0.565994297562464
12900.0000000294,270.344863444884,1.00000000045602,0.571471348804801
13000.0000000298,270.306300926969,1.00000000049361,0.576782537557231
13100.0000000301,270.191042862602,1.00000000048225,0.571681759695667
13200.0000000305,269.994808016995,1.00000000043518,0.561639987420048
13300.0000000309,269.707843538061,1.00000000043191,0.562216706518046
13400.0000000312,269.347114921093,1.0000000004882,0.576193732289713
13500.0000000316,268.937650047581,1.00000000051234,0.576751449882091
13600.0000000319,268.470905263522,1.0000000004621,0.562850563117846
13700.0000000323,267.931987071941,1.00000000039653,0.552304197046878
13800.0000000327,267.319433065613,1.00000000043277,0.561673673765294
13900.000000033,266.660271875939,1.00000000054231,0.579755589764885
14000.0000000334,265.97650784984,1.00000000053968,0.574221853884685
14100.0000000338,265.250786852875,1.00000000045918,0.555992888091133
14200.0000000341,264.465682835763,1.00000000038422,0.543674146865933
14300.0000000345,263.620714859766,1.00000000043018,0.555705944169149
14400.0000000349,262.744063145715,1.00000000056405,0.58087753105413
14500.0000000352,261.863044474707,1.00000000056745,0.575523816037102
14600.0000000356,260.958873909386,1.00000000047229,0.555236743881841
14700.0000000359,260.010951615381,1.00000000037389,0.534882960357687
14800.0000000363,259.010619995093,1.00000000041615,0.539209210539745
14900.0000000367,257.979923678362,1.00000000054151,0.571988516753684
15000.000000037,256.956421531395,1.00000000062612,0.584025469742138
15100.0000000374,255.932891329108,1.00000000053449,0.55993345571152
15200.0000000378,254.889190713818,1.00000000042652,0.53645318821138
15300.0000000381,253.804257730212,1.00000000035262,0.520467736445412
15400.0000000385,252.680857078551,1.00000000042925,0.540997590206889
15500.0000000389,251.553347230984,1.00000000061072,0.579292849855902
15600.0000000392,250.442342822685,1.00000000064515,0.580580172032085
15700.0000000396,249.339058762935,1.00000000050957,0.551321951729439
15800.0000000399,248.22066446185,1.00000000041447,0.525727873959571
15900.0000000403,247.068963889192,1.00000000034894,0.511883538202902
16000.0000000407,245.891314609852,1.00000000043112,0.531070812799203
16100.000000041,244.710855913206,1.00000000060444,0.573142658617759
16200.0000000414,243.549578585251,1.00000000067335,0.582810379822643
16300.0000000418,242.406243388829,1.00000000057472,0.556391379436801
16400.0000000418,241.259810863384,1.00000000044197,0.526762726070379
16500.0000000404,240.096093882704,1.00000000035361,0.508346093856333
16600.0000000389,238.907989223429,1.00000000039557,0.511789923835953
16700.0000000375,237.710279066004,1.00000000051148,0.544510922298887
16800.000000036,236.525129669168,1.00000000066108,0.577365101891977
16900.0000000346,235.360308472024,1.00000000064957,0.573917107259385
17000.0000000331,234.21062695292,1.0000000005717,0.544445790976071
17100.0000000317,233.060903242088,1.00000000043155,0.515321601177869
17200.0000000302,231.8985637588,1.00000000038619,0.50609582253809
17300.0000000287,230.724713024133,1.00000000041434,0.511608572313297
17400.0000000273,229.545292286717,1.00000000049421,0.532939009317838
17500.0000000258,228.375660444356,1.00000000059491,0.564304190615687
17600.0000000244,227.224459327786,1.00000000064605,0.571423756636208
17700.0000000229,226.089206225548,1.00000000059542,0.548960028484095
17800.0000000215,224.96203529894,1.00000000049611,0.520044306289409
17900.00000002,223.832439131759,1.0000000004347,0.509011229709275
18000.0000000186,222.69909295259,1.00000000042554,0.510810149079947
18100.0000000171,221.562575200756,1.00000000044422,0.51622774730832
18200.0000000156,220.427782052107,1.00000000050708,0.531568773437711
18300.0000000142,219.303679700397,1.00000000057451,0.553662402090821
18400.0000000127,218.194024255307,1.00000000061175,0.558254358005244
18500.0000000113,217.097554585813,1.00000000059377,0.542024189680103
18600.0000000098,216.01014738689,1.00000000051066,0.521653428688591
18700.0000000084,214.926519302737,1.00000000047542,0.512251036150206
18800.0000000069,213.845918317013,1.00000000043702,0.513205736246637
18900.0000000055,212.766486957137,1.00000000045614,0.516685140175462
19000.000000004,211.690754052851,1.0000000004865,0.521351630460061
19100.0000000026,210.622098011683,1.00000000051912,0.528814087293029
19200.0000000011,209.562531356244,1.00000000057601,0.540149681046789
19299.9999999996,208.514334206336,1.00000000059287,0.544148538901252
19399.9999999982,207.47687721676,1.00000000056231,0.537233681908594
19499.9999999967,206.448202422304,1.00000000053095,0.524785864122777
19599.9999999953,205.427250960901,1.00000000045572,0.516425125309004
19699.9999999938,204.411860622678,1.00000000044271,0.518084251012921
19799.9999999924,203.403027902451,1.00000000045669,0.521100989897255
19899.9999999909,202.399742340056,1.00000000048121,0.520377757386219
19999.9999999895,201.402921767427,1.00000000048201,0.517976229250746
20099.999999988,200.414063260075,1.00000000051948,0.520061031273192
20199.9999999865,199.433784785943,1.00000000053957,0.531431799612502
20299.9999999851,198.462700806522,1.00000000056387,0.539651634095056
20399.9999999836,197.501112069622,1.00000000053886,0.537233662366846
20499.9999999822,196.547901244327,1.00000000052464,0.528995825668506
20599.9999999807,195.603514017582,1.00000000048443,0.525445940305632
20699.9999999793,194.667174299744,1.00000000046337,0.526457818085903
20799.9999999778,193.739519135756,1.00000000047862,0.528079103998106
20899.9999999764,192.819587325116,1.00000000043734,0.520372288149456
20999.9999999749,191.907160323902,1.00000000044469,0.513051052329196
21099.9999999734,191.003077449403,1.00000000046891,0.512290308449812
21199.999999972,190.107329884594,1.00000000049549,0.519316425981798
21299.9999999705,189.219929046984,1.00000000052548,0.528391210741783
21399.9999999691,188.341002899123,1.00000000053923,0.537804442879559
21499.9999999676,187.469969252591,1.00000000052269,0.539947275305171
21599.9999999662,186.607282728896,1.00000000050053,0.535025011879127
21699.9999999647,185.752741541462,1.00000000051416,0.532715822124889
21799.9999999633,184.906687877117,1.00000000051195,0.537685301833526
21899.9999999618,184.069429857285,1.00000000051164,0.53527711546423
21999.9999999603,183.241381038193,1.00000000043722,0.524614531222213
22099.9999999589,182.423375958161,1.00000000040871,0.511008753851164
22199.9999999574,181.615111912835,1.00000000041965,0.503644962868533
22299.999999956,180.816434997606,1.00000000047721,0.507713847637308
22399.9999999545,180.02670110177,1.00000000051854,0.515545637841483
22499.9999999531,179.244716924696,1.00000000054203,0.52581904453703
22599.9999999516,178.46951511753,1.00000000052045,0.533621779702088
22699.9999999502,177.701256162068,1.00000000051262,0.539812978397687
22799.9999999487,176.940048178665,1.00000000049917,0.538636810290079
22899.9999999473,176.18621109359,1.00000000051399,0.535169148826686
22999.9999999458,175.438957383101,1.00000000054082,0.543527007338199
23099.9999999443,174.698642941949,1.00000000054528,0.544486325951164
23199.9999999429,173.966409556864,1.00000000048703,0.533924596451351
23299.9999999414,173.244632043802,1.00000000042219,0.51869287382098
23399.99999994,172.53513498758,1.00000000038565,0.50191317516075
23499.9999999385,171.838462869682,1.00000000038091,0.492717526966281
23599.9999999371,171.153216156723,1.00000000047382,0.498701575778399
23699.9999999356,170.476913886168,1.00000000051808,0.51129732600537
23799.9999999342,169.806828814215,1.00000000055185,0.521367163981321
23899.9999999327,169.14171711305,1.00000000054921,0.52216552276696
23999.9999999312,168.4816002723,1.00000000052076,0.528650701410617
24099.9999999298,167.827032989713,1.00000000050532,0.53755382255167
24199.9999999283,167.178269253647,1.00000000049765,0.538285979033235
24299.9999999269,166.534433898739,1.00000000050632,0.539061894690535
24399.9999999254,165.894499495004,1.00000000057231,0.548104065117656
24499.999999924,165.258397398185,1.00000000054284,0.548172293603847
24599.9999999225,164.628725208494,1.0000000005111,0.534321992369713
24699.9999999211,164.008676615285,1.00000000045054,0.517898428306986
24799.9999999196,163.402031030598,1.00000000038309,0.502054963107804
24899.9999999181,162.810416040647,1.00000000037865,0.491090235004565
24999.9999999167,162.233002994286,1.00000000040878,0.487608724562209
25099.9999999152,161.666604339778,1.00000000048778,0.497019296039155
25199.9999999138,161.10715479286,1.00000000055007,0.508900307559897
25299.9999999123,160.55177699616,1.00000000055592,0.517901308711903
25399.9999999109,159.999357400289,1.00000000054241,0.514842824669248
25499.9999999094,159.45020169008,1.00000000051719,0.5172918131684
25599.999999908,158.904299251048,1.00000000049886,0.529568638376347
25699.9999999065,158.361642792415,1.00000000052117,0.540260216074511
25799.9999999051,157.821348075312,1.00000000055507,0.541755719457305
25899.9999999036,157.283142518456,1.00000000055106,0.54001356538872
25999.9999999021,156.747201528334,1.00000000055844,0.543135798740853
26099.9999999007,156.213780939703,1.00000000054128,0.542816820177464
26199.9999998992,155.685786951164,1.00000000051307,0.530558727617539
26299.9999998978,155.16681709273,1.00000000046156,0.51535432654506
26399.9999998963,154.660230216005,1.00000000041694,0.504599839851727
26499.9999998949,154.168441914253,1.00000000039666,0.497058673567469
26599.9999998934,153.691475735983,1.00000000042125,0.492692239020476
26699.999999892,153.22687290612,1.00000000044348,0.492448605381837
26799.9999998905,152.772205516068,1.00000000048899,0.496331718802931
26899.999999889,152.323733696508,1.00000000052532,0.504144562325924
26999.9999998876,151.87902571816,1.00000000054544,0.511645070853248
27099.9999998861,151.436097788636,1.00000000054716,0.516876011310218
27199.9999998847,150.993729593061,1.00000000053906,0.517756071939538
27299.9999998832,150.550998601054,1.00000000053679,0.52541993057074
27399.9999998818,150.108530500309,1.00000000051364,0.533618038389394
27499.9999998803,149.666354263494,1.00000000054173,0.540393134533267
27599.9999998789,149.224513886251,1.00000000052919,0.541369341692307
27699.9999998774,148.784094863113,1.00000000053202,0.535264687282764
27799.9999998759,148.346450215581,1.00000000051534,0.534293016957941
27899.9999998745,147.911497450118,1.00000000053991,0.535021791998821
27999.999999873,147.480650195635,1.00000000050562,0.528267672090746
28099.9999998716,147.056911402987,1.00000000049123,0.521890851397754
28199.9999998701,146.641509229075,1.00000000047055,0.51572286777673
28299.9999998687,146.236958553241,1.00000000043493,0.508261015654619
28399.9999998672,145.845230334556,1.00000000042498,0.503827270360704
28499.9999998658,145.466404255141,1.00000000044036,0.500185393747575
28599.9999998643,145.100286940905,1.00000000044161,0.494796928273273
28699.9999998629,144.74457096013,1.00000000045516,0.495619879748
28799.9999998614,144.397701512029,1.00000000047507,0.500803205526793
28899.9999998599,144.05555984112,1.00000000051015,0.511369545962443
