Time,AGPnorm,Energy,Entropy
0,0,1,-1.17125281545732e-17
99.9999999999986,2.62101048161523e-05,1.00000000000151,0.00110879568440243
199.999999999993,0.00222996380058496,1.00000000000092,0.00172932538015397
300,0.00571102737151267,1.00000000000038,0.00309186265714504
400.000000000022,0.00782953468189165,1.00000000000181,0.00525094166661462
500.000000000045,0.00946477202641364,1.00000000000008,0.0070488642325004
600.000000000068,0.013685534252067,1.00000000000131,0.00984829999287623
700.000000000091,0.0170490749700355,1.00000000000115,0.0125328527252679
800.000000000113,0.0218195513323828,1.00000000000024,0.0154961519920567
900.000000000136,0.027067331363066,1.0000000000018,0.0190333106291503
1000.00000000016,0.0315924976067716,1.00000000000021,0.0223306302885421
1100.0000000001,0.0379568297981535,1.00000000000114,0.026251058672398
1200,0.044327303703756,1.00000000000134,0.0302318807436579
1299.99999999991,0.050904926254906,1.00000000000012,0.034362980307446
1399.99999999982,0.0582577531191314,1.00000000000174,0.0389614353635833
1499.99999999973,0.0655731041300085,1.0000000000004,0.0434334181925949
1599.99999999964,0.073788316930997,1.00000000000095,0.0483936703127865
1699.99999999955,0.0820033363031176,1.00000000000147,0.0535140968383944
1799.99999999946,0.0900999781389545,1.00000000000005,0.0587443804546104
1899.99999999937,0.0990540212230211,1.00000000000169,0.0644234662550131
1999.99999999928,0.108401005398637,1.00000000000061,0.0701111542387883
2099.99999999919,0.117765158030731,1.00000000000071,0.0762363339079923
2199.99999999909,0.127135232776283,1.00000000000154,0.0826147928969657
2299.999999999,0.136499308196894,1.00000000000009,0.0891457004192459
2399.99999999891,0.146451048528676,1.00000000000165,0.096210319823328
2499.99999999882,0.156732427581283,1.00000000000081,0.103455905481361
2599.99999999873,0.166525084077116,1.00000000000044,0.111180758087301
2699.99999999864,0.176518384377162,1.00000000000159,0.119364827430184
2799.99999999855,0.18676623976347,1.0000000000003,0.127896750725379
2899.99999999846,0.19712056821192,1.00000000000165,0.137254927141502
2999.99999999837,0.207316252926344,1.00000000000136,0.147162140920303
3099.99999999828,0.217103082147619,1.00000000000133,0.157899252149074
3199.99999999819,0.227264251439911,1.00000000000434,0.16974878386484
3299.99999999809,0.237343243850265,1.0000000000068,0.182525664849159
3399.999999998,0.248399036399092,1.00000000001482,0.19656549563265
3499.99999999791,0.257248055279943,1.00000000002645,0.211416027762319
3599.99999999782,0.267963651430627,1.00000000004435,0.226771622858229
3699.99999999773,0.282343163816165,1.00000000006515,0.242743949050128
3799.99999999764,0.293494280983328,1.00000000009176,0.258539667792634
3899.99999999755,0.319231171901631,1.00000000012753,0.274340952062076
3999.99999999746,0.346563110748468,1.00000000016136,0.289797133172028
4099.99999999738,0.390475472733513,1.00000000019891,0.304747486730152
4199.99999999775,0.466658071934216,1.00000000024202,0.319638124630892
4299.99999999811,0.557329091156325,1.00000000028633,0.333909241608431
4399.99999999848,0.707315804546867,1.00000000032884,0.347798847619167
4499.99999999884,0.904719495441414,1.00000000037541,0.361185647098807
4599.9999999992,1.16625533068787,1.00000000038839,0.374244023445158
4699.99999999957,1.52859907299822,1.00000000045564,0.386745511642487
4799.99999999993,1.96897328328249,1.00000000046151,0.398771488542439
4900.00000000029,2.54021451855991,1.0000000005283,0.410038346984821
5000.00000000066,3.24016334035724,1.00000000054861,0.421104902790604
5100.00000000102,4.07635903551087,1.00000000057704,0.431633536094248
5200.00000000139,5.09148779928867,1.00000000060229,0.441710634806475
5300.00000000175,6.26475111522148,1.00000000061514,0.451232946046881
5400.00000000211,7.63501105905927,1.00000000066034,0.460205410138571
5500.00000000248,9.20440604442241,1.00000000067183,0.46885986786402
5600.00000000284,10.9732780298482,1.00000000071875,0.47685630342105
5700.00000000321,12.9708099256053,1.00000000069874,0.484667050747122
5800.00000000357,15.1792277120525,1.00000000076324,0.491638475855443
5900.00000000393,17.6196246795671,1.00000000077172,0.498615573024041
6000.0000000043,20.2873758949769,1.00000000076316,0.505179247739238
6100.00000000466,23.1816926706836,1.00000000076362,0.51112637576698
6200.00000000502,26.312389342756,1.00000000078932,0.516788475500569
6300.00000000539,29.6593194086134,1.00000000080635,0.522019816359767
6400.00000000575,33.2365898811604,1.00000000079045,0.527092879978246
6500.00000000612,37.0244777805843,1.00000000078489,0.531920355026916
6600.00000000648,41.0234943560369,1.00000000081262,0.535970836257719
6700.00000000684,45.2303366478388,1.00000000078804,0.540230661182062
6800.00000000721,49.6172698923994,1.00000000082175,0.543986625419045
6900.00000000757,54.2002823969836,1.00000000076223,0.54756304278523
7000.00000000793,58.9469436301711,1.00000000082472,0.550796627290198
7100.0000000083,63.8550218099855,1.00000000081966,0.553591002177296
7200.00000000866,68.9215459926759,1.00000000078741,0.556516504513832
7300.00000000903,74.1074314246578,1.0000000008355,0.559296587567021
7400.00000000939,79.4332441344937,1.00000000078497,0.561503595362457
7500.00000000975,84.862673561389,1.00000000079917,0.56372414256184
7600.00000001012,90.3858704027644,1.00000000081264,0.565643620987012
7700.00000001048,96.0082965144335,1.00000000079464,0.567514283719829
7800.00000001084,101.682249402678,1.00000000076825,0.569561213485916
7900.00000001121,107.430631591249,1.00000000078827,0.570529674929889
8000.00000001157,113.221759641794,1.00000000074657,0.572316075878981
8100.00000001194,119.035687223695,1.00000000078584,0.573512059494747
8200.0000000123,124.88842669363,1.00000000077018,0.574568678624588
8300.00000001266,130.73059590724,1.00000000075464,0.575676483247198
8400.00000001303,136.582150085955,1.00000000073081,0.576431564752509
8500.00000001339,142.422323401362,1.00000000074666,0.577242107274138
8600.00000001376,148.222395951054,1.00000000073496,0.578248422983615
8700.00000001412,154.006525093616,1.00000000071968,0.578249186300444
8800.00000001448,159.72938855144,1.00000000071367,0.579119449951313
8900.00000001485,165.403570982613,1.00000000072433,0.579043482800655
9000.00000001521,171.021498715328,1.00000000072323,0.579491114157385
9100.00000001557,176.55073363113,1.00000000068779,0.579961653472571
9200.00000001594,182.016249770141,1.00000000067256,0.579992923279054
9300.0000000163,187.384414040252,1.00000000068406,0.580046377931167
9400.00000001667,192.657347811752,1.00000000065622,0.580544225610957
9500.00000001703,197.841609510651,1.00000000066956,0.580070494247196
9600.00000001739,202.900274253886,1.00000000066284,0.580098986023879
9700.00000001776,207.861291065882,1.00000000068157,0.580170869171776
9800.00000001812,212.698187707388,1.00000000063364,0.579336672226752
9900.00000001848,217.409012702923,1.00000000064362,0.580379690497546
10000.0000000188,222.006799002321,1.00000000062381,0.578969484660647
10100.0000000192,226.457251819791,1.00000000062865,0.579262376953881
10200.0000000196,230.787182231681,1.00000000061962,0.579479411325709
10300.0000000199,234.978613434048,1.00000000060178,0.578040294940919
10400.0000000203,239.024788881383,1.00000000059863,0.57915556472542
10500.0000000207,242.943701713648,1.00000000059489,0.578259352452052
10600.000000021,246.706835652419,1.00000000057937,0.577604565694554
10700.0000000214,250.334274899226,1.00000000058581,0.578039537093702
10800.0000000218,253.819412976933,1.00000000055241,0.576945387158189
10900.0000000221,257.150362688282,1.00000000057652,0.576589475582754
11000.0000000225,260.346232700391,1.00000000057468,0.576473518167951
11100.0000000229,263.387312267934,1.00000000054473,0.575972442649781
11200.0000000232,266.286548118032,1.00000000054008,0.575411371621268
11300.0000000236,269.042881723194,1.000000000549,0.575408074448915
11400.0000000239,271.647967187848,1.00000000053463,0.574858647417307
11500.0000000243,274.116150644212,1.00000000053073,0.573906638955883
11600.0000000247,276.435369120251,1.00000000052226,0.574649388478088
11700.000000025,278.616555203306,1.00000000051413,0.573307429594071
11800.0000000254,280.659980261586,1.0000000004977,0.572459272018329
11900.0000000258,282.557999857564,1.0000000005066,0.573312099965685
12000.0000000261,284.327399853086,1.00000000049352,0.57266182741844
12100.0000000265,285.957221914131,1.00000000049468,0.571750779004713
12200.0000000269,287.454969778133,1.00000000047645,0.571485331470996
12300.0000000272,288.826562699967,1.000000000475,0.571349563024235
12400.0000000276,290.06427646682,1.00000000046979,0.572462444632427
12500.0000000279,291.184196193953,1.00000000046308,0.570659268424564
12600.0000000283,292.178465140389,1.00000000045324,0.568197570062726
12700.0000000287,293.049538343701,1.00000000046448,0.570367189555768
12800.000000029,293.81002148101,1.00000000045523,0.572978986181932
12900.0000000294,294.455723379431,1.00000000045484,0.570798277907955
13000.0000000298,294.994701029232,1.00000000042753,0.566168895165346
13100.0000000301,295.419780468881,1.00000000043225,0.566522635620384
13200.0000000305,295.740104001889,1.00000000044113,0.572719467880984
13300.0000000309,295.972318509949,1.00000000044088,0.572828893024764
13400.0000000312,296.109287900387,1.00000000043859,0.566028045806288
13500.0000000316,296.149933235231,1.00000000040307,0.560548313544924
13600.0000000319,296.092817829701,1.00000000041458,0.566635721801903
13700.0000000323,295.956028714274,1.00000000046307,0.574822414205461
13800.0000000327,295.756906827322,1.00000000045233,0.571292298088061
13900.000000033,295.481360621964,1.00000000041715,0.559622908680003
14000.0000000334,295.121592829356,1.00000000038542,0.554150606129924
14100.0000000338,294.68138735322,1.00000000042009,0.564781765929699
14200.0000000341,294.185121415736,1.00000000048651,0.577272172004664
14300.0000000345,293.652560596573,1.00000000046598,0.570984404809762
14400.0000000349,293.062338904698,1.00000000040391,0.554380531966312
14500.0000000352,292.401861236848,1.00000000034584,0.544954178786049
14600.0000000356,291.672289987863,1.00000000041011,0.557718371878839
14700.0000000359,290.901479189741,1.00000000050368,0.577781904116717
14800.0000000363,290.116321546984,1.00000000051145,0.574755395315563
14900.0000000367,289.298656709723,1.00000000043788,0.555280196644809
15000.000000037,288.429169992093,1.00000000034221,0.536906169497658
15100.0000000374,287.496487740582,1.0000000003674,0.540456792522677
15200.0000000378,286.523325580856,1.00000000045688,0.567246841748414
15300.0000000381,285.545143263986,1.00000000055184,0.582625456136386
15400.0000000385,284.563956335734,1.00000000048485,0.56571415156802
15500.0000000389,283.558986900005,1.00000000040363,0.5408468988
15600.0000000392,282.507756631709,1.00000000031911,0.523649224509611
15700.0000000396,281.405641890642,1.00000000037413,0.534287586211637
15800.0000000399,280.28434326144,1.00000000049104,0.569298252214801
15900.0000000403,279.169463815748,1.00000000059812,0.583249324036357
16000.0000000407,278.066779359078,1.00000000053132,0.564243969392534
16100.000000041,276.951952019715,1.00000000039652,0.533437493911396
16200.0000000414,275.800115250162,1.00000000032459,0.513203385483789
16300.0000000418,274.608538677489,1.00000000035139,0.518244172863984
16400.0000000418,273.396374228281,1.00000000049733,0.556633207944283
16500.0000000404,272.194875719222,1.00000000060234,0.583917979715491
16600.0000000389,271.016012167079,1.00000000058169,0.57375348896012
16700.0000000375,269.842249315589,1.00000000045354,0.541722110083771
16800.000000036,268.653638933244,1.00000000034363,0.512735597161551
16900.0000000346,267.432081256982,1.00000000031699,0.502544842279443
17000.0000000331,266.185409515269,1.00000000038156,0.522010110669127
17100.0000000317,264.935763547609,1.00000000051873,0.56156613264822
17200.0000000302,263.703574792589,1.00000000060704,0.583120808199278
17300.0000000287,262.495761624157,1.00000000059804,0.568096699282259
17400.0000000273,261.297154452255,1.00000000047119,0.534142696151914
17500.0000000258,260.08905064413,1.00000000036362,0.506384470505739
17600.0000000244,258.860919832736,1.00000000032318,0.498392244474328
17700.0000000229,257.613447119581,1.00000000036863,0.511390754627666
17800.0000000215,256.363618316239,1.00000000048759,0.544493114654506
17900.00000002,255.127295284249,1.00000000058498,0.573538406869393
18000.0000000186,253.912497240918,1.00000000060844,0.573523285337619
18100.0000000171,252.716330274131,1.0000000005435,0.546740190574636
18200.0000000156,251.523534189752,1.00000000042121,0.514625627532286
18300.0000000142,250.324345273054,1.00000000034766,0.498503165159098
18400.0000000127,249.113294859758,1.00000000036115,0.500145115138562
18500.0000000113,247.894843132666,1.00000000040117,0.514087606516662
18600.0000000098,246.679250630277,1.00000000048261,0.537263370956606
18700.0000000084,245.475414238189,1.00000000055395,0.561166624367228
18800.0000000069,244.289802562449,1.0000000005933,0.566258969624065
18900.0000000055,243.121101254917,1.00000000055024,0.545689318291532
19000.000000004,241.960157765451,1.00000000044916,0.518745957039887
19100.0000000026,240.801003542519,1.00000000039073,0.501848350685956
19200.0000000011,239.638385600446,1.00000000037167,0.50130884434258
19299.9999999996,238.474738720551,1.00000000040281,0.508246816582379
19399.9999999982,237.312188311035,1.00000000042559,0.517746828404426
19499.9999999967,236.155486251177,1.00000000048778,0.532590293778694
19599.9999999953,235.01071314226,1.00000000055491,0.548566441550202
19699.9999999938,233.879823098738,1.00000000058448,0.551938444277604
19799.9999999924,232.761471781665,1.00000000050947,0.538641894446334
19899.9999999909,231.652644720306,1.00000000047957,0.520969033192894
19999.9999999895,230.548745309812,1.00000000041705,0.507431683218018
20099.999999988,229.449321852624,1.00000000039968,0.506835179878178
20199.9999999865,228.352683241016,1.00000000039779,0.509991901019097
20299.9999999851,227.260637616515,1.00000000042208,0.513416815594037
20399.9999999836,226.174164082534,1.00000000045115,0.517792380583049
20499.9999999822,225.095002139263,1.00000000047609,0.525475312172636
20599.9999999807,224.026039070312,1.00000000052748,0.534842979068754
20699.9999999793,222.96766185057,1.00000000052223,0.538900251713776
20799.9999999778,221.919186155709,1.00000000051694,0.535890491848853
20899.9999999764,220.88004818491,1.00000000047529,0.524945618722008
20999.9999999749,219.848423112027,1.00000000044784,0.517797244504817
21099.9999999734,218.824628497897,1.00000000043187,0.515733242857579
21199.999999972,217.807633906832,1.00000000042193,0.515660663991735
21299.9999999705,216.797808188197,1.00000000042391,0.514589205939066
21399.9999999691,215.794786910769,1.00000000040649,0.513722556930572
21499.9999999676,214.79871692054,1.00000000044883,0.513160955494846
21599.9999999662,213.810964096877,1.00000000044027,0.516232890169137
21699.9999999647,212.83196769798,1.00000000048877,0.523688101226553
21799.9999999633,211.861557824712,1.00000000049504,0.532924955707177
21899.9999999618,210.900115745159,1.00000000049125,0.536119606268984
21999.9999999603,209.946961123704,1.00000000047196,0.532118756303172
22099.9999999589,209.002232762089,1.00000000046134,0.526862010863078
22199.9999999574,208.065913843501,1.00000000044607,0.525221990133655
22299.999999956,207.138269324117,1.00000000043492,0.526732709137447
22399.9999999545,206.219552789778,1.00000000042335,0.525020821518209
22499.9999999531,205.309304134,1.00000000039573,0.51510379552486
22599.9999999516,204.408113703199,1.00000000039104,0.506685495174171
22699.9999999502,203.515598996978,1.00000000040946,0.503025473211513
22799.9999999487,202.631884554676,1.00000000044295,0.509632236024093
22899.9999999473,201.756852869006,1.00000000046417,0.516440335462089
22999.9999999458,200.889668446409,1.00000000050483,0.526940524858554
23099.9999999443,200.029666313088,1.00000000050074,0.534620369100592
23199.9999999429,199.177351556149,1.00000000045556,0.535517522748483
23299.9999999414,198.332771052409,1.00000000045301,0.531787712282679
23399.99999994,197.496189564915,1.0000000004464,0.529391138837438
23499.9999999385,196.667144994857,1.00000000049417,0.537512374929667
23599.9999999371,195.846103979932,1.00000000046723,0.536864443361128
23699.9999999356,195.033675824386,1.00000000045173,0.528605054137303
23799.9999999342,194.231311117493,1.00000000039479,0.514063739668501
23899.9999999327,193.440336750445,1.00000000034282,0.49825854244465
23999.9999999312,192.660985908417,1.00000000036241,0.491037384816387
24099.9999999298,191.892410948692,1.00000000043151,0.497183403564861
24199.9999999283,191.132703279783,1.00000000046276,0.508113780518187
24299.9999999269,190.379888313559,1.00000000051232,0.519685805061617
24399.9999999254,189.632575819209,1.00000000050421,0.523096619096651
24499.999999924,188.890808910451,1.00000000048482,0.526851699913814
24599.9999999225,188.155298877708,1.00000000046082,0.533549459622802
24699.9999999211,187.426825211639,1.00000000043818,0.53200046096116
24799.9999999196,186.704853303858,1.00000000047517,0.532404978389189
24899.9999999181,185.988306459476,1.00000000051136,0.542118304094928
24999.9999999167,185.276495777239,1.0000000005143,0.546942084687054
25099.9999999152,184.571048206083,1.00000000047626,0.535879593446147
25199.9999999138,183.874391335091,1.00000000042477,0.520065287931682
25299.9999999123,183.189807267666,1.00000000036222,0.502161631700486
25399.9999999109,182.519802271553,1.00000000032862,0.487951938805714
25499.9999999094,181.863921366639,1.00000000035645,0.482711335473611
25599.999999908,181.220394279497,1.00000000041711,0.488920107378238
25699.9999999065,180.58526967053,1.00000000048323,0.50195192110353
25799.9999999051,179.955513541754,1.00000000051164,0.514189379772688
25899.9999999036,179.328867574357,1.00000000052351,0.516892241996276
25999.9999999021,178.705442943161,1.00000000049483,0.515595781153315
26099.9999999007,178.086182186168,1.00000000045185,0.522237122776944
26199.9999998992,177.471915810526,1.00000000045064,0.531082894197893
26299.9999998978,176.862452738738,1.00000000047036,0.534704927889038
26399.9999998963,176.256612604882,1.00000000048232,0.535492047257368
26499.9999998949,175.65359618719,1.00000000050891,0.539492053732207
26599.9999998934,175.052908849217,1.00000000054333,0.545504189957708
26699.999999892,174.455830393122,1.00000000050064,0.537660619036218
26799.9999998905,173.865701435034,1.00000000044267,0.521159812526329
26899.999999889,173.286247049922,1.00000000039561,0.506202938128354
26999.9999998876,172.720423836511,1.00000000034607,0.494295339466795
27099.9999998861,172.170590785935,1.00000000035082,0.484717123925638
27199.9999998847,171.635451953481,1.00000000037298,0.48384737157092
27299.9999998832,171.112222296684,1.00000000042039,0.486514477877388
27399.9999998818,170.597124864933,1.00000000047696,0.496073519729815
27499.9999998803,170.086938120884,1.00000000049798,0.504445718737738
27599.9999998789,169.579274571576,1.00000000051168,0.511800855040205
27699.9999998774,169.07298538508,1.00000000050239,0.51207881884369
27799.9999998759,168.567636977949,1.00000000049984,0.514936926257144
27899.9999998745,168.063661523019,1.00000000047881,0.522715866683786
27999.999999873,167.561853150171,1.00000000047472,0.530625294480136
28099.9999998716,167.062004470603,1.00000000047158,0.536048790672165
28199.9999998701,166.563610095972,1.00000000048586,0.535839026953164
28299.9999998687,166.067161372707,1.00000000048929,0.532468027833021
28399.9999998672,165.572832767601,1.00000000050516,0.535457252888394
28499.9999998658,165.080614968196,1.00000000051084,0.534839070647552
28599.9999998643,164.592798249036,1.00000000045375,0.525025714814248
28699.9999998629,164.112208905771,1.00000000044437,0.515943486214825
28799.9999998614,163.641016912683,1.00000000041457,0.506385698771883
28899.9999998599,163.182114114628,1.00000000039719,0.499890961157294
