Time,AGPnorm,Energy,Entropy
0,0,1,-2.82969341170321e-18
99.9999999999986,0.00315772131768229,0.999999999997381,0.0106060109922644
199.999999999993,0.00908690098446771,1.00000000000005,0.0308228068536434
300,0.0192878230824016,0.999999999997685,0.0603229531088182
400.000000000022,0.030191269731542,1.00000000000012,0.0967492864103451
500.000000000045,0.0427587378932692,0.999999999999513,0.143244154630204
600.000000000068,0.0564795878044472,1.00000000001629,0.202529340593575
700.000000000091,0.0700470653655102,1.00000000011106,0.279400054229089
800.000000000113,0.140506320928625,1.00000000033701,0.362862744212693
900.000000000136,0.374981163248623,1.00000000067881,0.435422553611795
1000.00000000016,1.0788444781908,1.00000000101465,0.487408917807296
1100.0000000001,2.44495203763418,1.00000000111338,0.522375670020255
1200,4.67120728971221,1.00000000121739,0.541862806679695
1299.99999999991,7.68641791200654,1.00000000129224,0.553728140634016
1399.99999999982,11.4049499901623,1.00000000126254,0.556475812950908
1499.99999999973,15.5500900398603,1.00000000129162,0.556162905890105
1599.99999999964,19.939584445555,1.00000000121452,0.553252319954221
1699.99999999955,24.293382543888,1.00000000120831,0.547418319384831
1799.99999999946,28.4680746952492,1.00000000111629,0.538570384055185
1899.99999999937,32.2688524234734,1.00000000110511,0.533819697841473
1999.99999999928,35.630607596123,1.00000000100451,0.523282664785665
2099.99999999919,38.4507841447953,1.00000000099792,0.516385225285474
2199.99999999909,40.7446735940173,1.00000000091728,0.519782879016651
2299.999999999,42.4779319702905,1.00000000082244,0.489091854273023
2399.99999999891,43.6751406295629,1.00000000080041,0.51298238484069
2499.99999999882,44.48120224665,1.00000000078543,0.517675039280252
2599.99999999873,44.8088985552273,1.00000000056217,0.448946283020089
2699.99999999864,44.7175605029573,1.00000000078169,0.508757085449126
2799.99999999855,44.5035539516262,1.00000000102314,0.550048872450133
2899.99999999846,44.1042048072865,1.00000000054686,0.43876347511034
2999.99999999837,43.3480987497818,1.00000000046005,0.40766151650004
3099.99999999828,42.4886303246062,1.00000000091478,0.535696787879603
3199.99999999819,41.7435358951844,1.00000000116449,0.565520350469714
3299.99999999809,41.0069299457854,1.00000000066325,0.444225806896793
3399.999999998,40.0857198451714,1.00000000028471,0.31329548631525
3499.99999999791,39.0637945617591,1.0000000006677,0.434925708846959
3599.99999999782,38.091068059243,1.00000000110443,0.53664435158548
3699.99999999773,37.2487662700216,1.00000000116212,0.562803613347986
3799.99999999764,36.4926991933093,1.00000000086048,0.503559903798897
3899.99999999755,35.6964981802202,1.00000000043818,0.34541421005463
3999.99999999746,34.8592626377693,1.00000000032192,0.292703816653384
4099.99999999738,34.0455418320382,1.00000000064898,0.416044726264464
4199.99999999775,33.2502777517273,1.00000000093469,0.517791204164843
4299.99999999811,32.484155185759,1.00000000102438,0.504469589629653
4399.99999999848,31.769244818454,1.0000000011041,0.539412063334385
4499.99999999884,31.1144767754355,1.00000000100821,0.557900654448956
4599.9999999992,30.4832432822434,1.00000000061271,0.457133117829162
4699.99999999957,29.8684645027819,1.00000000029301,0.316227282328623
4799.99999999993,29.3373257176705,1.00000000036799,0.289394506871184
4900.00000000029,28.9027659680867,1.00000000059358,0.382769923121297
5000.00000000066,28.4822137946963,1.00000000092754,0.483167913984922
5100.00000000102,28.0174932948977,1.00000000104841,0.543663169266371
5200.00000000139,27.541645072563,1.00000000065349,0.509948083198633
5300.00000000175,27.0839910713723,1.00000000072703,0.453019370616952
5400.00000000211,26.6198463031838,1.00000000107034,0.490178246479817
5500.00000000248,26.1419407177246,1.00000000114447,0.549908397964393
5600.00000000284,25.6798526744856,1.00000000103038,0.568728397169509
5700.00000000321,25.238956867151,1.00000000072006,0.515060847075425
5800.00000000357,24.8282788176598,1.00000000044472,0.39977683200517
5900.00000000393,24.511799955715,1.00000000028524,0.304573423481719
6000.0000000043,24.3549467014153,1.00000000035699,0.28585936963622
6100.00000000466,24.3319251646236,1.00000000060477,0.356442683929638
6200.00000000502,24.3449723206372,1.00000000083946,0.449551460924082
6300.00000000539,24.3176424824678,1.00000000087544,0.509894777602696
6400.00000000575,24.2232431363412,1.00000000085811,0.518204871419249
6500.00000000612,24.0618716771969,1.00000000087541,0.521746121719067
6600.00000000648,23.8438420584906,1.00000000091574,0.543135407287166
6700.00000000684,23.6048305207093,1.00000000073113,0.529252739167125
6800.00000000721,23.3840142442074,1.00000000061646,0.493968303194703
6900.00000000757,23.1833187069901,1.00000000062712,0.492685305343173
7000.00000000793,22.9742562165275,1.00000000082087,0.513434291006323
7100.0000000083,22.7417470219486,1.00000000078274,0.511045166056172
7200.00000000866,22.4835469005252,1.00000000095298,0.515876198804558
7300.00000000903,22.1987352041783,1.00000000117143,0.540173917970284
7400.00000000939,21.9050969602083,1.00000000115707,0.56801024578856
7500.00000000975,21.6179925859774,1.00000000098557,0.56879363565997
7600.00000001012,21.3388090910565,1.00000000070026,0.523936993075388
7700.00000001048,21.0826614255524,1.00000000048337,0.440051962779645
7800.00000001084,20.9034807179198,1.00000000034381,0.356111729693741
7900.00000001121,20.8708417242757,1.00000000028756,0.306733324798085
8000.00000001157,21.0273659808297,1.00000000037218,0.298253799969746
8100.00000001194,21.345688520789,1.00000000056674,0.343791412790092
8200.0000000123,21.7435636503585,1.00000000078679,0.406158386850462
8300.00000001266,22.1273589549205,1.0000000009146,0.46458258958269
8400.00000001303,22.4318737037148,1.00000000094147,0.510640758755705
8500.00000001339,22.657022693543,1.00000000083064,0.525605937652233
8600.00000001376,22.8132236898969,1.00000000088634,0.537027572844212
8700.00000001412,22.9003753791228,1.00000000088235,0.562451403450972
8800.00000001448,22.9267502894179,1.0000000008713,0.561413823784731
8900.00000001485,22.9158437042021,1.00000000073911,0.54090076398852
9000.00000001521,22.8775143583586,1.00000000074499,0.528229555975601
9100.00000001557,22.8073574057073,1.00000000084184,0.528306234903295
9200.00000001594,22.6994120932891,1.00000000095447,0.538452664617668
9300.0000000163,22.5721187484052,1.00000000081545,0.538049313212786
9400.00000001667,22.4560097959257,1.00000000056754,0.51907695472456
9500.00000001703,22.3616625189612,1.00000000064276,0.506040627565089
9600.00000001739,22.2718610037537,1.00000000081942,0.508166107074805
9700.00000001776,22.1777373145689,1.00000000079388,0.513971694094652
9800.00000001812,22.0811271459173,1.00000000074205,0.51678886602794
9900.00000001848,21.9830183826613,1.0000000008116,0.523914333220907
10000.0000000188,21.8796601544211,1.00000000085104,0.531632851232025
10100.0000000192,21.7612728174675,1.0000000007998,0.546826316475464
10200.0000000196,21.6308953014837,1.00000000072437,0.555510683469381
10300.0000000199,21.4963418447346,1.00000000071602,0.559265052216393
10400.0000000203,21.3635628942234,1.00000000064063,0.551888207882264
10500.0000000207,21.2284723347107,1.00000000071781,0.550610657185778
10600.000000021,21.0814973770064,1.00000000085839,0.558484220235762
10700.0000000214,20.9193457006992,1.0000000008646,0.556160288992651
10800.0000000218,20.7444939868594,1.00000000103054,0.564385331670155
10900.0000000221,20.5644544727424,1.00000000099371,0.564641265842712
11000.0000000225,20.3893913530788,1.00000000109414,0.570808538818383
11100.0000000229,20.2280219800498,1.00000000112807,0.577338543074475
11200.0000000232,20.080920993298,1.00000000106004,0.579300024374506
11300.0000000236,19.9362062184531,1.00000000091165,0.56858554777809
11400.0000000239,19.7808684813307,1.00000000064225,0.532011520985316
11500.0000000243,19.6148002509427,1.00000000051781,0.479701132378677
11600.0000000247,19.4619015955095,1.00000000036978,0.419555979175553
11700.000000025,19.3665123798626,1.00000000032046,0.369130642507795
11800.0000000254,19.3819152345435,1.00000000026784,0.325427461252415
11900.0000000258,19.5575291741023,1.00000000031791,0.313392606442889
12000.0000000261,19.91202224168,1.00000000037641,0.316852929728102
12100.0000000265,20.442669809477,1.00000000044592,0.332983159382069
12200.0000000269,21.0961128678806,1.00000000070873,0.370489414504494
12300.0000000272,21.7981235850326,1.00000000076834,0.411636325170567
12400.0000000276,22.499472985608,1.00000000091274,0.448407228973792
12500.0000000279,23.1462815942004,1.00000000090308,0.483384098126896
12600.0000000283,23.7145921499474,1.00000000095384,0.512575553737034
12700.0000000287,24.2106215864576,1.00000000087829,0.52471229708549
12800.000000029,24.6351023444345,1.00000000089291,0.536327084560301
12900.0000000294,24.9935550980187,1.00000000085506,0.561867331201382
13000.0000000298,25.2891966415506,1.00000000082883,0.573838238544961
13100.0000000301,25.5296988550968,1.0000000008033,0.572894249378682
13200.0000000305,25.7183119015469,1.00000000082909,0.567962502817002
13300.0000000309,25.8638593199869,1.00000000080846,0.574861866689135
13400.0000000312,25.9672762312681,1.00000000085562,0.590384731166719
13500.0000000316,26.0242370222962,1.00000000087666,0.593055247043101
13600.0000000319,26.0480127206491,1.00000000074872,0.578825572848296
13700.0000000323,26.0487622986909,1.00000000081558,0.566614813683899
13800.0000000327,26.0246821141484,1.00000000082165,0.556827657439762
13900.000000033,25.9882776839316,1.00000000073498,0.546734785039556
14000.0000000334,25.9471403454831,1.0000000007547,0.549715880224684
14100.0000000338,25.8917094745069,1.00000000082078,0.559689046192601
14200.0000000341,25.8205906007256,1.00000000078266,0.559139515148554
14300.0000000345,25.7391128317547,1.00000000079585,0.575094103154561
14400.0000000349,25.6463267834245,1.0000000008628,0.573816989782193
14500.0000000352,25.5433051526744,1.0000000008262,0.571628667350287
14600.0000000356,25.4343279528335,1.00000000079253,0.572342832570043
14700.0000000359,25.322127436373,1.00000000077417,0.57223296050675
14800.0000000363,25.2119598828326,1.00000000067858,0.558056275179373
14900.0000000367,25.1090762180707,1.0000000006852,0.548988647849351
15000.000000037,25.0122166012664,1.00000000075681,0.545556157315125
15100.0000000374,24.9124987012716,1.00000000081384,0.548497311826294
15200.0000000378,24.8091774676055,1.00000000087042,0.556679565487694
15300.0000000381,24.7014638063977,1.00000000090567,0.560995699925849
15400.0000000385,24.5853493025584,1.00000000084715,0.569648535015707
15500.0000000389,24.4666046506207,1.00000000077277,0.566938572743481
15600.0000000392,24.3531351784579,1.00000000075002,0.559984190130757
15700.0000000396,24.2510317435224,1.00000000071949,0.557091395546409
15800.0000000399,24.1612769589303,1.00000000074122,0.543499262116014
15900.0000000403,24.0822239047616,1.00000000068956,0.545179883343812
16000.0000000407,24.0167432830041,1.00000000066014,0.528977186092323
16100.000000041,23.9614206764603,1.00000000076069,0.516651726253407
16200.0000000414,23.9041031967673,1.0000000008013,0.51326406375381
16300.0000000418,23.8458175276062,1.00000000072499,0.518578942909079
16400.0000000418,23.795835285059,1.00000000063434,0.51975045151863
16500.0000000404,23.7534001814842,1.00000000075737,0.538746666802947
16600.0000000389,23.7119573175519,1.00000000077737,0.561501024592774
16700.0000000375,23.6687517505553,1.00000000083804,0.5742669418161
16800.000000036,23.6179031980083,1.00000000086959,0.574485857418339
16900.0000000346,23.5558604430691,1.00000000082581,0.559848834010795
17000.0000000331,23.4889554429063,1.00000000077429,0.5548899106628
17100.0000000317,23.4276362786706,1.00000000065358,0.556369406492744
17200.0000000302,23.3694660283209,1.00000000080012,0.569756073685073
17300.0000000287,23.3059566746581,1.00000000080817,0.576793032355115
17400.0000000273,23.2397146999817,1.00000000074784,0.589193495784071
17500.0000000258,23.1754004593359,1.00000000071173,0.587046713786931
17600.0000000244,23.1057587907276,1.00000000090592,0.597666482053178
17700.0000000229,23.0272302800416,1.00000000081783,0.595707336005822
17800.0000000215,22.9437612655631,1.0000000008182,0.590961078163795
17900.00000002,22.8549378704697,1.00000000084944,0.594500189346279
18000.0000000186,22.7614687380073,1.00000000088797,0.603395787027589
18100.0000000171,22.6691001687364,1.00000000064483,0.591592995078245
18200.0000000156,22.5832797942205,1.00000000072946,0.583014682087006
18300.0000000142,22.4984198944445,1.00000000080534,0.583193477804851
18400.0000000127,22.4101602589663,1.00000000081433,0.576298990909771
18500.0000000113,22.3219083400367,1.00000000075765,0.569780675484315
18600.0000000098,22.2361949009182,1.00000000069672,0.581590043761977
18700.0000000084,22.1518294986904,1.00000000079499,0.588049789642695
18800.0000000069,22.0661399825841,1.00000000080985,0.589250919612003
18900.0000000055,21.981403714675,1.00000000068995,0.582387239909735
19000.000000004,21.8987579350447,1.00000000072673,0.588077109093765
19100.0000000026,21.816750903736,1.0000000007569,0.575758337829184
19200.0000000011,21.7314776283347,1.00000000086201,0.581121104465795
19299.9999999996,21.6413798066325,1.0000000008274,0.589387050988792
19399.9999999982,21.5483597098371,1.00000000078501,0.58213085607176
19499.9999999967,21.4534381829974,1.00000000076575,0.581186931436726
19599.9999999953,21.3568814892741,1.00000000081457,0.588036094477525
19699.9999999938,21.2575731205116,1.0000000008351,0.607313894742057
19799.9999999924,21.1557521615247,1.00000000091994,0.612634810743749
19899.9999999909,21.0535526857046,1.00000000077522,0.608581159107264
19999.9999999895,20.9533355906854,1.00000000070749,0.589333907203163
20099.999999988,20.8550298026742,1.00000000082251,0.6003352255757
20199.9999999865,20.7543629037401,1.00000000094494,0.610516159599055
20299.9999999851,20.6528195867208,1.00000000083066,0.622082612600128
20399.9999999836,20.5523490329027,1.00000000073557,0.598835358584055
20499.9999999822,20.4528112454735,1.00000000068848,0.582854133614463
20599.9999999807,20.3541154985549,1.00000000075845,0.601496103996547
20699.9999999793,20.2563311937195,1.00000000070039,0.603675856960791
20799.9999999778,20.1596281948475,1.00000000064468,0.597642630213594
20899.9999999764,20.0644430096909,1.00000000069775,0.597252224703003
20999.9999999749,19.9709257367994,1.00000000072041,0.598258008548013
21099.9999999734,19.8803313896769,1.00000000073183,0.605801015507362
21199.999999972,19.7938777450167,1.00000000081529,0.60270052083288
21299.9999999705,19.7141531637817,1.00000000083031,0.599605734594477
21399.9999999691,19.6440496297806,1.00000000081978,0.612625012984647
21499.9999999676,19.5866621780775,1.00000000105431,0.614300189866396
21599.9999999662,19.5498221131635,1.00000000096404,0.612235322855453
21699.9999999647,19.5327716607828,1.00000000099253,0.621871718791923
21799.9999999633,19.5490876513597,1.00000000113133,0.623806605022729
21899.9999999618,19.5930992856978,1.00000000104564,0.626876221875059
21999.9999999603,19.6818768467083,1.00000000114696,0.633829342830093
22099.9999999589,19.8006037987715,1.00000000109008,0.626038430641271
22199.9999999574,19.9632948724014,1.00000000122173,0.621505689581615
22299.999999956,20.1538947425954,1.00000000113767,0.612533870392634
22399.9999999545,20.37468424051,1.00000000108518,0.602459577279363
22499.9999999531,20.6018900209072,1.00000000104085,0.592796644395337
22599.9999999516,20.8186559779731,1.00000000095934,0.586200893033735
22699.9999999502,21.004660555537,1.00000000081425,0.568779458329185
22799.9999999487,21.1411324836913,1.00000000065178,0.546922139330428
22899.9999999473,21.222103905126,1.0000000006167,0.518330050654188
22999.9999999458,21.2444025713401,1.00000000056419,0.488717553413659
23099.9999999443,21.2139524696879,1.00000000047937,0.460339422001961
23199.9999999429,21.1523494390167,1.00000000040655,0.428020603753342
23299.9999999414,21.0711135502328,1.00000000034921,0.40008871522607
23399.99999994,21.0081266028261,1.00000000032193,0.374372493987249
23499.9999999385,20.9848908276276,1.00000000028491,0.35060419765156
23599.9999999371,21.0371585286157,1.00000000028213,0.333785115935867
23699.9999999356,21.1965870476683,1.00000000028046,0.321530111126138
23799.9999999342,21.4803719544156,1.00000000028213,0.318258972508186
23899.9999999327,21.9180034863777,1.00000000036413,0.317510483639592
23999.9999999312,22.5101944881359,1.00000000040663,0.326417747594921
24099.9999999298,23.2572656904683,1.00000000045291,0.336289533316623
24199.9999999283,24.1554935438331,1.00000000046099,0.349837392652418
24299.9999999269,25.1599874298289,1.00000000065832,0.362558974468612
24399.9999999254,26.2713272529973,1.00000000066503,0.382765783421069
24499.999999924,27.4185433441363,1.00000000077006,0.399481680211764
24599.9999999225,28.6219165175858,1.00000000080476,0.417017888111157
24699.9999999211,29.8016318690812,1.00000000084379,0.437876023455594
24799.9999999196,30.9873916146857,1.00000000087646,0.446624341548077
24899.9999999181,32.1211224788837,1.00000000097087,0.460968724820553
24999.9999999167,33.2081707886731,1.00000000094907,0.479921705402332
25099.9999999152,34.2489163301083,1.00000000087089,0.493966653556059
25199.9999999138,35.2177625426616,1.0000000009853,0.497637913165349
25299.9999999123,36.1342290952791,1.00000000089089,0.511549342357424
25399.9999999109,36.9766194913712,1.00000000095317,0.528062682796068
25499.9999999094,37.7749689787824,1.0000000008854,0.531188872067505
25599.999999908,38.5092216319367,1.00000000093074,0.543628290094745
25699.9999999065,39.1890405434002,1.00000000084176,0.546892492241718
25799.9999999051,39.8176924803408,1.00000000092095,0.557550643114984
25899.9999999036,40.3910506907395,1.00000000079347,0.56767231001816
25999.9999999021,40.9293608049448,1.00000000085202,0.583692958405621
26099.9999999007,41.4142571036997,1.0000000008135,0.58016402739563
26199.9999998992,41.8734702672178,1.00000000083777,0.57844760098371
26299.9999998978,42.2811640814102,1.00000000092782,0.591042127387235
26399.9999998963,42.646259909562,1.00000000086145,0.607272518566283
26499.9999998949,42.9620704025404,1.00000000092106,0.614867341241416
26599.9999998934,43.2446591055223,1.00000000085508,0.603867581914911
26699.999999892,43.503923673713,1.00000000081403,0.598330090446757
26799.9999998905,43.7250575774471,1.00000000088075,0.60031709892466
26899.999999889,43.9129864485149,1.00000000095422,0.617997224106408
26999.9999998876,44.052536616275,1.00000000094828,0.628862479755196
27099.9999998861,44.1682219739591,1.00000000082095,0.629898719887422
27199.9999998847,44.2626275867639,1.00000000075224,0.606627636313624
27299.9999998832,44.3509869858017,1.00000000078802,0.596031329928296
27399.9999998818,44.4201253608286,1.00000000089884,0.598357401523464
27499.9999998803,44.4593840693482,1.00000000089892,0.612728132216749
27599.9999998789,44.4717037551876,1.00000000083671,0.61614548125554
27699.9999998774,44.4637766781684,1.00000000088532,0.6130253028139
27799.9999998759,44.4515294083112,1.00000000074995,0.608262568061384
27899.9999998745,44.4319557563072,1.00000000077093,0.600098662108561
27999.999999873,44.410078200596,1.00000000078933,0.600026105576733
28099.9999998716,44.3744795901805,1.00000000083879,0.587806309654726
28199.9999998701,44.3288681935926,1.00000000084135,0.575551933693547
28299.9999998687,44.2739570547695,1.00000000085409,0.584486034942117
28399.9999998672,44.2086764961033,1.00000000074636,0.59940273266932
28499.9999998658,44.1354521748011,1.00000000085507,0.616673976890453
28599.9999998643,44.0554300919815,1.00000000078336,0.602823722047231
28699.9999998629,43.979701698874,1.0000000007178,0.575661721492846
28799.9999998614,43.9093838086148,1.00000000078701,0.577185872117589
28899.9999998599,43.8357377064078,1.00000000088661,0.589862159173144
28999.9999998585,43.7450983303106,1.00000000099709,0.58333883220777
