Time,AGPnorm,Energy,Entropy
0,0,1,-7.42279684169696e-17
99.9999999999986,0.000631090837042541,0.999999999997756,0.00219707423194207
199.999999999993,0.00417237535749344,0.999999999997376,0.00651990939432275
300,0.00860622276560738,0.999999999999641,0.0121940705298336
400.000000000022,0.0129435680012151,1.00000000000062,0.019376416860376
500.000000000045,0.018484835109942,0.999999999998613,0.0281031193584617
600.000000000068,0.0262261079672615,0.999999999997029,0.0379106370507505
700.000000000091,0.0339420578062294,0.999999999998605,0.0486763998233967
800.000000000113,0.0424465460751396,1.00000000000076,0.0606447550921135
900.000000000136,0.0511621470052259,0.999999999999497,0.0739062981163005
1000.00000000016,0.0618811620952812,0.999999999997522,0.088392687171637
1100.0000000001,0.071620213293463,0.999999999997548,0.10417103264694
1200,0.0826168821809088,1.00000000000044,0.121675849966943
1299.99999999991,0.0923591657013822,1.00000000000058,0.141486058714283
1399.99999999982,0.103597371910168,1.00000000000027,0.163812430066499
1499.99999999973,0.114135580538994,1.00000000000394,0.189611938320204
1599.99999999964,0.126446544502554,1.00000000002192,0.219099868319798
1699.99999999955,0.14076401443391,1.0000000000602,0.252455068018201
1799.99999999946,0.157185635244566,1.00000000011805,0.287152620808029
1899.99999999937,0.193288970508638,1.00000000019322,0.321559124021579
1999.99999999928,0.284576962740074,1.00000000028728,0.353147214225551
2099.99999999919,0.464885001346209,1.00000000038142,0.382331548746093
2199.99999999909,0.771835654582928,1.00000000046771,0.40844943129962
2299.999999999,1.28154822578354,1.0000000005459,0.431594044629044
2399.99999999891,2.07377685803285,1.00000000064451,0.451404349440486
2499.99999999882,3.18867804698246,1.00000000068425,0.469241879837078
2599.99999999873,4.66513958077109,1.00000000077913,0.484904537971609
2699.99999999864,6.56528122828084,1.00000000079594,0.498558104652089
2799.99999999855,8.92908537921769,1.00000000082752,0.509684142903783
2899.99999999846,11.7323770528933,1.00000000085686,0.519382738293552
2999.99999999837,14.9527897946428,1.0000000008909,0.527985342507989
3099.99999999828,18.6077224575832,1.00000000090847,0.535070536368618
3199.99999999819,22.6830962657141,1.00000000090795,0.540648678445704
3299.99999999809,27.1107688183409,1.00000000091926,0.545109681839635
3399.999999998,31.8114842519091,1.00000000089406,0.549328636733203
3499.99999999791,36.770702120059,1.00000000086179,0.552398910711361
3599.99999999782,41.9610786398295,1.000000000908,0.554741916118392
3699.99999999773,47.3080874785693,1.00000000085598,0.555789141830199
3799.99999999764,52.7236892649765,1.00000000088395,0.557106919068127
3899.99999999755,58.1657280662512,1.00000000088874,0.557768306237853
3999.99999999746,63.6212684498601,1.00000000084428,0.558050383077396
4099.99999999738,69.0393473912127,1.00000000080349,0.556590835726789
4199.99999999775,74.3522930642563,1.00000000083179,0.556784888258827
4299.99999999811,79.5091191940289,1.00000000078391,0.556448124624588
4399.99999999848,84.5066789316066,1.00000000073078,0.554453448193345
4499.99999999884,89.3295008845567,1.00000000077031,0.553463542676643
4599.9999999992,93.9329371788801,1.00000000073927,0.551408779947828
4699.99999999957,98.2829371750765,1.00000000071633,0.550799004676274
4799.99999999993,102.367627687296,1.00000000069173,0.549418326311937
4900.00000000029,106.198103059815,1.00000000066448,0.547287379747052
5000.00000000066,109.757497915678,1.00000000066157,0.545131471907993
5100.00000000102,113.031870255089,1.00000000061732,0.544937972708333
5200.00000000139,116.008576638139,1.00000000060527,0.542151553367781
5300.00000000175,118.703300226093,1.00000000059144,0.53983033774277
5400.00000000211,121.1260712808,1.00000000059706,0.541396576424086
5500.00000000248,123.274815728102,1.00000000057426,0.538438543864403
5600.00000000284,125.137839775649,1.00000000057511,0.532822924185561
5700.00000000321,126.725016078565,1.00000000055569,0.537612056884533
5800.00000000357,128.069184315387,1.00000000055995,0.541766407972738
5900.00000000393,129.176482274644,1.0000000005277,0.528989654523259
6000.0000000043,130.023680327207,1.00000000048174,0.521265377290195
6100.00000000466,130.634503779898,1.00000000050919,0.539430092043733
6200.00000000502,131.067648279323,1.00000000053608,0.54720865207634
6300.00000000539,131.325371254411,1.00000000049333,0.522459861283188
6400.00000000575,131.356980087882,1.00000000039756,0.504442127858566
6500.00000000612,131.190431231397,1.00000000048812,0.534126479189052
6600.00000000648,130.92119934173,1.00000000059416,0.557662218070034
6700.00000000684,130.575723197801,1.00000000053647,0.535457461175517
6800.00000000721,130.080978415193,1.00000000035378,0.487370304361155
6900.00000000757,129.399676070232,1.00000000038523,0.494307463190299
7000.00000000793,128.620835297263,1.00000000057531,0.548300962269547
7100.0000000083,127.843197706494,1.00000000067132,0.566771960541174
7200.00000000866,127.060880208233,1.00000000054023,0.531148295789989
7300.00000000903,126.18043292321,1.00000000032096,0.462945087830764
7400.00000000939,125.154335058679,1.00000000030085,0.459710084596216
7500.00000000975,124.056471710844,1.00000000055186,0.529965891121176
7600.00000001012,122.98844811407,1.00000000070215,0.567801357990772
7700.00000001048,121.980496177945,1.00000000070125,0.558555087495974
7800.00000001084,120.973627164822,1.00000000045967,0.49396808818916
7900.00000001121,119.883639270894,1.0000000002534,0.418303363973337
8000.00000001157,118.696962669431,1.00000000030684,0.436098018922816
8100.00000001194,117.482593150312,1.00000000056947,0.516154913025619
8200.0000000123,116.311990696071,1.00000000073722,0.560119007723644
8300.00000001266,115.210252886124,1.00000000075107,0.562329246615166
8400.00000001303,114.150351716907,1.00000000058172,0.52049459154397
8500.00000001339,113.072776389002,1.0000000003627,0.436700805220921
8600.00000001376,111.939260652995,1.00000000024342,0.382910522534379
8700.00000001412,110.764489265204,1.00000000034236,0.419478151358246
8800.00000001448,109.589784954153,1.00000000056809,0.498857939360063
8900.00000001485,108.450526052298,1.00000000072079,0.544619669014373
9000.00000001521,107.364706053591,1.0000000007359,0.552292962228172
9100.00000001557,106.32622215268,1.00000000068847,0.535884659252188
9200.00000001594,105.307223818604,1.00000000050721,0.486208912538448
9300.0000000163,104.278466260235,1.00000000035082,0.415675534760693
9400.00000001667,103.230476961808,1.00000000027622,0.380041841355073
9500.00000001703,102.17509335124,1.0000000003444,0.405195313653393
9600.00000001739,101.129106893444,1.00000000050093,0.466127260936967
9700.00000001776,100.10284639179,1.00000000064383,0.515196156670225
9800.00000001812,99.1036462633394,1.0000000007324,0.533317038506483
9900.00000001848,98.1360227397617,1.00000000068399,0.538220732412007
10000.0000000188,97.1962843590424,1.00000000062896,0.526593942362509
10100.0000000192,96.2728901785608,1.0000000004913,0.488434325707544
10200.0000000196,95.3566771389564,1.00000000039292,0.44095571362056
10300.0000000199,94.4485260373283,1.00000000036602,0.407447561050429
10400.0000000203,93.5551700602255,1.00000000036735,0.40571143925509
10500.0000000207,92.6808199456189,1.00000000040499,0.433105820526835
10600.000000021,91.8245913285318,1.00000000048241,0.46586245009139
10700.0000000214,90.9834431554546,1.00000000053986,0.499906826141252
10800.0000000218,90.155341896025,1.00000000056918,0.510350729338915
10900.0000000221,89.3396190306138,1.00000000062993,0.516178858538321
11000.0000000225,88.5358450653785,1.00000000070887,0.52991278655558
11100.0000000229,87.7453098925243,1.00000000066679,0.533878370010649
11200.0000000232,86.9694197970268,1.00000000050756,0.501876447117585
11300.0000000236,86.2109492986894,1.00000000037814,0.45372796416499
11400.0000000239,85.4758605770437,1.00000000033485,0.421559179346061
11500.0000000243,84.7678297951672,1.00000000041623,0.417805358031991
11600.0000000247,84.0856162992034,1.0000000004676,0.429903375782885
11700.000000025,83.4242862785643,1.00000000051084,0.458494090375377
11800.0000000254,82.7784151629162,1.0000000005115,0.475306639993158
11900.0000000258,82.1451443443722,1.00000000050776,0.48630842032778
12000.0000000261,81.5245489247697,1.00000000048237,0.494351292554918
12100.0000000265,80.9169215164643,1.0000000004661,0.493022570200494
12200.0000000269,80.3171941172623,1.00000000056389,0.498705373364535
12300.0000000272,79.7158324222588,1.00000000067051,0.516777184551756
12400.0000000276,79.1096956327742,1.00000000071707,0.534744370440303
12500.0000000279,78.5042979760323,1.00000000064181,0.534782976143121
12600.0000000283,77.9086217834795,1.00000000051492,0.507429097072397
12700.0000000287,77.3339295475965,1.00000000037839,0.463990682330705
12800.000000029,76.7914448753445,1.00000000030584,0.431128758985243
12900.0000000294,76.2858185801627,1.00000000034548,0.41870950953378
13000.0000000298,75.8105705390421,1.0000000004589,0.428342716578688
13100.0000000301,75.3539469474765,1.00000000053748,0.445950355782544
13200.0000000305,74.9069373881874,1.00000000058139,0.468476628652149
13300.0000000309,74.4653393634195,1.00000000057397,0.486845104144013
13400.0000000312,74.0293221425664,1.00000000053804,0.493709174992419
13500.0000000316,73.600807689218,1.00000000048848,0.494969370068637
13600.0000000319,73.1824273976688,1.00000000048807,0.497338197176941
13700.0000000323,72.7755985290629,1.00000000044891,0.5004722512792
13800.0000000327,72.3765367834545,1.00000000047517,0.50196184048067
13900.000000033,71.9775052219598,1.00000000056702,0.503020494770175
14000.0000000334,71.5704164144283,1.0000000006658,0.511306702904471
14100.0000000338,71.1513416555078,1.00000000068274,0.523072754474355
14200.0000000341,70.7230876521079,1.00000000064584,0.53394704536412
14300.0000000345,70.2931395894506,1.00000000055202,0.530824961408187
14400.0000000349,69.872220895216,1.00000000047545,0.512389172650176
14500.0000000352,69.4726778597039,1.0000000004347,0.481210965715169
14600.0000000356,69.1038928815822,1.00000000039488,0.453782578790872
14700.0000000359,68.7705216360569,1.00000000037636,0.44354725112682
14800.0000000363,68.4711221235662,1.00000000040439,0.441534821200432
14900.0000000367,68.1992648101283,1.00000000043718,0.440499477960695
15000.000000037,67.9430157962097,1.00000000049349,0.459227040783521
15100.0000000374,67.6923849297335,1.00000000054636,0.479133573507652
15200.0000000378,67.445344353686,1.00000000052649,0.484063234514518
15300.0000000381,67.2059713368975,1.00000000048321,0.485934288270433
15400.0000000385,66.9758487917669,1.00000000048624,0.491134889849943
15500.0000000389,66.7489055478552,1.00000000051783,0.504183083058857
15600.0000000392,66.5179547059577,1.00000000057746,0.520823436652554
15700.0000000396,66.2768480480969,1.00000000058705,0.530470065945703
15800.0000000399,66.0277144949422,1.00000000052548,0.537842266845149
15900.0000000403,65.7757425863177,1.00000000048071,0.539049194977805
16000.0000000407,65.5257883066795,1.00000000045192,0.528643367916705
16100.000000041,65.2796509274641,1.00000000044832,0.518639715930349
16200.0000000414,65.0366136614314,1.00000000048363,0.504926816426951
16300.0000000418,64.7914388916602,1.00000000054587,0.501978481519183
16400.0000000418,64.5390922793187,1.00000000061243,0.515693674580954
16500.0000000404,64.2738889746131,1.00000000067283,0.532421397449681
16600.0000000389,63.9964619342662,1.00000000064612,0.545245691426377
16700.0000000375,63.7149340597804,1.00000000059346,0.544740671088184
16800.000000036,63.4406576255955,1.00000000048362,0.526582043723891
16900.0000000346,63.1868787632406,1.00000000038068,0.500682940633009
17000.0000000331,62.9639721840719,1.00000000037556,0.477074302893501
17100.0000000317,62.776204119535,1.00000000037365,0.460294393080441
17200.0000000302,62.6208289774425,1.0000000004387,0.456864316210318
17300.0000000287,62.4909958361109,1.00000000046814,0.460210853545963
17400.0000000273,62.377269283063,1.00000000049184,0.46597295009209
17500.0000000258,62.2722118998099,1.00000000052206,0.469186785880497
17600.0000000244,62.1721993528365,1.00000000051046,0.474648879456564
17700.0000000229,62.0736167509762,1.00000000053801,0.486133910640754
17800.0000000215,61.9746285710611,1.00000000054648,0.499532705363884
17900.00000002,61.8777419026774,1.00000000051229,0.507988496459909
18000.0000000186,61.7886426623107,1.00000000046005,0.510175635707686
18100.0000000171,61.7118921876597,1.00000000044178,0.51128733582665
18200.0000000156,61.6467419811885,1.00000000046266,0.514406835917951
18300.0000000142,61.5845302375519,1.00000000050309,0.522567006560145
18400.0000000127,61.5142661467188,1.00000000057767,0.531459761967357
18500.0000000113,61.4258356715155,1.00000000058228,0.5371392561227
18600.0000000098,61.3150903023969,1.00000000060065,0.541358001892337
18700.0000000084,61.1823894977184,1.00000000060294,0.540608800437995
18800.0000000069,61.0331752678026,1.00000000057171,0.544988905628106
18900.0000000055,60.8749356854111,1.00000000052501,0.552749804557646
19000.000000004,60.714872473524,1.00000000047759,0.553932314172155
19100.0000000026,60.558539528429,1.00000000044934,0.544419454374209
19200.0000000011,60.4088864907645,1.00000000044892,0.53787313033359
19299.9999999996,60.265086454118,1.00000000047052,0.538174643869616
19399.9999999982,60.1230573087266,1.00000000050249,0.533583068194455
19499.9999999967,59.9786194104623,1.00000000054023,0.528414468681175
19599.9999999953,59.8293234847772,1.00000000056337,0.52828454267628
19699.9999999938,59.672776041365,1.00000000058289,0.533847917795471
19799.9999999924,59.5067727908998,1.0000000006265,0.54433629464828
19899.9999999909,59.3306206038181,1.00000000067729,0.554713973050735
19999.9999999895,59.1484700158954,1.00000000061148,0.558382153446254
20099.999999988,58.9685461194492,1.00000000051346,0.550299592641335
20199.9999999865,58.8007036219489,1.00000000044404,0.535388752935287
20299.9999999851,58.6542300649226,1.00000000040457,0.516630359575097
20399.9999999836,58.5350840297679,1.00000000039861,0.498101525969996
20499.9999999822,58.4453046589522,1.00000000039184,0.485052172558272
20599.9999999807,58.3836605445862,1.00000000042266,0.477169696650454
20699.9999999793,58.3459697148652,1.00000000043908,0.480825761788356
20799.9999999778,58.3266135234273,1.0000000004521,0.4829259672679
20899.9999999764,58.3210138373548,1.00000000049456,0.480750505892264
20999.9999999749,58.3227794736532,1.0000000005395,0.478479078998967
21099.9999999734,58.3251379871467,1.00000000054514,0.482220445842193
21199.999999972,58.3277893382071,1.00000000052298,0.48374538257466
21299.9999999705,58.3356700441261,1.00000000047375,0.478882310912801
21399.9999999691,58.3534860741402,1.00000000045242,0.481012715275146
21499.9999999676,58.3811164632691,1.00000000045923,0.495763200694758
21599.9999999662,58.4121717439468,1.0000000005139,0.514695774440887
21699.9999999647,58.4387817516662,1.00000000052627,0.526145458397794
21799.9999999633,58.4544300546065,1.00000000057899,0.535795507814414
21899.9999999618,58.4574660158875,1.00000000058752,0.546038575565493
21999.9999999603,58.4505200111342,1.00000000055164,0.551045261302179
22099.9999999589,58.439436084824,1.00000000053484,0.551315926201934
22199.9999999574,58.4275994340376,1.00000000049385,0.547639295258408
22299.999999956,58.4156850688232,1.00000000050443,0.548500142876415
22399.9999999545,58.4040321478,1.00000000048666,0.556560689933286
22499.9999999531,58.39174725133,1.0000000004864,0.563820691804466
22599.9999999516,58.3767760234178,1.00000000050616,0.564238262307634
22699.9999999502,58.3544880612918,1.00000000052354,0.563622514411144
22799.9999999487,58.3222044450836,1.00000000054109,0.561749977187137
22899.9999999473,58.2775800444939,1.00000000055236,0.560753796391513
22999.9999999458,58.2199985554651,1.00000000056452,0.555613332060601
23099.9999999443,58.1494490092537,1.00000000054857,0.542149251126246
23199.9999999429,58.067587157262,1.00000000054902,0.536579509693997
23299.9999999414,57.9762647671772,1.0000000005685,0.546114743974008
23399.99999994,57.8769282513111,1.00000000057293,0.558265121902933
23499.9999999385,57.7695939668975,1.00000000055962,0.564373482367962
23599.9999999371,57.6565090054958,1.00000000055194,0.567270381595986
23699.9999999356,57.5418562778332,1.00000000050616,0.562827564077789
23799.9999999342,57.4298669836463,1.00000000046351,0.558898968574898
23899.9999999327,57.3229004140277,1.00000000043921,0.558934392278508
23999.9999999312,57.2205659669847,1.00000000046174,0.564031415514255
24099.9999999298,57.1207908582314,1.00000000048674,0.562528979966827
24199.9999999283,57.0216264120466,1.00000000049434,0.559436361471833
24299.9999999269,56.9215659598053,1.00000000051629,0.561380769719327
24399.9999999254,56.8199086387205,1.00000000052731,0.56022691572884
24499.999999924,56.7155368848454,1.00000000055878,0.557359177679231
24599.9999999225,56.6069505563209,1.00000000056582,0.552658338892942
24699.9999999211,56.4931827209443,1.00000000058104,0.548569150737892
24799.9999999196,56.3732185227765,1.00000000062052,0.551080713791583
24899.9999999181,56.2469963515743,1.0000000006368,0.553756721776053
24999.9999999167,56.1169937519477,1.0000000005738,0.554706025539162
25099.9999999152,55.9880552944216,1.00000000052439,0.5542497400799
25199.9999999138,55.8667701704813,1.00000000045991,0.549949844135131
25299.9999999123,55.7594653473602,1.00000000043537,0.539147609563922
25399.9999999109,55.671385898248,1.00000000040808,0.526168808296429
25499.9999999094,55.6057735303008,1.00000000039606,0.51834020142549
25599.999999908,55.5646629146379,1.00000000039826,0.511299776772857
25699.9999999065,55.5477386528602,1.00000000041546,0.501213329248055
25799.9999999051,55.5519061513744,1.00000000044546,0.497405366037974
25899.9999999036,55.5735772809483,1.00000000046592,0.495311510949224
25999.9999999021,55.6107342819898,1.00000000047117,0.492920354119281
26099.9999999007,55.6598306439917,1.00000000047604,0.493833644626044
26199.9999998992,55.714378070352,1.00000000054222,0.49565583739113
26299.9999998978,55.7716096075477,1.00000000051576,0.501628429831377
26399.9999998963,55.8324429007029,1.00000000052064,0.502180228997811
26499.9999998949,55.8991110365763,1.00000000047822,0.495286034526902
26599.9999998934,55.973109074876,1.00000000047663,0.490960938072221
26699.999999892,56.0523871361005,1.00000000050387,0.497184919402695
26799.9999998905,56.1334287455673,1.00000000050284,0.506105641925318
26899.999999889,56.2133985807507,1.00000000049601,0.515999366118982
26999.9999998876,56.2918390557904,1.00000000050472,0.526293769148669
27099.9999998861,56.3684655177806,1.00000000052701,0.537222354287178
27199.9999998847,56.4414274109968,1.00000000053036,0.543691420618825
27299.9999998832,56.5088012583726,1.00000000054617,0.550618145498663
27399.9999998818,56.5706379028797,1.00000000054232,0.559363038312351
27499.9999998803,56.6264291433926,1.00000000054342,0.563505242750003
27599.9999998789,56.6759751925236,1.00000000051903,0.570066803066316
27699.9999998774,56.7197299946877,1.00000000052746,0.574358530247318
27799.9999998759,56.7575856419247,1.0000000005391,0.573920779620444
27899.9999998745,56.7889924622384,1.00000000054009,0.570701505195755
27999.999999873,56.8136986304653,1.00000000054383,0.568548397092463
28099.9999998716,56.8314133911922,1.00000000055261,0.570977947749439
28199.9999998701,56.8419140817648,1.00000000056174,0.571929292586044
28299.9999998687,56.8455804584317,1.00000000055121,0.57451834274095
28399.9999998672,56.8444756222036,1.00000000051183,0.58240786066853
28499.9999998658,56.8415266800078,1.00000000049759,0.581575560928541
28599.9999998643,56.8390374438808,1.00000000049751,0.574941244043634
28699.9999998629,56.8371261254614,1.00000000049873,0.574293131117229
28799.9999998614,56.8333288501338,1.00000000052445,0.573793885335764
28899.9999998599,56.8262955069897,1.00000000054695,0.575585909761034
28999.9999998585,56.8152472917043,1.00000000053273,0.574821327263747
