Time,AGPnorm,Energy,Entropy
0,0,1,-1.26735561057177e-17
99.9999999999986,9.4694596466769e-06,0.999999999998794,0.00044497147259804
199.999999999993,0.000814591771892109,1.00000000000007,0.000707843904902495
300,0.00198893249936223,0.999999999999342,0.00124683121056866
400.000000000022,0.00274295263589538,0.999999999999199,0.00216686655863262
500.000000000045,0.00338168222175655,1.00000000000012,0.00288793327719127
600.000000000068,0.00488183324442357,0.999999999998843,0.00406794024222411
700.000000000091,0.00600040774128729,0.999999999999867,0.00524367113127965
800.000000000113,0.00773513086207165,0.999999999999613,0.00644959880652133
900.000000000136,0.00978902084983575,0.999999999999013,0.00799309177390564
1000.00000000016,0.0113671939455752,1.00000000000014,0.00938592296749349
1100.0000000001,0.0135776512826656,0.999999999998981,0.0110512623735309
1200,0.0159081386030596,0.999999999999634,0.0128105387804423
1299.99999999991,0.0185769096781407,0.999999999999853,0.014506789948294
1399.99999999982,0.021564824310128,0.9999999999989,0.016502128242954
1499.99999999973,0.0240988577556056,1.00000000000005,0.0184121084006229
1599.99999999964,0.0271162799526706,0.999999999999196,0.0204692008695377
1699.99999999955,0.0304431399056218,0.999999999999419,0.0226871733225606
1799.99999999946,0.0339104715515771,1.00000000000002,0.0248120509008642
1899.99999999937,0.037643299303973,0.999999999998865,0.0271829614598237
1999.99999999928,0.0411292353432828,0.999999999999875,0.029538495011074
2099.99999999919,0.0450212932412057,0.999999999999455,0.0319510199277996
2199.99999999909,0.0492343463422334,0.999999999999249,0.0345684525507923
2299.999999999,0.0532911763645697,1.00000000000008,0.0370996419030384
2399.99999999891,0.0575535208776598,0.999999999998911,0.0398195661591734
2499.99999999882,0.0618921003320935,0.999999999999677,0.0425893471672274
2599.99999999873,0.0666435624078828,0.999999999999713,0.0453630933117501
2699.99999999864,0.0716099553462761,0.99999999999912,0.0483575883481766
2799.99999999855,0.0761646803798639,1.00000000000002,0.0512952267035976
2899.99999999846,0.0808370030979081,0.999999999999059,0.0543685291545457
2999.99999999837,0.0858718226456039,0.999999999999515,0.0575543654312554
3099.99999999828,0.0912817773680614,0.999999999999923,0.0607285427713001
3199.99999999819,0.096768604376349,0.999999999999015,0.0641086782973396
3299.99999999809,0.101814276295162,0.99999999999984,0.0674813970089861
3399.999999998,0.106925125205284,0.999999999999291,0.0709409752341267
3499.99999999791,0.11253241546261,0.999999999999415,0.074581955595821
3599.99999999782,0.118281769719631,1.00000000000006,0.0782132289908993
3699.99999999773,0.124006755959584,0.999999999998946,0.0820310183931965
3799.99999999764,0.129473377586881,0.999999999999615,0.0858995167152982
3899.99999999755,0.1351100398676,0.999999999999538,0.0898318533043168
3999.99999999746,0.141155792508423,0.999999999999356,0.0940078983926802
4099.99999999738,0.147016246278602,1.0000000000001,0.0981901014168055
4199.99999999775,0.152753165708422,0.999999999998984,0.102549086164598
4299.99999999811,0.158519341760087,0.999999999999457,0.107032825607915
4399.99999999848,0.164632875005517,0.999999999999738,0.11160313003658
4499.99999999884,0.17091282205178,0.999999999999298,0.116465009476435
4599.9999999992,0.176788832641583,0.999999999999966,0.121381993956631
4699.99999999957,0.182483208365009,0.999999999999203,0.126481415156865
4799.99999999993,0.188464737798646,0.999999999999444,0.131831664883143
4900.00000000029,0.194806227638657,1.00000000000001,0.137330049207778
5000.00000000066,0.201091167654378,0.999999999999344,0.143196750891928
5100.00000000102,0.206855415479032,0.999999999999945,0.149224526721024
5200.00000000139,0.212693414764055,0.999999999999903,0.155500739471939
5300.00000000175,0.218791651090331,1.00000000000022,0.162201381653893
5400.00000000211,0.225114162486981,1.00000000000139,0.169147169332132
5500.00000000248,0.231438532372491,1.00000000000104,0.176551088158264
5600.00000000284,0.236863096388462,1.0000000000026,0.184233123107708
5700.00000000321,0.243527024938313,1.00000000000432,0.192213502873683
5800.00000000357,0.250025473456771,1.00000000000595,0.200651708089159
5900.00000000393,0.256691759598903,1.00000000000973,0.209260458618519
6000.0000000043,0.265198847838605,1.00000000001198,0.218136708479046
6100.00000000466,0.271919146775429,1.00000000001687,0.227189898315029
6200.00000000502,0.283561292260601,1.00000000002094,0.236294160999924
6300.00000000539,0.296877280592152,1.00000000002629,0.245602306511598
6400.00000000575,0.311671997250644,1.00000000003269,0.254791163692685
6500.00000000612,0.336814042814022,1.00000000003901,0.263867025801937
6600.00000000648,0.363228093683568,1.00000000004623,0.272980239171238
6700.00000000684,0.404201087788327,1.00000000005455,0.281856158511838
6800.00000000721,0.459514616556061,1.00000000006097,0.290791618638147
6900.00000000757,0.524887228112875,1.00000000007113,0.299413198012456
7000.00000000793,0.621663498246394,1.00000000007858,0.307810929325745
7100.0000000083,0.736916889532892,1.0000000000817,0.316219685418357
7200.00000000866,0.886781626497813,1.00000000009696,0.324259553637574
7300.00000000903,1.08194995973728,1.00000000010648,0.332256742062191
7400.00000000939,1.31042193823387,1.00000000011716,0.340057779606311
7500.00000000975,1.6048069001197,1.00000000011975,0.347607986255394
7600.00000001012,1.95475355677949,1.00000000012794,0.355108460673463
7700.00000001048,2.37116574095043,1.00000000013626,0.362331123684653
7800.00000001084,2.87975831504981,1.00000000014776,0.369299031473112
7900.00000001121,3.46101987225466,1.00000000015961,0.376225630841988
8000.00000001157,4.15080493568081,1.00000000016386,0.382856783881329
8100.00000001194,4.94862236544336,1.00000000017038,0.389452795262877
8200.0000000123,5.85324285966226,1.00000000017958,0.395793452220341
8300.00000001266,6.90199144881102,1.00000000019308,0.401790227497955
8400.00000001303,8.07341155315487,1.00000000018071,0.407946076520721
8500.00000001339,9.39552054954654,1.00000000019672,0.413641455931693
8600.00000001376,10.8823482005006,1.00000000021095,0.41923138511801
8700.00000001412,12.5184349213469,1.00000000021985,0.424737428463502
8800.00000001448,14.3441182090615,1.00000000021358,0.429969438843628
8900.00000001485,16.3433442631884,1.00000000021454,0.435196038132996
9000.00000001521,18.5283132155435,1.0000000002247,0.440105885821519
9100.00000001557,20.9261656316468,1.0000000002435,0.444735284496006
9200.00000001594,23.5114929708829,1.00000000023246,0.449547374717733
9300.0000000163,26.3173752606034,1.00000000024035,0.453911357533039
9400.00000001667,29.3389279857046,1.00000000025245,0.458312397087226
9500.00000001703,32.5706354898497,1.00000000024807,0.462547860453076
9600.00000001739,36.0455683915114,1.00000000026006,0.466440326914819
9700.00000001776,39.7367196642576,1.00000000025973,0.4704742746006
9800.00000001812,43.6621420457858,1.00000000026114,0.474164849729965
9900.00000001848,47.8296191001345,1.00000000026344,0.477836621196279
10000.0000000188,52.2200016482147,1.00000000026452,0.481398010644443
10100.0000000192,56.862267784996,1.00000000027527,0.48460642614913
10200.0000000196,61.7358137866469,1.00000000027158,0.48802187693834
10300.0000000199,66.8421424236,1.00000000027136,0.491114745732084
10400.0000000203,72.1978244476816,1.00000000028028,0.493991177534008
10500.0000000207,77.7767314898926,1.00000000028057,0.496998196288447
10600.000000021,83.5969443386424,1.00000000028698,0.499617606386105
10700.0000000214,89.6487477774324,1.00000000028175,0.502431701489428
10800.0000000218,95.9186603957167,1.00000000028509,0.504982616518214
10900.0000000221,102.426947974741,1.00000000028595,0.507208478722824
11000.0000000225,109.147688733527,1.00000000029652,0.509745214838056
11100.0000000229,116.084360590326,1.00000000029025,0.511848345722629
11200.0000000232,123.238670873434,1.00000000029572,0.514045048051487
11300.0000000236,130.587460778838,1.00000000029645,0.516234666171966
11400.0000000239,138.147772207322,1.00000000029283,0.517935165060498
11500.0000000243,145.898961058987,1.00000000029291,0.519988588803503
11600.0000000247,153.831942715365,1.00000000029604,0.52174846688815
11700.000000025,161.95553926338,1.00000000030278,0.523253082185711
11800.0000000254,170.243845135024,1.00000000029398,0.525227743367506
11900.0000000258,178.705927714148,1.00000000029749,0.526493426163437
12000.0000000261,187.329267348093,1.00000000027802,0.528050495316974
12100.0000000265,196.095697307961,1.00000000028753,0.5297017167116
12200.0000000269,205.016244215141,1.0000000002924,0.530571440128691
12300.0000000272,214.067382513838,1.00000000029267,0.531922231191952
12400.0000000276,223.247846106398,1.00000000028386,0.533323867794009
12500.0000000279,232.555181814016,1.00000000028659,0.534131237866113
12600.0000000283,241.964822920746,1.00000000028705,0.535394918437146
12700.0000000287,251.487648608824,1.00000000028529,0.536246051621636
12800.000000029,261.10610172301,1.00000000027749,0.537112696130493
12900.0000000294,270.807391373297,1.0000000002799,0.538147984848112
13000.0000000298,280.597362066189,1.00000000028898,0.538703628159751
13100.0000000301,290.450943354929,1.00000000028619,0.539545701489063
13200.0000000305,300.372837603083,1.00000000027702,0.540311583373659
13300.0000000309,310.354909266697,1.00000000028375,0.540828283508252
13400.0000000312,320.375926842935,1.00000000028111,0.541463687475283
13500.0000000316,330.445761772457,1.00000000028429,0.541766178135579
13600.0000000319,340.543298465372,1.00000000027106,0.542502587876419
13700.0000000323,350.666835270105,1.00000000027848,0.543041843274678
13800.0000000327,360.813572018594,1.00000000027672,0.543322100390766
13900.000000033,370.961005022381,1.00000000027475,0.543768958469583
14000.0000000334,381.117235239826,1.00000000027735,0.543936157737097
14100.0000000338,391.267605608627,1.00000000027269,0.544218627939216
14200.0000000341,401.403151949776,1.00000000026879,0.544898852506338
14300.0000000345,411.52851758528,1.00000000027153,0.544779391839849
14400.0000000349,421.621553129576,1.00000000027037,0.544734291849002
14500.0000000352,431.685424045498,1.0000000002729,0.545104701229436
14600.0000000356,441.714583700563,1.00000000026476,0.545370288974113
14700.0000000359,451.69458690049,1.00000000026237,0.545492664920798
14800.0000000363,461.630186219955,1.00000000025344,0.545591309053907
14900.0000000367,471.505793717274,1.0000000002624,0.545552139994811
15000.000000037,481.320214170635,1.00000000025177,0.545460254636661
15100.0000000374,491.07250042306,1.00000000026064,0.545565160255355
15200.0000000378,500.745925175624,1.00000000025478,0.545757775646887
15300.0000000381,510.347385023864,1.00000000024297,0.545729536134292
15400.0000000385,519.864964705292,1.00000000024871,0.545553868430547
15500.0000000389,529.29378484381,1.00000000025904,0.545235178373906
15600.0000000392,538.638355526985,1.00000000025749,0.5451258142733
15700.0000000396,547.880296285101,1.00000000024158,0.545352914678942
15800.0000000399,557.026254093056,1.00000000024929,0.545385084381632
15900.0000000403,566.068492761616,1.00000000024597,0.545021483889581
16000.0000000407,575.000145984675,1.00000000023412,0.545005172707241
16100.000000041,583.827417325955,1.00000000024122,0.544667744568811
16200.0000000414,592.534904560867,1.00000000023637,0.544588749623463
16300.0000000418,601.126760987672,1.00000000023177,0.544621561853884
16400.0000000418,609.59945287892,1.00000000022901,0.544349659868292
16500.0000000404,617.947085055771,1.00000000023197,0.544720549229331
16600.0000000389,626.173010864511,1.00000000022233,0.543969556665489
16700.0000000375,634.268595438428,1.00000000023058,0.544112527941038
16800.000000036,642.232576089144,1.00000000023055,0.543270684465004
16900.0000000346,650.069617062029,1.00000000022205,0.543615675992444
17000.0000000331,657.766849685921,1.00000000021751,0.54295359528125
17100.0000000317,665.331359718278,1.00000000022913,0.543247638524479
17200.0000000302,672.755890913963,1.00000000022105,0.542584226653549
17300.0000000287,680.038986177531,1.00000000022578,0.542536204944049
17400.0000000273,687.184957736626,1.00000000022034,0.541737157255987
17500.0000000258,694.183434895457,1.0000000002179,0.541763048275615
17600.0000000244,701.040454092183,1.00000000021752,0.541397856385812
17700.0000000229,707.751515248403,1.00000000021101,0.541196702475646
17800.0000000215,714.31317116464,1.00000000021116,0.541040605804121
17900.00000002,720.732193627945,1.00000000021422,0.540676053953458
18000.0000000186,726.999346122562,1.00000000020605,0.540476954285807
18100.0000000171,733.11899239259,1.00000000020308,0.540004664586023
18200.0000000156,739.089705652906,1.00000000020789,0.539427771519826
18300.0000000142,744.907332745726,1.00000000019855,0.539363624154302
18400.0000000127,750.578928425613,1.00000000020337,0.538931188027792
18500.0000000113,756.09723825045,1.00000000020056,0.538940792548711
18600.0000000098,761.464916405613,1.00000000019698,0.538571857190559
18700.0000000084,766.684185082181,1.00000000020143,0.538328912267017
18800.0000000069,771.750747050221,1.00000000019128,0.537951600943761
18900.0000000055,776.669596169116,1.0000000001953,0.53732613375934
19000.000000004,781.436791256422,1.00000000019181,0.536803413720721
19100.0000000026,786.051990006176,1.00000000019518,0.536653617276917
19200.0000000011,790.522071456153,1.00000000019435,0.536741201949026
19299.9999999996,794.841084279044,1.00000000019034,0.53673565447295
19399.9999999982,799.015076524368,1.00000000018572,0.536780089978788
19499.9999999967,803.041387487369,1.00000000018397,0.535969833875809
19599.9999999953,806.91892491871,1.00000000018282,0.5354131278574
19699.9999999938,810.654242481923,1.00000000018237,0.534195300100925
19799.9999999924,814.240921863503,1.00000000017845,0.533713041033854
19899.9999999909,817.684672734374,1.00000000018293,0.533939840011336
19999.9999999895,820.986009859962,1.00000000017531,0.534528776725785
20099.999999988,824.145138262823,1.00000000018043,0.535592082293136
20199.9999999865,827.169068316583,1.00000000017434,0.535626624261702
20299.9999999851,830.053452078849,1.00000000017506,0.535122236139838
20399.9999999836,832.801832689877,1.00000000017078,0.533473104582457
20499.9999999822,835.414151840359,1.00000000016921,0.531226493003472
20599.9999999807,837.8872466134,1.00000000016804,0.530019720823361
20699.9999999793,840.225575610848,1.00000000016568,0.529656050211406
20799.9999999778,842.427476704352,1.00000000016654,0.531481369589854
20899.9999999764,844.498642215038,1.00000000016866,0.533996126702711
20999.9999999749,846.445605851077,1.00000000017148,0.536203602216779
21099.9999999734,848.270214490194,1.00000000017135,0.536943585244807
21199.999999972,849.978062585604,1.00000000016627,0.535336380311082
21299.9999999705,851.565480288281,1.00000000016471,0.531994928196229
21399.9999999691,853.029514873327,1.00000000016002,0.527523557044944
21499.9999999676,854.368254422165,1.00000000015458,0.524192134945815
21599.9999999662,855.577584971902,1.00000000015144,0.52390526876653
21699.9999999647,856.662230298159,1.0000000001483,0.526910545085324
21799.9999999633,857.628729786078,1.00000000015786,0.532408724706515
21899.9999999618,858.486597936313,1.00000000016582,0.537495943646402
21999.9999999603,859.24961065425,1.00000000017458,0.540874656061967
22099.9999999589,859.92067744257,1.00000000017506,0.540281059931876
22199.9999999574,860.502376005559,1.00000000016558,0.535814261834439
22299.999999956,860.987820821614,1.00000000015516,0.528294197800559
22399.9999999545,861.365634476355,1.00000000015289,0.520273076066805
22499.9999999531,861.629916023543,1.00000000014268,0.51492953626338
22599.9999999516,861.774525125762,1.0000000001356,0.515564618198256
22699.9999999502,861.806809887532,1.00000000014057,0.521835124681857
22799.9999999487,861.740789123101,1.00000000015182,0.53135187494927
22899.9999999473,861.592800503078,1.00000000016267,0.540234369379262
22999.9999999458,861.381677461526,1.00000000017675,0.545691340174985
23099.9999999443,861.114664894754,1.00000000018305,0.546130374858376
23199.9999999429,860.792575645675,1.00000000017409,0.540540477663292
23299.9999999414,860.407137280687,1.00000000015839,0.529666010118448
23399.99999994,859.940598002634,1.00000000014102,0.516334470576634
23499.9999999385,859.379257941085,1.00000000012611,0.505090492435846
23599.9999999371,858.710556633895,1.00000000011816,0.50051621062244
23699.9999999356,857.936831711917,1.0000000001207,0.505601995229068
23799.9999999342,857.072480128154,1.00000000013038,0.518045255242516
23899.9999999327,856.137687160752,1.00000000015626,0.532667049757185
23999.9999999312,855.157408896223,1.00000000017306,0.544718340373554
24099.9999999298,854.148725726136,1.00000000018415,0.551360962512183
24199.9999999283,853.120823304407,1.00000000019339,0.550982649305127
24299.9999999269,852.072882522306,1.00000000018379,0.54346214144066
24399.9999999254,850.990675515145,1.00000000016847,0.529348067379969
24499.999999924,849.855213266286,1.00000000014553,0.510536405053488
24599.9999999225,848.643863723035,1.00000000011281,0.493051549927192
24699.9999999211,847.34147582115,1.00000000010166,0.482724103865893
24799.9999999196,845.946669890018,1.00000000010307,0.484740730143256
24899.9999999181,844.468234047362,1.00000000011764,0.49951791768469
24999.9999999167,842.930559705679,1.00000000014156,0.519747318418111
25099.9999999152,841.357862743398,1.00000000016772,0.5382263294679
25199.9999999138,839.773610205719,1.0000000001949,0.551471198703712
25299.9999999123,838.195239381962,1.00000000020766,0.556533371979047
25399.9999999109,836.626363763339,1.00000000020916,0.55481259825472
25499.9999999094,835.063360184606,1.00000000020028,0.545403544746086
25599.999999908,833.489976468703,1.00000000017614,0.527752102553944
25699.9999999065,831.883206265639,1.00000000013912,0.504930415655391
25799.9999999051,830.221682766207,1.00000000011517,0.481216051115509
25899.9999999036,828.485245590676,1.00000000009194,0.464644771394125
25999.9999999021,826.669431126984,1.00000000008366,0.462700845678486
26099.9999999007,824.782210831216,1.00000000010056,0.477023493017617
26199.9999998992,822.841331022355,1.00000000012725,0.501317845368633
26299.9999998978,820.873510168743,1.00000000016427,0.526497230350751
26399.9999998963,818.901492189085,1.00000000018992,0.545394926399042
26499.9999998949,816.944640245781,1.00000000021838,0.556835252806732
26599.9999998934,815.0151459432,1.00000000022816,0.560351840538327
26699.999999892,813.113677382023,1.00000000022593,0.557564837383875
26799.9999998905,811.234573793389,1.0000000002075,0.547373864410008
26899.999999889,809.361461406397,1.00000000018511,0.528641791277071
26999.9999998876,807.47311761483,1.00000000015308,0.503184797872191
27099.9999998861,805.548995534855,1.00000000011784,0.474358280915938
27199.9999998847,803.568484204855,1.00000000008662,0.451166842384425
27299.9999998832,801.525504724867,1.00000000007648,0.441881293525356
27399.9999998818,799.421247502154,1.00000000008592,0.450311862585692
27499.9999998803,797.269478165002,1.00000000010744,0.474399761988984
27599.9999998789,795.092058628016,1.00000000014741,0.505085419592922
27699.9999998774,792.908885317685,1.00000000017636,0.530071354399866
27799.9999998759,790.739876088525,1.00000000021085,0.548979625761125
27899.9999998745,788.599682520922,1.00000000022725,0.55765440041069
27999.999999873,786.49403323938,1.00000000024041,0.560740921844853
28099.9999998716,784.426538385616,1.00000000023589,0.558493756000843
28199.9999998701,782.388750892701,1.00000000021815,0.548586385815872
28299.9999998687,780.370139209107,1.00000000020359,0.53422398062052
28399.9999998672,778.3543625404,1.00000000015941,0.508418244135997
28499.9999998658,776.321021612675,1.00000000013926,0.479123424324821
28599.9999998643,774.256125222532,1.00000000009994,0.448826185413217
28699.9999998629,772.145547565989,1.00000000007585,0.428480035642273
28799.9999998614,769.98810804056,1.00000000007049,0.424549838869424
