Time,AGPnorm,Energy,Entropy
0,0,1,-1.31941129125876e-17
99.9999999999986,2.69411847608956e-05,1.00000000000081,0.00114518800145605
199.999999999993,0.00232479058658058,1.00000000000039,0.0018071272604391
300,0.00600503969789198,1.0000000000003,0.00319403326275223
400.000000000022,0.00834221419004405,1.00000000000087,0.00543267270060577
500.000000000045,0.00991521835058953,0.999999999999982,0.00732317009607315
600.000000000068,0.0142583704710928,1.00000000000078,0.0101954930843899
700.000000000091,0.0179414617197203,1.00000000000048,0.0129998619477234
800.000000000113,0.0229553624724846,1.00000000000024,0.0160407848324139
900.000000000136,0.0281513807860748,1.00000000000085,0.0197037061245562
1000.00000000016,0.0326218586842959,0.999999999999964,0.0231605460387418
1100.0000000001,0.0395639829533842,1.00000000000082,0.0271695166371765
1200,0.0467051034455167,1.00000000000057,0.0313211501771845
1299.99999999991,0.0533370272061238,1.00000000000009,0.0355906445735321
1399.99999999982,0.0603918141297647,1.00000000000086,0.040334220027569
1499.99999999973,0.0678264791230831,1.00000000000006,0.0450162627205096
1599.99999999964,0.0768486150376881,1.00000000000084,0.0501203816160492
1699.99999999955,0.0857662595032037,1.00000000000058,0.055473759661986
1799.99999999946,0.093759386244715,0.99999999999986,0.0608984072632335
1899.99999999937,0.102649473635501,1.00000000000096,0.0667476414090259
1999.99999999928,0.112528271692496,1.00000000000024,0.072714151931631
2099.99999999919,0.122558569238543,1.00000000000074,0.0790950184353373
2199.99999999909,0.132017506929303,1.00000000000055,0.0857659752088874
2299.999999999,0.141190730608366,0.999999999999728,0.0925819314037141
2399.99999999891,0.151540064349024,1.00000000000116,0.0999146607104901
2499.99999999882,0.162801995392749,1.00000000000034,0.107603928795322
2599.99999999873,0.172858306052527,1.00000000000049,0.115743592035267
2699.99999999864,0.182428306146578,1.0000000000006,0.124359149800267
2799.99999999855,0.192522070041927,0.999999999999945,0.133406287631199
2899.99999999846,0.203666611665396,1.00000000000154,0.143364557745549
2999.99999999837,0.214711543559141,1.00000000000104,0.154139446512545
3099.99999999828,0.224368831873095,1.00000000000218,0.1657712081399
3199.99999999819,0.23409848848169,1.00000000000583,0.178538590699334
3299.99999999809,0.244154798451016,1.00000000001184,0.192379834481379
3399.999999998,0.256697135370314,1.00000000002383,0.207453215225212
3499.99999999791,0.265802839938489,1.000000000039,0.22324913409445
3599.99999999782,0.276930764769541,1.00000000006298,0.239217889944329
3699.99999999773,0.294050234230535,1.00000000009268,0.255466693458315
3799.99999999764,0.308951810954985,1.0000000001281,0.2716006990798
3899.99999999755,0.343550526692569,1.0000000001607,0.287538484356447
3999.99999999746,0.382938517398735,1.00000000020533,0.303052173904776
4099.99999999738,0.443934754919025,1.00000000023914,0.318008431040958
4199.99999999775,0.547959666606068,1.0000000002827,0.332811858086926
4299.99999999811,0.675084898208295,1.00000000034788,0.347129994962814
4399.99999999848,0.872696554659211,1.00000000037035,0.360994404759424
4499.99999999884,1.13275583518751,1.00000000041649,0.374112237846137
4599.9999999992,1.46854335872987,1.00000000046264,0.386902801768823
4699.99999999957,1.92206996787487,1.00000000050038,0.399213375449334
4799.99999999993,2.47153774636422,1.00000000054486,0.411038585010585
4900.00000000029,3.16432120333993,1.00000000056659,0.422221662067282
5000.00000000066,4.00614189645173,1.00000000058216,0.432900236096605
5100.00000000102,4.99704031114916,1.00000000064243,0.443153334538984
5200.00000000139,6.18015148943381,1.00000000063964,0.453062329027165
5300.00000000175,7.54152470367052,1.00000000069498,0.46206556210199
5400.00000000211,9.10601362892326,1.00000000070015,0.470794490392232
5500.00000000248,10.8832551450431,1.00000000072113,0.479034927242716
5600.00000000284,12.8686835893995,1.00000000074639,0.486849550614774
5700.00000000321,15.0844651503538,1.00000000077698,0.494280293210454
5800.00000000357,17.5250004887967,1.00000000080111,0.500901892564276
5900.00000000393,20.1937846356972,1.00000000078976,0.507562624442419
6000.0000000043,23.0901620273551,1.0000000008097,0.513699507698259
6100.00000000466,26.2157015735136,1.00000000082553,0.519241980824451
6200.00000000502,29.5658688697902,1.00000000082103,0.524743107629282
6300.00000000539,33.134941171123,1.00000000083619,0.529463941217689
6400.00000000575,36.921539781829,1.00000000084744,0.534277321944996
6500.00000000612,40.9057028395039,1.00000000083527,0.538899772632404
6600.00000000648,45.0971064299067,1.00000000081893,0.542748429149101
6700.00000000684,49.4749026777391,1.00000000082341,0.546553242391656
6800.00000000721,54.0242674727065,1.00000000083993,0.549971442867009
6900.00000000757,58.751362582074,1.00000000084901,0.553138479191682
7000.00000000793,63.6196070020683,1.00000000081784,0.556565068710938
7100.0000000083,68.6397063009249,1.00000000084739,0.55884554451762
7200.00000000866,73.7920215634268,1.0000000008338,0.561436110067252
7300.00000000903,79.0472328958496,1.00000000082058,0.564116725014855
7400.00000000939,84.4218534368257,1.00000000085024,0.565950787870959
7500.00000000975,89.8732751208554,1.00000000079392,0.568118327289017
7600.00000001012,95.405807166328,1.00000000083973,0.569497065346478
7700.00000001048,101.010624845007,1.00000000077742,0.571559986158916
7800.00000001084,106.645900372688,1.00000000082221,0.573265142297713
7900.00000001121,112.336190233637,1.00000000080859,0.574044930837861
8000.00000001157,118.042298380157,1.00000000081118,0.575381145206305
8100.00000001194,123.757593871001,1.00000000078377,0.576704175358713
8200.0000000123,129.487512446384,1.00000000075017,0.577561415416782
8300.00000001266,135.185049358656,1.00000000073114,0.578589984544181
8400.00000001303,140.875370997435,1.00000000076138,0.578776123321086
8500.00000001339,146.529271392442,1.00000000073797,0.579680159666523
8600.00000001376,152.130969674689,1.00000000076352,0.580401460586912
8700.00000001412,157.696235210766,1.00000000073107,0.580317652161099
8800.00000001448,163.180932731034,1.00000000073218,0.581225723041703
8900.00000001485,168.603936713988,1.0000000007407,0.580949875248041
9000.00000001521,173.951725230897,1.00000000072919,0.581343492090351
9100.00000001557,179.199101710725,1.0000000006935,0.581604875117517
9200.00000001594,184.368864989627,1.00000000071212,0.581527471295831
9300.0000000163,189.423785862703,1.00000000070146,0.581228901226446
9400.00000001667,194.376718983275,1.00000000068613,0.581817815974243
9500.00000001703,199.225147529912,1.00000000066493,0.581069091439113
9600.00000001739,203.940160862315,1.00000000066438,0.581491643685356
9700.00000001776,208.548408614573,1.00000000066417,0.581251699167222
9800.00000001812,213.019542847562,1.00000000063678,0.580437385097169
9900.00000001848,217.362075941443,1.00000000066388,0.58147932071926
10000.0000000188,221.580700546881,1.00000000064496,0.579710530222301
10100.0000000192,225.647318880659,1.0000000006387,0.580313923842805
10200.0000000196,229.587877376654,1.00000000062038,0.57984438651441
10300.0000000199,233.381824591803,1.00000000063919,0.578683524495727
10400.0000000203,237.03166825433,1.00000000060823,0.579340541668661
10500.0000000207,240.547786099972,1.00000000060562,0.578190398841246
10600.000000021,243.907005364477,1.00000000059898,0.578051416781947
10700.0000000214,247.128895459412,1.00000000060421,0.577870927267727
10800.0000000218,250.204487566045,1.00000000060139,0.577519624118097
10900.0000000221,253.13056613036,1.00000000057842,0.5768750590569
11000.0000000225,255.918997735648,1.00000000055974,0.576929451628205
11100.0000000229,258.553614324682,1.00000000056669,0.576819700752989
11200.0000000232,261.049318214699,1.00000000054971,0.57550991799097
11300.0000000236,263.401639636862,1.00000000055692,0.575895303538936
11400.0000000239,265.609093838062,1.00000000054452,0.575617788543814
11500.0000000243,267.681596177101,1.00000000054121,0.574473195040783
11600.0000000247,269.607323413109,1.00000000053546,0.575416442867489
11700.000000025,271.400502080996,1.00000000051772,0.573745062215347
11800.0000000254,273.058243796309,1.00000000051587,0.573629228201177
11900.0000000258,274.577970137965,1.00000000053376,0.574650270849109
12000.0000000261,275.974757569139,1.00000000051222,0.572342307597039
12100.0000000265,277.235078423877,1.00000000049056,0.571456910326376
12200.0000000269,278.371264676487,1.00000000047112,0.574029937162218
12300.0000000272,279.388933155989,1.00000000048604,0.573342363852024
12400.0000000276,280.281000526891,1.00000000048007,0.571542437208347
12500.0000000279,281.058893111752,1.0000000004741,0.56965841112839
12600.0000000283,281.716805808612,1.00000000047052,0.571911445540706
12700.0000000287,282.267161299192,1.00000000046963,0.57458704508559
12800.000000029,282.71812964937,1.00000000048314,0.57095378413737
12900.0000000294,283.057944253542,1.00000000044209,0.565746502423959
13000.0000000298,283.293940264392,1.00000000043255,0.568524191126802
13100.0000000301,283.433318284193,1.0000000004634,0.57573358504671
13200.0000000305,283.490757626796,1.00000000046452,0.573167542142171
13300.0000000309,283.464421321481,1.00000000041515,0.563577734028709
13400.0000000312,283.338357506422,1.00000000039233,0.560631194083633
13500.0000000316,283.128064806457,1.00000000045213,0.570890848976568
13600.0000000319,282.851220274981,1.00000000049007,0.577164739382761
13700.0000000323,282.514623965396,1.00000000045678,0.568093235641815
13800.0000000327,282.108526039868,1.00000000041211,0.556199881189502
13900.000000033,281.616986994463,1.00000000039521,0.555462314065973
14000.0000000334,281.062731636871,1.00000000047038,0.572328031612671
14100.0000000338,280.467942379422,1.00000000050653,0.577554914681159
14200.0000000341,279.835420047417,1.00000000048527,0.566064123024337
14300.0000000345,279.148680029209,1.00000000038487,0.548456591322332
14400.0000000349,278.388965046313,1.0000000003844,0.546130929097002
14500.0000000352,277.579278402948,1.00000000047957,0.569308047065474
14600.0000000356,276.747498308525,1.00000000053143,0.579569321577899
14700.0000000359,275.900076861151,1.00000000050981,0.568723762823732
14800.0000000363,275.018991864633,1.00000000040057,0.544543131675908
14900.0000000367,274.078421403433,1.00000000035468,0.532857553625067
15000.000000037,273.088849209685,1.00000000043406,0.552751889626138
15100.0000000374,272.082892246969,1.00000000054676,0.579717279537477
15200.0000000378,271.077707793779,1.00000000057121,0.577607915542166
15300.0000000381,270.068858447722,1.0000000004806,0.552891252558903
15400.0000000385,269.022028399312,1.00000000035389,0.527200748947648
15500.0000000389,267.928538370285,1.00000000034998,0.52398137901772
15600.0000000392,266.803036166377,1.00000000047096,0.555239904297035
15700.0000000396,265.678590844247,1.00000000060157,0.58301980412983
15800.0000000399,264.569896047542,1.00000000059956,0.573813641511426
15900.0000000403,263.460734126802,1.00000000049109,0.54527316985046
16000.0000000407,262.327610808863,1.00000000034582,0.518175479518482
16100.000000041,261.155295028971,1.00000000035407,0.513155507782638
16200.0000000414,259.956758858427,1.00000000044841,0.54226460903882
16300.0000000418,258.762944942033,1.00000000059852,0.578716266170777
16400.0000000418,257.5884270541,1.00000000063954,0.580157131335158
16500.0000000404,256.428353365404,1.00000000053002,0.551689739916266
16600.0000000389,255.260638367694,1.00000000040154,0.520282671368052
16700.0000000375,254.067029329089,1.00000000035301,0.506316063065526
16800.000000036,252.849534600823,1.00000000037674,0.513721428536051
16900.0000000346,251.622141901823,1.00000000051954,0.550574586415293
17000.0000000331,250.408782415612,1.00000000061611,0.580390807721101
17100.0000000317,249.219217270754,1.00000000065247,0.573653346206004
17200.0000000302,248.041598869538,1.00000000050104,0.541371290441607
17300.0000000287,246.861547173068,1.00000000039519,0.513722899487948
17400.0000000273,245.665394851717,1.00000000035115,0.502442925345451
17500.0000000258,244.453696849445,1.00000000037041,0.509398278114365
17600.0000000244,243.236950369861,1.00000000048578,0.535517846680162
17700.0000000229,242.029519321656,1.00000000060462,0.56761152325829
17800.0000000215,240.842854299802,1.00000000063182,0.572996376873213
17900.00000002,239.673956414121,1.00000000053806,0.550238953095127
18000.0000000186,238.51136959359,1.00000000046391,0.520216795675959
18100.0000000171,237.346124075762,1.00000000039176,0.504364515606257
18200.0000000156,236.171728794102,1.00000000038939,0.50476371799129
18300.0000000142,234.992930485308,1.00000000042185,0.513519467185722
18400.0000000127,233.815073926538,1.00000000049907,0.532608634564964
18500.0000000113,232.647500333873,1.00000000058769,0.556990739156469
18600.0000000098,231.497032517947,1.00000000059921,0.562967199227844
18700.0000000084,230.361105299196,1.00000000056814,0.546486023524613
18800.0000000069,229.234836012602,1.00000000048303,0.521691615939534
18900.0000000055,228.111385335635,1.00000000042014,0.507008719543668
19000.000000004,226.987734487182,1.00000000041576,0.50720894458162
19100.0000000026,225.864664916718,1.00000000039598,0.511848871290256
19200.0000000011,224.742935650717,1.00000000044491,0.517903502496236
19299.9999999996,223.627800356984,1.00000000049851,0.530395301274688
19399.9999999982,222.523293433845,1.00000000055399,0.544525044932133
19499.9999999967,221.430931544013,1.00000000055749,0.549766039363258
19599.9999999953,220.350798727279,1.00000000053148,0.537779816261792
19699.9999999938,219.279419570044,1.00000000049389,0.523339163009462
19799.9999999924,218.214831227465,1.00000000046049,0.513928414560535
19899.9999999909,217.155486817983,1.00000000041945,0.512137405624365
19999.9999999895,216.100456381391,1.0000000004349,0.513956045092589
20099.999999988,215.050831047719,1.00000000042873,0.516021724221446
20199.9999999865,214.006718004612,1.00000000047473,0.519346053872552
20299.9999999851,212.970631595272,1.00000000048168,0.525012741880638
20399.9999999836,211.943999707734,1.00000000049733,0.530921560441425
20499.9999999822,210.926916619842,1.00000000053449,0.539721325578679
20599.9999999807,209.919610668951,1.00000000054778,0.536110866666909
20699.9999999793,208.921234443412,1.00000000052273,0.529534544419551
20799.9999999778,207.931038153425,1.00000000046337,0.521805010495841
20899.9999999764,206.948911781291,1.00000000043696,0.520350160905451
20999.9999999749,205.9741535678,1.00000000040686,0.520527127448349
21099.9999999734,205.007148564507,1.00000000044016,0.519953256123079
21199.999999972,204.047135522409,1.00000000042022,0.514579575448487
21299.9999999705,203.094939943563,1.00000000044957,0.513164004363865
21399.9999999691,202.151239870155,1.00000000047597,0.516608965163786
21499.9999999676,201.21601664359,1.00000000049498,0.526092154693893
21599.9999999662,200.289414345656,1.00000000052048,0.53549390378067
21699.9999999647,199.371262023822,1.00000000051142,0.538828701433643
21799.9999999633,198.461265439706,1.00000000048866,0.533708590646025
21899.9999999618,197.559811066458,1.00000000048753,0.528033211729054
21999.9999999603,196.666598704075,1.00000000047082,0.531252235658807
22099.9999999589,195.782331818785,1.00000000047413,0.532064000847163
22199.9999999574,194.906817808172,1.00000000044771,0.526566229754255
22299.999999956,194.040624934725,1.00000000041139,0.515056073629157
22399.9999999545,193.183929182009,1.00000000038329,0.505551520241136
22499.9999999531,192.336559047416,1.0000000004354,0.505225754682581
22599.9999999516,191.498288539801,1.00000000048059,0.512734398171479
22699.9999999502,190.668401293459,1.0000000005209,0.521983102184652
22799.9999999487,189.845650889049,1.00000000051874,0.530208648656194
22899.9999999473,189.030185987789,1.00000000048863,0.535687190778055
22999.9999999458,188.221998072447,1.00000000048651,0.537072271188664
23099.9999999443,187.42167793114,1.00000000046592,0.53173031798852
23199.9999999429,186.62887417197,1.00000000049988,0.534748995413528
23299.9999999414,185.843302806258,1.00000000052441,0.541028702861863
23399.99999994,185.065459514335,1.00000000049366,0.538736883844545
23499.9999999385,184.296532477017,1.00000000043869,0.525193349740406
23599.9999999371,183.538896688541,1.00000000038195,0.509442893943888
23699.9999999356,182.79332272254,1.00000000036529,0.496452767007229
23799.9999999342,182.059832249832,1.00000000039065,0.493953081144528
23899.9999999327,181.33643621939,1.00000000046892,0.503549323011402
23999.9999999312,180.620926724076,1.00000000051618,0.515201130743652
24099.9999999298,179.911276848958,1.0000000005305,0.521700430202032
24199.9999999283,179.206788827223,1.00000000052016,0.523387457121021
24299.9999999269,178.50788764103,1.00000000049278,0.52961882060818
24399.9999999254,177.815450100241,1.0000000004516,0.534858811966923
24499.999999924,177.129310145223,1.00000000049524,0.533900818675219
24599.9999999225,176.448614845175,1.00000000054084,0.538685540241881
24699.9999999211,175.772195130556,1.00000000054699,0.547491264340026
24799.9999999196,175.10067854618,1.00000000054698,0.542674781517196
24899.9999999181,174.436677905071,1.00000000047382,0.528153360270887
24999.9999999167,173.783230735292,1.0000000004135,0.511958273836571
25099.9999999152,173.143683772139,1.00000000035021,0.496783227803218
25199.9999999138,172.51871381654,1.00000000036384,0.489015851747605
25299.9999999123,171.907273676518,1.0000000004051,0.488078967384424
25399.9999999109,171.305657545398,1.00000000047738,0.499030424803925
25499.9999999094,170.710401686113,1.00000000053798,0.510763731498519
25599.999999908,170.118907615025,1.00000000054478,0.515928236257825
25699.9999999065,169.531032427042,1.00000000052696,0.512730314860807
25799.9999999051,168.946870354361,1.0000000004917,0.516549099661122
25899.9999999036,168.366833210004,1.00000000046371,0.52889066273815
25999.9999999021,167.790463094496,1.00000000050184,0.537144443305392
26099.9999999007,167.216995728518,1.00000000049867,0.538686327761533
26199.9999998992,166.646051464885,1.00000000051261,0.539272227345246
26299.9999998978,166.077656993147,1.00000000053039,0.543210334911335
26399.9999998963,165.512418359064,1.00000000053079,0.540018974005879
26499.9999998949,164.952857029426,1.00000000048992,0.52658028431615
26599.9999998934,164.403207964013,1.00000000041333,0.510597577737063
26699.999999892,163.866241248499,1.0000000003986,0.500503797182717
26799.9999998905,163.344050579688,1.00000000037934,0.493943352889609
26899.999999889,162.836210862603,1.00000000041485,0.491022207424499
26999.9999998876,162.340303857566,1.00000000044453,0.490281262449488
27099.9999998861,161.853856799561,1.00000000046792,0.495065358102759
27199.9999998847,161.373309131736,1.00000000049993,0.501989338937141
27299.9999998832,160.896611813785,1.00000000049285,0.508359504456024
27399.9999998818,160.422300548263,1.00000000052836,0.511815170825574
27499.9999998803,159.948945502223,1.00000000051181,0.514535309682726
27599.9999998789,159.476470076843,1.00000000049225,0.520465305611332
27699.9999998774,159.004635109735,1.00000000051635,0.530554946471908
27799.9999998759,158.533343554895,1.00000000051279,0.537423449423613
27899.9999998745,158.062617877144,1.00000000052107,0.539175754016609
27999.999999873,157.593024905398,1.00000000049946,0.534523230310075
28099.9999998716,157.125866302923,1.00000000049788,0.532096982640689
28199.9999998701,156.662080809108,1.00000000050465,0.532174220803616
28299.9999998687,156.202933750295,1.00000000050601,0.526683834049715
28399.9999998672,155.750646168543,1.00000000047645,0.5185425191836
28499.9999998658,155.306860830496,1.00000000042957,0.51016340582877
28599.9999998643,154.87441237261,1.00000000043236,0.504063178029396
28699.9999998629,154.454118819348,1.00000000041704,0.502450863654183
28799.9999998614,154.046540640753,1.00000000041024,0.498132507664147
28899.9999998599,153.651113990365,1.00000000041143,0.493495839085518
