Time,AGPnorm,Energy,Entropy
0,0,1,-7.17796353033395e-17
99.9999999999986,0.00187319040970708,1.00000000000232,0.00552783461231994
199.999999999993,0.0119589428463362,1.00000000000254,0.0162072731319871
300,0.0242758785204034,1.00000000000072,0.0298055213029395
400.000000000022,0.0368465639760805,0.999999999999876,0.0466968975113001
500.000000000045,0.0509732096454916,1.00000000000088,0.0674040169048707
600.000000000068,0.0696387458113724,1.00000000000238,0.0921745313047545
700.000000000091,0.0868952050976951,1.00000000000175,0.120835940280356
800.000000000113,0.104961425601111,1.00000000000243,0.155241828438092
900.000000000136,0.121875814961037,1.00000000002539,0.19935773097206
1000.00000000016,0.136689589261285,1.00000000015994,0.25546620409374
1100.0000000001,0.16458550318836,1.00000000047023,0.315927279144978
1200,0.254497472181502,1.0000000009126,0.370724189359221
1299.99999999991,0.44319845968974,1.00000000132785,0.417988011676128
1399.99999999982,0.819874130235209,1.00000000168815,0.458053280828786
1499.99999999973,1.52292536721874,1.00000000201464,0.490857916885931
1599.99999999964,2.63562152755777,1.00000000220917,0.517403864861344
1699.99999999955,4.16555306302826,1.00000000232329,0.538874246848809
1799.99999999946,6.10435147185373,1.0000000024822,0.555524708856371
1899.99999999937,8.42426250456467,1.00000000252911,0.568106151279924
1999.99999999928,11.0619698868001,1.00000000245641,0.577845588622438
2099.99999999919,13.9442088933433,1.00000000240338,0.584952782209346
2199.99999999909,16.9926604891183,1.00000000235179,0.589223434890656
2299.999999999,20.1096115194731,1.00000000246233,0.591453275592682
2399.99999999891,23.2051123964292,1.00000000222471,0.592718683471414
2499.99999999882,26.217181337316,1.00000000221099,0.59400338943517
2599.99999999873,29.1028648000357,1.00000000227298,0.592207152093801
2699.99999999864,31.8110310714248,1.00000000206351,0.59081108069174
2799.99999999855,34.2901591219416,1.00000000195762,0.589049849578184
2899.99999999846,36.512517498688,1.00000000184105,0.588317864000587
2999.99999999837,38.4713056471583,1.00000000180888,0.585963363385194
3099.99999999828,40.1665814630411,1.00000000171293,0.581694262648415
3199.99999999819,41.592863260697,1.00000000163584,0.579643063800707
3299.99999999809,42.7457718609278,1.00000000169717,0.580004836306578
3399.999999998,43.6381590587008,1.00000000143302,0.575511881407666
3499.99999999791,44.291231276013,1.00000000146047,0.577689861809006
3599.99999999782,44.7173309404465,1.00000000138106,0.573316800393521
3699.99999999773,44.9472475611258,1.00000000138969,0.572278946641542
3799.99999999764,44.9859009865607,1.00000000139361,0.569811147858187
3899.99999999755,44.8775314664434,1.00000000147814,0.572109670126511
3999.99999999746,44.6250176594199,1.00000000127314,0.557463686096378
4099.99999999738,44.289144884254,1.00000000148068,0.571068780567465
4199.99999999775,43.8486607278133,1.00000000107339,0.539401763819618
4299.99999999811,43.3507013258307,1.0000000016233,0.579722888066138
4399.99999999848,42.8068660569413,1.00000000109104,0.53200058614061
4499.99999999884,42.2017576037561,1.0000000016361,0.571217151165875
4599.9999999992,41.6079514495161,1.00000000156319,0.551246372861005
4699.99999999957,40.9710694215878,1.00000000114311,0.512482521708433
4799.99999999993,40.320409109765,1.00000000183092,0.577653534088197
4900.00000000029,39.6926137660583,1.00000000138346,0.522907829066131
5000.00000000066,39.0387708408953,1.00000000122883,0.504852027901563
5100.00000000102,38.3842516520144,1.00000000170509,0.561133915219707
5200.00000000139,37.7594584159292,1.00000000156732,0.528117166101569
5300.00000000175,37.1332572879278,1.00000000113251,0.496693046105427
5400.00000000211,36.5001753345608,1.00000000152366,0.522748933079217
5500.00000000248,35.8893430560274,1.00000000175787,0.550801782345671
5600.00000000284,35.2988472427291,1.00000000136973,0.501061198727414
5700.00000000321,34.7151970990678,1.00000000120299,0.503750679510383
5800.00000000357,34.1375163180321,1.00000000151076,0.518865706996418
5900.00000000393,33.5768361982395,1.00000000163497,0.537649297513654
6000.0000000043,33.0346759819677,1.00000000154145,0.514761972844038
6100.00000000466,32.5085126779506,1.00000000123147,0.499522556042431
6200.00000000502,31.9962393205804,1.00000000149089,0.533529278225232
6300.00000000539,31.4978348176924,1.00000000149359,0.515350567103729
6400.00000000575,31.0151071426209,1.00000000167092,0.531719505514199
6500.00000000612,30.5469052055568,1.00000000151268,0.514211411545475
6600.00000000648,30.0985307866461,1.000000001171,0.500431591545089
6700.00000000684,29.6669562268445,1.00000000155003,0.534664494942544
6800.00000000721,29.2480094673547,1.00000000137702,0.528619616938856
6900.00000000757,28.8475417972698,1.00000000132208,0.504623055469491
7000.00000000793,28.4600499137911,1.00000000161075,0.525102178093087
7100.0000000083,28.0823351925477,1.00000000144916,0.511314000208262
7200.00000000866,27.7248936331737,1.00000000130066,0.505918100016396
7300.00000000903,27.3829669842439,1.00000000157081,0.528642801742529
7400.00000000939,27.0471774961058,1.00000000166895,0.53598490025478
7500.00000000975,26.7277446712179,1.00000000122622,0.510382791496456
7600.00000001012,26.42571675999,1.00000000142027,0.508253452205578
7700.00000001048,26.1328392404016,1.00000000170132,0.529676653762107
7800.00000001084,25.8472004763116,1.00000000157786,0.514620723349175
7900.00000001121,25.5769169847345,1.00000000134819,0.511710619411899
8000.00000001157,25.3203126478795,1.00000000144964,0.530112397357022
8100.00000001194,25.0710397213217,1.00000000156902,0.530209364501486
8200.0000000123,24.8258017377802,1.00000000149822,0.528707224677648
8300.00000001266,24.5923644097753,1.00000000137412,0.528696104725275
8400.00000001303,24.3727267922524,1.0000000013729,0.507807981771209
8500.00000001339,24.1639932402376,1.00000000153712,0.530469317467211
8600.00000001376,23.9623341214379,1.00000000160429,0.534471536399782
8700.00000001412,23.7678320358988,1.00000000147173,0.526876079731485
8800.00000001448,23.5865045242143,1.00000000140117,0.525057324121135
8900.00000001485,23.4127250902961,1.00000000147368,0.538808514893932
9000.00000001521,23.2471998786864,1.00000000138129,0.534860187021129
9100.00000001557,23.0902307849065,1.00000000144236,0.530604266253512
9200.00000001594,22.934509604209,1.00000000158994,0.535896768355313
9300.0000000163,22.7781834567901,1.00000000149708,0.549490983538577
9400.00000001667,22.6284519002104,1.00000000143528,0.535132545043108
9500.00000001703,22.4923891316439,1.00000000144207,0.528683286544135
9600.00000001739,22.3649852845996,1.00000000162575,0.549307401895726
9700.00000001776,22.2398603618127,1.00000000162387,0.542381294189959
9800.00000001812,22.1212533933302,1.00000000147974,0.538957478241521
9900.00000001848,22.0128480450957,1.00000000144787,0.537648196765197
10000.0000000188,21.912109851639,1.00000000145663,0.539622917954604
10100.0000000192,21.8088717970056,1.00000000158881,0.552069803638271
10200.0000000196,21.7117479510588,1.00000000134294,0.533271336838576
10300.0000000199,21.6279598351698,1.00000000137939,0.536357262336687
10400.0000000203,21.5446078914479,1.00000000159813,0.545360484549266
10500.0000000207,21.4547012076372,1.00000000162649,0.548692554659828
10600.000000021,21.3593399236076,1.00000000157918,0.563400901933227
10700.0000000214,21.2678222266171,1.00000000146827,0.559797534223833
10800.0000000218,21.1805759329587,1.00000000150332,0.560447057182307
10900.0000000221,21.0984524380841,1.00000000157684,0.564066006464839
11000.0000000225,21.0219045301088,1.00000000153532,0.553383109620192
11100.0000000229,20.9523435971399,1.00000000153739,0.548299236818363
11200.0000000232,20.8899973711856,1.00000000153758,0.545149361949999
11300.0000000236,20.8370888712431,1.00000000149581,0.551117835059319
11400.0000000239,20.7858806141918,1.0000000015623,0.564586638735961
11500.0000000243,20.7385478334204,1.00000000153526,0.556735280887411
11600.0000000247,20.6914216555416,1.00000000164336,0.557530277917245
11700.000000025,20.6455989254514,1.00000000153024,0.561151786451701
11800.0000000254,20.6050869433035,1.00000000154996,0.55417855151558
11900.0000000258,20.5695765140189,1.00000000160756,0.561978561953358
12000.0000000261,20.5338937870459,1.00000000155592,0.570607516990313
12100.0000000265,20.4988270100237,1.00000000143235,0.561174328556714
12200.0000000269,20.4622845013226,1.00000000157496,0.574292948657234
12300.0000000272,20.4184919900415,1.00000000167938,0.584311762827303
12400.0000000276,20.3652995104269,1.00000000166585,0.601422122610747
12500.0000000279,20.3055468729179,1.00000000158769,0.603575034896347
12600.0000000283,20.2467641273316,1.00000000145993,0.593274944331131
12700.0000000287,20.1959618407051,1.00000000147865,0.58307840901389
12800.000000029,20.1526268017385,1.000000001486,0.577323259934975
12900.0000000294,20.1169839942306,1.00000000152131,0.566577874767782
13000.0000000298,20.0887263597135,1.00000000156323,0.564136256646863
13100.0000000301,20.0663463040183,1.00000000156345,0.569857252468029
13200.0000000305,20.0491303792019,1.00000000154929,0.577743216928132
13300.0000000309,20.0353156346058,1.00000000156118,0.577852260908333
13400.0000000312,20.0181427826311,1.00000000163699,0.580952872756343
13500.0000000316,20.0045424330271,1.00000000148682,0.578237082931344
13600.0000000319,19.9982373951352,1.00000000150394,0.569788163028012
13700.0000000323,19.9931395303597,1.00000000159551,0.566667029594221
13800.0000000327,19.9845164302939,1.00000000159578,0.573947859242179
13900.000000033,19.9758825562376,1.00000000152068,0.579339486501954
14000.0000000334,19.9724429267053,1.00000000154013,0.582799977956291
14100.0000000338,19.9709242861754,1.00000000147999,0.588802422188609
14200.0000000341,19.9653115874501,1.0000000016075,0.603640263280894
14300.0000000345,19.9563947758986,1.00000000164911,0.608875806510602
14400.0000000349,19.9443473831957,1.00000000157736,0.612563360819675
14500.0000000352,19.9301956337686,1.00000000150132,0.607506239056536
14600.0000000356,19.9117883324295,1.00000000171515,0.607808588509715
14700.0000000359,19.8862407022051,1.00000000170964,0.609419668827631
14800.0000000363,19.8519650437938,1.0000000017312,0.606237729871953
14900.0000000367,19.8097385131198,1.00000000175363,0.606134867135835
15000.000000037,19.7628371956566,1.00000000158486,0.611923638202796
15100.0000000374,19.7180442191358,1.00000000150806,0.611654628574812
15200.0000000378,19.679955237902,1.00000000151409,0.601236842029213
15300.0000000381,19.6483662439135,1.00000000156327,0.595186778560696
15400.0000000385,19.6238912869643,1.00000000167484,0.590838214413555
15500.0000000389,19.6071445347633,1.00000000154412,0.584666204978057
15600.0000000392,19.5961509231935,1.00000000157367,0.58108883234224
15700.0000000396,19.5928792390584,1.00000000159693,0.584483592409898
15800.0000000399,19.594362218189,1.00000000165354,0.591860479859572
15900.0000000403,19.5985525978537,1.00000000169096,0.595591988208131
16000.0000000407,19.6038781136421,1.00000000158537,0.595540375387011
16100.000000041,19.6114791397379,1.00000000166906,0.59246467210072
16200.0000000414,19.6190417409164,1.00000000162258,0.584666970235026
16300.0000000418,19.6304093353188,1.00000000166971,0.584730185491236
16400.0000000418,19.6422453749775,1.00000000163419,0.588111137870776
16500.0000000404,19.653812606939,1.00000000163338,0.597259101942236
16600.0000000389,19.665185114458,1.00000000163123,0.595550315551613
16700.0000000375,19.67505917185,1.00000000161408,0.591065175234087
16800.000000036,19.6840309019403,1.00000000171471,0.590720011750552
16900.0000000346,19.693891865464,1.00000000159277,0.582972796676577
17000.0000000331,19.7045863184389,1.00000000168274,0.587205901301359
17100.0000000317,19.7158591585977,1.00000000169707,0.600743986121339
17200.0000000302,19.7281746180361,1.00000000164427,0.607153041469385
17300.0000000287,19.7384729972181,1.00000000170314,0.610942899420888
17400.0000000273,19.7466438136775,1.00000000163162,0.618573312496789
17500.0000000258,19.7486483213844,1.00000000165573,0.62314511148658
17600.0000000244,19.7464589034597,1.00000000174311,0.628955749616432
17700.0000000229,19.7415984860735,1.00000000167154,0.627836534693922
17800.0000000215,19.7327379536051,1.00000000177461,0.63587225635334
17900.00000002,19.7216416823016,1.00000000172653,0.632285197406126
18000.0000000186,19.7076828309182,1.00000000166255,0.630921858291443
18100.0000000171,19.6915030117255,1.00000000158507,0.629475436342246
18200.0000000156,19.6753801519044,1.00000000160054,0.629613254614744
18300.0000000142,19.6554029826688,1.00000000176896,0.632142927311105
18400.0000000127,19.6290892121753,1.00000000183538,0.62800571864247
18500.0000000113,19.5939434286098,1.00000000184401,0.629066925665162
18600.0000000098,19.5545239754554,1.00000000181546,0.624001593507171
18700.0000000084,19.5117462557574,1.00000000182084,0.623373692892885
18800.0000000069,19.4700328487254,1.00000000155037,0.617571629091575
18900.0000000055,19.4321397645492,1.00000000158171,0.615673046885607
19000.000000004,19.3996627577462,1.0000000016863,0.619207216960039
19100.0000000026,19.3732998166499,1.00000000160787,0.615571269748522
19200.0000000011,19.3525592975435,1.0000000016983,0.614050190806241
19299.9999999996,19.3390278841577,1.00000000174204,0.614804085107524
19399.9999999982,19.3320101948925,1.00000000168933,0.607141985435473
19499.9999999967,19.3301585988896,1.00000000166727,0.598789778182071
19599.9999999953,19.3345311900047,1.00000000164497,0.587945347050211
19699.9999999938,19.3436792493153,1.0000000017544,0.590502848993054
19799.9999999924,19.3576120608688,1.00000000183479,0.604796412536928
19899.9999999909,19.3727211662694,1.00000000189734,0.604916805240362
19999.9999999895,19.389830962432,1.00000000184819,0.607712886944235
20099.999999988,19.4080221910764,1.00000000173914,0.603492316776928
20199.9999999865,19.4279954775493,1.00000000173196,0.605360895200881
20299.9999999851,19.4505038188696,1.00000000166322,0.601820122568329
20399.9999999836,19.4753338188376,1.00000000174146,0.595990000767496
20499.9999999822,19.5009078115366,1.00000000172181,0.597777248101743
20599.9999999807,19.5282316216922,1.00000000177563,0.601895770922168
20699.9999999793,19.5553634266783,1.00000000182114,0.600894144394513
20799.9999999778,19.5793503387861,1.00000000184015,0.603453138130034
20899.9999999764,19.6017722034239,1.00000000172514,0.604929172012284
20999.9999999749,19.6260734536642,1.00000000182291,0.603381268318913
21099.9999999734,19.6490496558275,1.00000000184343,0.609132322172062
21199.999999972,19.6716433930688,1.00000000191202,0.608342674281962
21299.9999999705,19.6931933178428,1.00000000172682,0.613823665741866
21399.9999999691,19.7147670482225,1.00000000174919,0.618912027751579
21499.9999999676,19.7360928637323,1.00000000183452,0.636321201048127
21599.9999999662,19.7556941881482,1.00000000187466,0.646528464744227
21699.9999999647,19.7721842970367,1.00000000190532,0.649532005322536
21799.9999999633,19.7861617252449,1.00000000187761,0.645711957065655
21899.9999999618,19.7963411123655,1.00000000193491,0.648559295405612
21999.9999999603,19.8058633162346,1.00000000187993,0.643632860897575
22099.9999999589,19.8179053299736,1.00000000176688,0.64777474076997
22199.9999999574,19.8301958633078,1.00000000177924,0.647254715928896
22299.999999956,19.8430893277209,1.00000000174156,0.648716649693582
22399.9999999545,19.8548917611902,1.00000000197531,0.650640857471444
22499.9999999531,19.8620376772097,1.00000000183122,0.649015749240003
22599.9999999516,19.8684530152312,1.00000000174822,0.654527597294278
22699.9999999502,19.873364036227,1.00000000186024,0.656099480196108
22799.9999999487,19.8770345252025,1.00000000186314,0.657390696768725
22899.9999999473,19.8786858062755,1.00000000184591,0.65491225133682
22999.9999999458,19.8794436247605,1.0000000018495,0.65590179947523
23099.9999999443,19.8807567691417,1.00000000178537,0.640211757281483
23199.9999999429,19.8798214659829,1.0000000018967,0.648081166059259
23299.9999999414,19.8753352034356,1.00000000197657,0.650673436982778
23399.99999994,19.8701360969668,1.00000000177886,0.651718144598358
23499.9999999385,19.8637540136099,1.0000000018667,0.652136846074358
23599.9999999371,19.8532362554257,1.00000000197606,0.660217452008597
23699.9999999356,19.8406024380395,1.00000000185406,0.662077629468403
23799.9999999342,19.8262408204827,1.00000000192064,0.654994196713169
23899.9999999327,19.8123076394099,1.00000000179345,0.661065215181925
23999.9999999312,19.7971760130551,1.00000000192989,0.66517696170537
24099.9999999298,19.7787181944649,1.00000000184758,0.667114167529118
24199.9999999283,19.7590163459505,1.00000000180227,0.653184781382775
24299.9999999269,19.7389101723634,1.00000000192069,0.657790042722225
24399.9999999254,19.7177427338943,1.00000000191231,0.660062005782114
24499.999999924,19.6961749983666,1.00000000187197,0.65424237922582
24599.9999999225,19.6722176974624,1.00000000192082,0.660797286466493
24699.9999999211,19.6447186698445,1.00000000197285,0.661791324572635
24799.9999999196,19.6135202321333,1.00000000207733,0.666631942684824
24899.9999999181,19.5797220943878,1.0000000019821,0.664300548419647
24999.9999999167,19.5451784348475,1.00000000187547,0.663398953776643
25099.9999999152,19.5105112108537,1.00000000183085,0.665378991738554
25199.9999999138,19.4776938691163,1.00000000178557,0.659042406493364
25299.9999999123,19.4487493028662,1.00000000183276,0.654718417251633
25399.9999999109,19.4237904471619,1.0000000018718,0.646970192155089
25499.9999999094,19.4041294880088,1.00000000183628,0.647722734672179
25599.999999908,19.3904900474342,1.00000000177689,0.651319283611964
25699.9999999065,19.3825627037115,1.00000000188488,0.653653465469584
25799.9999999051,19.37874250052,1.00000000195483,0.655438656106543
25899.9999999036,19.3806950328991,1.00000000185092,0.649845124815219
25999.9999999021,19.387809819916,1.00000000193982,0.645251298451631
26099.9999999007,19.3994896516774,1.0000000018494,0.633964650884694
26199.9999998992,19.4173922646571,1.00000000195252,0.628703007196686
26299.9999998978,19.4392478272302,1.0000000019575,0.624293711375793
26399.9999998963,19.4643471343545,1.00000000195304,0.624289861307822
26499.9999998949,19.4935867482024,1.00000000188538,0.619689254579597
26599.9999998934,19.5246503297259,1.00000000203686,0.629468538185436
26699.999999892,19.5555490493666,1.00000000199625,0.63099119144892
26799.9999998905,19.5898822982709,1.00000000188778,0.618739266207933
26899.999999889,19.625156439524,1.00000000208499,0.616523850954353
26999.9999998876,19.6605724895193,1.00000000203102,0.61386510383613
27099.9999998861,19.7009623559948,1.00000000186141,0.61397812079561
27199.9999998847,19.7440988132602,1.00000000204152,0.619917654739825
27299.9999998832,19.7883463493306,1.0000000019948,0.616426586732372
27399.9999998818,19.8335007416098,1.00000000214268,0.622004958969265
27499.9999998803,19.8788583635812,1.00000000195035,0.620817271207253
27599.9999998789,19.9257058506223,1.00000000206396,0.626412664613884
27699.9999998774,19.969697007891,1.00000000216399,0.626408452455993
27799.9999998759,20.0141653204402,1.00000000197453,0.627012019375886
27899.9999998745,20.0595482616216,1.0000000020332,0.626256433008743
27999.999999873,20.1040467738723,1.00000000200749,0.621950160142369
28099.9999998716,20.1501154542738,1.00000000212048,0.622925561903227
28199.9999998701,20.1956531940337,1.00000000202919,0.622281432154903
28299.9999998687,20.2409015316663,1.00000000210391,0.623418643554426
28399.9999998672,20.2841787280132,1.0000000021911,0.637145390152185
28499.9999998658,20.3248745862029,1.00000000210109,0.639202589472015
28599.9999998643,20.3663199600209,1.00000000210404,0.643177913640167
28699.9999998629,20.4086275930262,1.00000000203825,0.642943039720305
28799.9999998614,20.4500514203445,1.00000000204023,0.641565038659505
28899.9999998599,20.4927394650955,1.00000000201793,0.649047865165246
28999.9999998585,20.5331326136475,1.00000000227791,0.658732778802373
