Time,AGPnorm,Energy,Entropy
0,0,1,-7.8621239050773e-17
99.9999999999986,0.000371575421895364,0.999999999998782,0.00145996336991196
199.999999999993,0.00249259934903559,0.999999999996245,0.0043816106138056
300,0.0053468387857067,0.999999999996748,0.00810603454673277
400.000000000022,0.00809487417252856,0.999999999999399,0.0128480688048163
500.000000000045,0.0114865604898957,0.999999999999638,0.0187197516354738
600.000000000068,0.0160547741814193,0.999999999997107,0.0254058206173583
700.000000000091,0.0215551432912448,0.999999999996178,0.0325569047051199
800.000000000113,0.0269341644172728,0.999999999998348,0.0403260072285863
900.000000000136,0.0327924136653389,0.999999999999952,0.0490132351188792
1000.00000000016,0.0396171572714044,0.999999999998157,0.058449677851564
1100.0000000001,0.0468706794383516,0.999999999996242,0.0684144555399537
1200,0.0543167799692811,0.999999999997382,0.0790183785870353
1299.99999999991,0.0617938806914035,0.99999999999947,0.0905462258253006
1399.99999999982,0.0699056870904638,0.999999999999238,0.103143725063047
1499.99999999973,0.0779195480289692,0.999999999996856,0.116620044861973
1599.99999999964,0.0867837965092072,0.999999999996965,0.131114015871315
1699.99999999955,0.0947940610407545,0.999999999999183,0.147084517594045
1799.99999999946,0.103128610653357,1.00000000000129,0.164916276952229
1899.99999999937,0.11122876773168,1.00000000000167,0.18486623629776
1999.99999999928,0.120836460474346,1.000000000007,0.206811169681048
2099.99999999919,0.13256445989253,1.00000000002073,0.230968108084932
2199.99999999909,0.145040543722493,1.00000000004169,0.256859448659532
2299.999999999,0.162520346932405,1.00000000007349,0.283828238757058
2399.99999999891,0.203148573380091,1.00000000010697,0.310153010396468
2499.99999999882,0.289981588328309,1.00000000015232,0.335306768774147
2599.99999999873,0.433368576365369,1.00000000019841,0.359031583426961
2699.99999999864,0.663229830664909,1.0000000002631,0.380994394656092
2799.99999999855,1.04307228543247,1.00000000028373,0.401032043494347
2899.99999999846,1.63368909319031,1.0000000003358,0.41870407569478
2999.99999999837,2.46022869076342,1.00000000038617,0.434799881817263
3099.99999999828,3.55607737535678,1.00000000041121,0.449529607806536
3199.99999999819,4.99733150188586,1.000000000451,0.462688579594447
3299.99999999809,6.84442842750132,1.00000000046593,0.473959884403201
3399.999999998,9.10284868631877,1.00000000048584,0.484127470934658
3499.99999999791,11.7714076547067,1.00000000050686,0.493388015511235
3599.99999999782,14.8857506552619,1.00000000054553,0.501696566114602
3699.99999999773,18.4863431526033,1.00000000053107,0.508457124243403
3799.99999999764,22.5453499564797,1.0000000005377,0.514190585450521
3899.99999999755,27.0168018971584,1.00000000054137,0.519806756094915
3999.99999999746,31.8917529612877,1.00000000058194,0.524838815044903
4099.99999999738,37.1832541283771,1.00000000058692,0.52793605312634
4199.99999999775,42.8508602952682,1.00000000057587,0.530855102638671
4299.99999999811,48.8202187912427,1.00000000059397,0.534278811604931
4399.99999999848,55.0522418218365,1.00000000056074,0.53630986361511
4499.99999999884,61.538542646074,1.00000000054475,0.537625614593449
4599.9999999992,68.2473134791881,1.0000000005471,0.538859821930122
4699.99999999957,75.0997652305837,1.00000000053088,0.540037249585535
4799.99999999993,82.0452557876474,1.00000000054569,0.54032790325701
4900.00000000029,89.0619254843439,1.00000000054013,0.540562720044327
5000.00000000066,96.1285536710799,1.00000000053705,0.540627841284509
5100.00000000102,103.189712781536,1.0000000005194,0.539961343992466
5200.00000000139,110.190119228981,1.00000000050945,0.539691548753374
5300.00000000175,117.105852965442,1.00000000050294,0.539912835652374
5400.00000000211,123.923303827198,1.00000000050339,0.538507385932159
5500.00000000248,130.614683130766,1.00000000048639,0.537035178509401
5600.00000000284,137.134372010549,1.00000000047329,0.536908789705979
5700.00000000321,143.456819637303,1.00000000047538,0.535855603630218
5800.00000000357,149.576712156882,1.00000000046514,0.533707172147102
5900.00000000393,155.481103860569,1.00000000044323,0.532250825917489
6000.0000000043,161.144621500095,1.00000000042658,0.53162295765939
6100.00000000466,166.54211141623,1.000000000424,0.530285563263721
6200.00000000502,171.670898455097,1.00000000042923,0.528063718958205
6300.00000000539,176.529916577789,1.0000000004258,0.526785358327886
6400.00000000575,181.112080732457,1.00000000041611,0.526238359911784
6500.00000000612,185.401158460123,1.00000000039229,0.524754391812098
6600.00000000648,189.392328123597,1.00000000038968,0.521647790766631
6700.00000000684,193.093008657812,1.00000000037559,0.520239258179939
6800.00000000721,196.508940142215,1.00000000037252,0.521569993690545
6900.00000000757,199.641239271252,1.00000000038156,0.521279858225537
7000.00000000793,202.480175785223,1.00000000037235,0.516701210911849
7100.0000000083,205.028788449828,1.0000000003545,0.511647646774845
7200.00000000866,207.298200703461,1.00000000035741,0.513093028456926
7300.00000000903,209.306540792612,1.00000000036459,0.52051980767339
7400.00000000939,211.068513535272,1.00000000034751,0.522729555934386
7500.00000000975,212.583784742705,1.00000000032431,0.513974941316454
7600.00000001012,213.839016006717,1.00000000031102,0.500068669008663
7700.00000001048,214.828618337027,1.00000000028225,0.498707918948298
7800.00000001084,215.582565926938,1.00000000031213,0.515086573433259
7900.00000001121,216.149939437807,1.00000000033982,0.530553628861599
8000.00000001157,216.563029980741,1.00000000034544,0.528688582957945
8100.00000001194,216.805806442025,1.00000000030027,0.506308481317406
8200.0000000123,216.828721087311,1.00000000023952,0.479352552399123
8300.00000001266,216.612108595541,1.00000000022554,0.480165783128686
8400.00000001303,216.205336543267,1.00000000028376,0.509959236990127
8500.00000001339,215.697391076543,1.00000000035393,0.537668264226287
8600.00000001376,215.147495487681,1.00000000040503,0.545156023198658
8700.00000001412,214.546604970121,1.00000000035642,0.524097964804329
8800.00000001448,213.826342366095,1.00000000025736,0.479633072962523
8900.00000001485,212.92024337585,1.00000000018257,0.445005625397977
9000.00000001521,211.83040120065,1.00000000020711,0.458595873960834
9100.00000001557,210.632505912246,1.00000000031646,0.50507977875484
9200.00000001594,209.418186842225,1.00000000039755,0.542018014359347
9300.0000000163,208.242161562258,1.00000000043979,0.553992377211759
9400.00000001667,207.105019220454,1.00000000040605,0.53955178997649
9500.00000001703,205.950846716191,1.00000000030527,0.494091306127393
9600.00000001739,204.701201486565,1.00000000019866,0.430102683289625
9700.00000001776,203.309204528791,1.00000000013804,0.398389037073042
9800.00000001812,201.798471547713,1.00000000019158,0.432580676999141
9900.00000001848,200.24214237472,1.00000000031809,0.493329642394365
10000.0000000188,198.710070256818,1.00000000041867,0.535850404926571
10100.0000000192,197.245412634135,1.00000000046125,0.553827606903402
10200.0000000196,195.855780819826,1.00000000044784,0.550806943741109
10300.0000000199,194.513798506071,1.00000000038733,0.52218047889849
10400.0000000203,193.164420142468,1.00000000029003,0.461423906620902
10500.0000000207,191.751164161808,1.0000000001726,0.38849563167821
10600.000000021,190.249650728443,1.00000000012146,0.352954549970678
10700.0000000214,188.679761307641,1.00000000017045,0.38499700455389
10800.0000000218,187.087988235453,1.00000000029335,0.453113372270223
10900.0000000221,185.516453030728,1.00000000040585,0.508971027076337
11000.0000000225,183.993878252298,1.00000000045881,0.537261575469201
11100.0000000229,182.536074647641,1.000000000475,0.546880628962511
11200.0000000232,181.143387461548,1.00000000047063,0.543501848747116
11300.0000000236,179.799364011063,1.00000000039717,0.523424319581503
11400.0000000239,178.472786055743,1.00000000034015,0.477431110207496
11500.0000000243,177.129653472083,1.00000000023371,0.409938727302814
11600.0000000247,175.748431325366,1.00000000015839,0.350650468349397
11700.000000025,174.331924286028,1.00000000012795,0.333644473129071
11800.0000000254,172.90058987785,1.00000000017662,0.363735109328918
11900.0000000258,171.474611813764,1.0000000002759,0.425583447390213
12000.0000000261,170.066426762302,1.00000000037284,0.482206379472495
12100.0000000265,168.684393951347,1.00000000042409,0.5136699287524
12200.0000000269,167.336140540724,1.0000000004579,0.524618155250837
12300.0000000272,166.02714701639,1.00000000047159,0.529979502996193
12400.0000000276,164.758000075013,1.00000000045881,0.534359170335176
12500.0000000279,163.522042143186,1.00000000041778,0.525304126319493
12600.0000000283,162.306608825653,1.00000000036288,0.49574782029362
12700.0000000287,161.098167972978,1.00000000030286,0.450748629367347
12800.000000029,159.888491538216,1.00000000022218,0.401013248909107
12900.0000000294,158.678266702977,1.00000000019003,0.361745050299018
13000.0000000298,157.475347601716,1.00000000018247,0.346837741896534
13100.0000000301,156.289784484195,1.00000000019182,0.363134809202103
13200.0000000305,155.12747243428,1.00000000024076,0.395057617588056
13300.0000000309,153.987026411157,1.00000000029434,0.439343608901675
13400.0000000312,152.863194004476,1.00000000033905,0.482727216996238
13500.0000000316,151.752176762794,1.00000000035801,0.505234469040481
13600.0000000319,150.652838384664,1.0000000003645,0.505847822310601
13700.0000000323,149.565156452385,1.00000000038014,0.501341705922524
13800.0000000327,148.489847757587,1.00000000041889,0.508521021848525
13900.000000033,147.428900383614,1.00000000042903,0.525843337614366
14000.0000000334,146.384318566884,1.00000000042686,0.535548117716382
14100.0000000338,145.355905042745,1.00000000037681,0.523998885248751
14200.0000000341,144.341708737496,1.00000000032343,0.490860787086641
14300.0000000345,143.341316778388,1.00000000023726,0.445539968428308
14400.0000000349,142.358733382541,1.00000000019354,0.403381907693589
14500.0000000352,141.401375788458,1.00000000018018,0.374961182415997
14600.0000000356,140.475726139767,1.00000000020671,0.364976793577346
14700.0000000359,139.584558548649,1.00000000023451,0.371401715156747
14800.0000000363,138.726873973439,1.00000000025929,0.397690243205547
14900.0000000367,137.897807105029,1.00000000027576,0.424675664063077
15000.000000037,137.089026916314,1.0000000003264,0.448579493948106
15100.0000000374,136.291012586231,1.00000000034874,0.471467020411097
15200.0000000378,135.496847824878,1.00000000036257,0.494798428235592
15300.0000000381,134.706637840876,1.00000000032916,0.503970878878752
15400.0000000385,133.924283713475,1.00000000029827,0.495043127954413
15500.0000000389,133.15224600682,1.00000000029069,0.480052023646815
15600.0000000392,132.386363112359,1.00000000032314,0.475212003270711
15700.0000000396,131.618427233085,1.00000000040723,0.487548855940246
15800.0000000399,130.843259204618,1.00000000044934,0.509150664394416
15900.0000000403,130.061232147708,1.00000000047641,0.529680070460965
16000.0000000407,129.276771462751,1.00000000045429,0.537936994578701
16100.000000041,128.495779789145,1.00000000039778,0.529362920775816
16200.0000000414,127.724188347434,1.00000000032288,0.504601357484466
16300.0000000418,126.968845823988,1.00000000027521,0.467775049858605
16400.0000000418,126.239553248845,1.00000000021307,0.427550734452431
16500.0000000404,125.547438875207,1.00000000016262,0.393619270408564
16600.0000000389,124.901136443328,1.00000000018039,0.37123388026765
16700.0000000375,124.301402793896,1.00000000021965,0.366537742197748
16800.000000036,123.741665184776,1.00000000025934,0.377543216195036
16900.0000000346,123.212099415257,1.00000000029728,0.397225111621269
17000.0000000331,122.705263594159,1.00000000030483,0.420790474639981
17100.0000000317,122.213603059565,1.00000000031882,0.444183029821298
17200.0000000302,121.730154103415,1.00000000033295,0.463221534609182
17300.0000000287,121.247655647687,1.00000000037246,0.47624139596983
17400.0000000273,120.760812659296,1.00000000037316,0.48738109510636
17500.0000000258,120.266980069446,1.00000000035013,0.49748899285602
17600.0000000244,119.768185939615,1.00000000034766,0.504851849993629
17700.0000000229,119.270168890213,1.00000000029815,0.505448604512187
17800.0000000215,118.77926733559,1.00000000026542,0.500111931149722
17900.00000002,118.299882683853,1.00000000025378,0.490317740843164
18000.0000000186,117.829303692268,1.00000000026164,0.482706901869915
18100.0000000171,117.360452637906,1.00000000031702,0.479261908808539
18200.0000000156,116.883595573401,1.00000000036818,0.480500119143605
18300.0000000142,116.391012886638,1.00000000040898,0.489662436364892
18400.0000000127,115.879438151254,1.00000000041624,0.501521506200278
18500.0000000113,115.350028560798,1.00000000043412,0.517584649358471
18600.0000000098,114.807757845128,1.00000000043085,0.532659398016437
18700.0000000084,114.259198302254,1.00000000041106,0.537619262075682
18800.0000000069,113.711631001909,1.00000000036779,0.529374793193801
18900.0000000055,113.172949147586,1.00000000030913,0.508845664186589
19000.000000004,112.652696465095,1.00000000025771,0.478666941116978
19100.0000000026,112.160390161775,1.00000000021945,0.446373916574482
19200.0000000011,111.705095467169,1.00000000019105,0.422343133724209
19299.9999999996,111.294061929068,1.00000000019749,0.406328875236636
19399.9999999982,110.931206092752,1.00000000019131,0.394199547473595
19499.9999999967,110.617228637801,1.00000000020874,0.387621498236972
19599.9999999953,110.348075193733,1.00000000024187,0.386779843609825
19699.9999999938,110.113731951944,1.00000000027332,0.396894001826062
19799.9999999924,109.899863560756,1.00000000032437,0.419787601570036
19899.9999999909,109.69392567084,1.00000000035332,0.443395204714191
19999.9999999895,109.488875072573,1.00000000034303,0.460932649339331
20099.999999988,109.284009670338,1.00000000034065,0.471859863438117
20199.9999999865,109.0834728778,1.0000000003029,0.476522467002813
20299.9999999851,108.891250466124,1.00000000028671,0.477597462687989
20399.9999999836,108.707726297914,1.00000000027747,0.478982530647902
20499.9999999822,108.528425542828,1.00000000030229,0.484796075286283
20599.9999999807,108.344558629304,1.00000000033075,0.49608257766885
20699.9999999793,108.145661796346,1.00000000035391,0.508354724755617
20799.9999999778,107.924305191485,1.00000000038631,0.518938550024281
20899.9999999764,107.679371921218,1.00000000037929,0.52704260714132
20999.9999999749,107.414101629686,1.00000000037884,0.531779461495358
21099.9999999734,107.135632882282,1.00000000032706,0.532215531684385
21199.999999972,106.85236738218,1.00000000030109,0.528249641973056
21299.9999999705,106.571309296186,1.00000000028654,0.518743326335783
21399.9999999691,106.295391495686,1.00000000027113,0.509176856888208
21499.9999999676,106.025211384598,1.0000000002825,0.503495598586391
21599.9999999662,105.759313776192,1.00000000027799,0.497503059332066
21699.9999999647,105.49386420393,1.00000000028999,0.490170404655257
21799.9999999633,105.225395213469,1.00000000031297,0.486545928913338
21899.9999999618,104.948464809466,1.00000000032538,0.489662537020883
21999.9999999603,104.657380777922,1.00000000037509,0.499073945713995
22099.9999999589,104.347203362582,1.00000000043032,0.512870412976624
22199.9999999574,104.016647729471,1.00000000046356,0.527043395091402
22299.999999956,103.668067871587,1.00000000040871,0.537334042906926
22399.9999999545,103.306604941476,1.00000000039728,0.542260979663302
22499.9999999531,102.939336003845,1.00000000038528,0.541625174163682
22599.9999999516,102.573579090359,1.00000000032566,0.532960172422902
22699.9999999502,102.217329307685,1.00000000029077,0.513289702479217
22799.9999999487,101.878877152629,1.00000000025816,0.489082490212462
22899.9999999473,101.56728312453,1.00000000023096,0.466868737293964
22999.9999999458,101.291367495027,1.0000000002031,0.444519692485526
23099.9999999443,101.058449416234,1.00000000019149,0.427043641654896
23199.9999999429,100.872944103661,1.00000000019861,0.415641029145648
23299.9999999414,100.734507193067,1.00000000020683,0.405987894551281
23399.99999994,100.639342114897,1.00000000024009,0.401184548052506
23499.9999999385,100.581321484491,1.00000000025466,0.402460675765837
23599.9999999371,100.552621576545,1.0000000002785,0.406616944307921
23699.9999999356,100.546257460931,1.00000000030006,0.413149761316933
23799.9999999342,100.555397587297,1.00000000030148,0.421041301193454
23899.9999999327,100.57397929718,1.00000000032112,0.430383331064167
23999.9999999312,100.596023626161,1.00000000032833,0.444610093394451
24099.9999999298,100.61636833245,1.00000000032905,0.460039840668937
24199.9999999283,100.631176259107,1.00000000034902,0.470987007557431
24299.9999999269,100.639023023503,1.00000000033211,0.47970250701702
24399.9999999254,100.640358122369,1.00000000033563,0.488647641516034
24499.999999924,100.636258428409,1.00000000033183,0.499937955008633
24599.9999999225,100.628599392119,1.00000000032335,0.509435841642401
24699.9999999211,100.619858516642,1.00000000029936,0.514561634534074
24799.9999999196,100.613079655107,1.00000000028764,0.516159008763532
24899.9999999181,100.609746328362,1.00000000029219,0.517368804531306
24999.9999999167,100.608543022698,1.00000000029371,0.518451377262267
25099.9999999152,100.605074154103,1.00000000031451,0.520005163671204
25199.9999999138,100.592955438072,1.00000000031113,0.523797227165309
25299.9999999123,100.566094372382,1.00000000032402,0.525783677607938
25399.9999999109,100.520493032692,1.00000000034856,0.527474492510291
25499.9999999094,100.455218680166,1.00000000037299,0.527077953703376
25599.999999908,100.37084783782,1.00000000034721,0.523320661979949
25699.9999999065,100.267239570394,1.00000000036542,0.517694914142647
25799.9999999051,100.144392017885,1.00000000037504,0.513334041574112
25899.9999999036,100.003014855692,1.00000000037127,0.517894895557938
25999.9999999021,99.8456566151468,1.00000000035574,0.528113193452233
26099.9999999007,99.6767239362346,1.0000000003302,0.533587572504187
26199.9999998992,99.5016498958402,1.00000000030499,0.531803363978516
26299.9999998978,99.3257092577807,1.00000000028921,0.527111750430227
26399.9999998963,99.1527936264423,1.00000000028054,0.522564097172658
26499.9999998949,98.9848695087092,1.0000000002922,0.52067939803117
26599.9999998934,98.8226269642923,1.00000000026577,0.520508960981176
26699.999999892,98.6659871402894,1.00000000026286,0.52234053381913
26799.9999998905,98.5135378815764,1.00000000027147,0.524676497773962
26899.999999889,98.3624900733519,1.00000000028725,0.52590326008882
26999.9999998876,98.2098575986222,1.00000000029166,0.525663368740889
27099.9999998861,98.0532079553776,1.00000000030502,0.525290150937514
27199.9999998847,97.8910153380074,1.00000000031504,0.524974679123846
27299.9999998832,97.7218172138272,1.00000000033466,0.52285442500277
27399.9999998818,97.5435040510187,1.00000000034417,0.519766059721289
27499.9999998803,97.3539596875013,1.0000000003759,0.517820711757581
27599.9999998789,97.1514964758313,1.00000000038814,0.518282095004179
27699.9999998774,96.934570584505,1.00000000042967,0.52187660275213
27799.9999998759,96.7027615136326,1.00000000043574,0.528230167832955
27899.9999998745,96.4575722468149,1.00000000042271,0.534701988456701
27999.999999873,96.2023546361016,1.00000000040746,0.54008026014758
28099.9999998716,95.9416882922951,1.000000000384,0.542132500780307
28199.9999998701,95.680562731933,1.00000000035168,0.540202944622663
28299.9999998687,95.4244066369113,1.00000000032004,0.531794102370393
28399.9999998672,95.1789394172982,1.00000000027214,0.517731372771734
28499.9999998658,94.9501582029416,1.00000000026142,0.501971534859063
28599.9999998643,94.7442596812343,1.00000000023038,0.485640457688492
28699.9999998629,94.5675524976501,1.00000000019971,0.470139090328295
28799.9999998614,94.4252153627369,1.00000000020101,0.456580039616677
28899.9999998599,94.3212157487231,1.00000000020717,0.443561077376375
