Time,AGPnorm,Energy,Entropy
0,0,1,-7.24203206041025e-17
99.9999999999986,0.00109481332683367,0.999999999997872,0.00367731087998875
199.999999999993,0.00757028561381021,0.999999999996471,0.0107209453797994
300,0.0153488943768173,0.999999999998379,0.0198038496008562
400.000000000022,0.0229766537107922,1.00000000000025,0.0314071331059525
500.000000000045,0.0326063068095522,0.99999999999868,0.0454893662095399
600.000000000068,0.0451826469730261,0.999999999996579,0.0614937845883461
700.000000000091,0.0580693487099429,0.999999999997485,0.0792767757693586
800.000000000113,0.0712149898195007,0.999999999999964,0.0995617022159886
900.000000000136,0.0845454527913204,0.999999999999626,0.123062374932564
1000.00000000016,0.099814287413469,0.999999999998012,0.150360635344674
1100.0000000001,0.114330653183789,1.00000000000359,0.182871540213973
1200,0.130261041580398,1.00000000004029,0.222539264827325
1299.99999999991,0.145996342821978,1.00000000013976,0.268573167129748
1399.99999999982,0.166562417136899,1.00000000029999,0.315804369249484
1499.99999999973,0.235439296817184,1.0000000005116,0.359388919992703
1599.99999999964,0.416260616915414,1.0000000007539,0.397428013448805
1699.99999999955,0.751228756922203,1.00000000095836,0.431219232983636
1799.99999999946,1.32335480672298,1.00000000114071,0.460296187056562
1899.99999999937,2.24791289358182,1.00000000129538,0.484473094671876
1999.99999999928,3.57920148430283,1.00000000138487,0.504339606430663
2099.99999999919,5.31140988254257,1.00000000142433,0.521871265226324
2199.99999999909,7.47097593915515,1.00000000156314,0.536086843352355
2299.999999999,10.0857474727603,1.00000000154914,0.547250214814984
2399.99999999891,13.100688124859,1.00000000154423,0.555751450773853
2499.99999999882,16.4197449163296,1.00000000156681,0.563549365488289
2599.99999999873,20.0019578979246,1.00000000158939,0.569018029905966
2699.99999999864,23.8178468851574,1.00000000151763,0.572781531431323
2799.99999999855,27.7859266789363,1.0000000015214,0.57483148563795
2899.99999999846,31.7973393480544,1.00000000151222,0.576919299144975
2999.99999999837,35.7902420680321,1.00000000144592,0.57797858041469
3099.99999999828,39.7424438656619,1.00000000147327,0.577593337554296
3199.99999999819,43.6018448264206,1.00000000143225,0.576347893756396
3299.99999999809,47.2974569791826,1.00000000133033,0.575130295015863
3399.999999998,50.7827170606248,1.00000000133011,0.573827753191404
3499.99999999791,54.0477929584145,1.00000000127285,0.572844118041509
3599.99999999782,57.0787820987806,1.00000000125128,0.572002583366299
3699.99999999773,59.8502180480741,1.00000000120213,0.567638073002558
3799.99999999764,62.3414289090152,1.00000000110965,0.565960716030099
3899.99999999755,64.5413615866838,1.00000000113984,0.566675290797135
3999.99999999746,66.4638368170794,1.00000000106346,0.562884236129563
4099.99999999738,68.1205361129367,1.00000000102621,0.559842634764112
4199.99999999775,69.4992636215525,1.00000000097187,0.559801472516507
4299.99999999811,70.6118070848474,1.00000000094388,0.560705865444321
4399.99999999848,71.4703787198542,1.00000000090485,0.551364125319381
4499.99999999884,72.0976223642483,1.0000000009531,0.5632403473931
4599.9999999992,72.5234461817392,1.00000000087899,0.549892736038958
4699.99999999957,72.7251278970299,1.00000000085647,0.548358719893953
4799.99999999993,72.7646631335733,1.00000000098394,0.569553957825647
4900.00000000029,72.6560119854423,1.00000000081319,0.536653073362837
5000.00000000066,72.3713486970672,1.00000000084536,0.547928709324741
5100.00000000102,72.0152011848848,1.00000000106052,0.572987887653015
5200.00000000139,71.5661391676307,1.00000000072604,0.521188016220389
5300.00000000175,70.9709751535004,1.00000000074812,0.531579624110056
5400.00000000211,70.3470424286583,1.00000000120564,0.578901954899037
5500.00000000248,69.7096754021211,1.000000000823,0.528079755506002
5600.00000000284,68.9680702121588,1.00000000057845,0.486691613707197
5700.00000000321,68.1715320291359,1.00000000106109,0.564820165590296
5800.00000000357,67.4125338202447,1.0000000012294,0.568783636549095
5900.00000000393,66.6409950189665,1.00000000065968,0.490867301628671
6000.0000000043,65.7953582174042,1.00000000060959,0.470208983461184
6100.00000000466,64.9336223722721,1.00000000115313,0.558636088671696
6200.00000000502,64.121958108786,1.00000000118163,0.565404166657118
6300.00000000539,63.3260457410911,1.00000000078229,0.493074925380792
6400.00000000575,62.4912895317138,1.00000000053322,0.44369983130234
6500.00000000612,61.6322733847713,1.00000000094309,0.502090958151214
6600.00000000648,60.801788649961,1.00000000128027,0.562380565710815
6700.00000000684,60.0146074068281,1.0000000011498,0.540705624066049
6800.00000000721,59.2385073651554,1.00000000073257,0.473306265328136
6900.00000000757,58.4482703767888,1.00000000062933,0.444546153654765
7000.00000000793,57.6528732286293,1.0000000008678,0.480282047947477
7100.0000000083,56.8747985133208,1.00000000117265,0.53754965614844
7200.00000000866,56.1282727782534,1.00000000117566,0.546088790388162
7300.00000000903,55.4055329804896,1.00000000092678,0.504279155486118
7400.00000000939,54.6913150908473,1.00000000073074,0.467058318719403
7500.00000000975,53.9842574910705,1.00000000072882,0.462181789966816
7600.00000001012,53.2867860101658,1.00000000082246,0.481832403324883
7700.00000001048,52.6038966767407,1.00000000096164,0.512253824968977
7800.00000001084,51.9391940773627,1.00000000108172,0.53255516819625
7900.00000001121,51.2922900723371,1.00000000108203,0.528271845152256
8000.00000001157,50.6618135964368,1.00000000079001,0.490781599373644
8100.00000001194,50.0483657752634,1.00000000070211,0.470714974501018
8200.0000000123,49.4531172820424,1.00000000081136,0.479589231811531
8300.00000001266,48.8735707588038,1.0000000008557,0.499878220004429
8400.00000001303,48.3107157925165,1.00000000084697,0.489958202748816
8500.00000001339,47.763414280017,1.00000000093196,0.507371984119705
8600.00000001376,47.226422192214,1.00000000110151,0.529668367373766
8700.00000001412,46.6973169889819,1.00000000109762,0.528155099639335
8800.00000001448,46.1835287899735,1.00000000081166,0.497411583618574
8900.00000001485,45.693595542037,1.00000000068115,0.469765982327235
9000.00000001521,45.2252307640854,1.0000000008766,0.485315286436864
9100.00000001557,44.7688767082492,1.00000000103708,0.499311002465181
9200.00000001594,44.3227209255344,1.00000000092099,0.509513105472736
9300.0000000163,43.8946981418779,1.00000000074629,0.484157085452089
9400.00000001667,43.4849993282132,1.00000000081897,0.49556945323169
9500.00000001703,43.0828397795068,1.00000000101447,0.522599300296169
9600.00000001739,42.6794578143506,1.00000000118317,0.535597089746437
9700.00000001776,42.2785803372732,1.00000000098603,0.521058000710966
9800.00000001812,41.8938799721139,1.00000000079803,0.496100877814157
9900.00000001848,41.5343469729317,1.00000000070282,0.480395377274151
10000.0000000188,41.1965030376596,1.00000000080141,0.48734518138208
10100.0000000192,40.8689832257565,1.00000000098609,0.499811545185215
10200.0000000196,40.5435374392187,1.00000000098345,0.502513760557465
10300.0000000199,40.224472878112,1.00000000088388,0.512078257309395
10400.0000000203,39.9207029024009,1.00000000076368,0.50238164932773
10500.0000000207,39.6323228709519,1.0000000008375,0.5044472138622
10600.000000021,39.3511097189068,1.00000000095196,0.521212664692229
10700.0000000214,39.0710281627165,1.00000000107418,0.532432324626085
10800.0000000218,38.7883923962441,1.00000000111437,0.535267522242155
10900.0000000221,38.5050108411076,1.00000000094543,0.530464428831096
11000.0000000225,38.2342249697299,1.0000000008006,0.512547373223963
11100.0000000229,37.985369248534,1.00000000081093,0.495795362734055
11200.0000000232,37.7554940882154,1.00000000083209,0.502183411337915
11300.0000000236,37.5387279783558,1.00000000085518,0.504044829324969
11400.0000000239,37.3325644837217,1.00000000085018,0.507350980318659
11500.0000000243,37.1331431913154,1.00000000089893,0.509014127025243
11600.0000000247,36.9404927786661,1.00000000089859,0.504186668922775
11700.000000025,36.7494690117959,1.00000000094241,0.528206367648074
11800.0000000254,36.558031242171,1.00000000097366,0.539882130895899
11900.0000000258,36.3676817181041,1.0000000008647,0.539252441027829
12000.0000000261,36.1815972025889,1.00000000086173,0.537040944868051
12100.0000000265,36.0025176660233,1.00000000076624,0.527638398874396
12200.0000000269,35.8291455413619,1.00000000094967,0.527169675016122
12300.0000000272,35.6560870157782,1.00000000105703,0.535631795718093
12400.0000000276,35.47768774848,1.00000000105048,0.54090650965486
12500.0000000279,35.2995489990167,1.00000000094689,0.537211732638174
12600.0000000283,35.1365613749595,1.00000000081553,0.522534077095926
12700.0000000287,34.9938365169073,1.00000000074595,0.509342467213176
12800.000000029,34.8688699483482,1.00000000087947,0.506356007120374
12900.0000000294,34.7480901039113,1.00000000094069,0.519489149483967
13000.0000000298,34.6278022323452,1.00000000097364,0.521755971704799
13100.0000000301,34.5140203251318,1.0000000008521,0.50584517518248
13200.0000000305,34.41210425389,1.00000000084388,0.51272588873747
13300.0000000309,34.3207566804408,1.00000000090511,0.525133000010381
13400.0000000312,34.2350176066994,1.00000000092648,0.52713843228762
13500.0000000316,34.1470798688027,1.00000000095593,0.532389960461531
13600.0000000319,34.0491926539257,1.00000000101472,0.546030128575773
13700.0000000323,33.9400703386361,1.00000000104918,0.554810715378404
13800.0000000327,33.8238386729903,1.00000000093843,0.560281206642161
13900.000000033,33.7047654111264,1.00000000087584,0.561449615729878
14000.0000000334,33.5876784224857,1.00000000082569,0.556795734904312
14100.0000000338,33.4764545789219,1.00000000087311,0.549289403451065
14200.0000000341,33.3700725596772,1.00000000095285,0.539916161515356
14300.0000000345,33.2670147847952,1.00000000094984,0.533850189443407
14400.0000000349,33.1642209310693,1.00000000100664,0.541341792641086
14500.0000000352,33.0586479127426,1.00000000099355,0.547303374210778
14600.0000000356,32.9562414783518,1.0000000009233,0.549704114985585
14700.0000000359,32.8668719649233,1.00000000083838,0.5436184792761
14800.0000000363,32.7941934823061,1.0000000008691,0.531699919324692
14900.0000000367,32.7336726808892,1.00000000090959,0.52919577045144
15000.000000037,32.6808069040166,1.00000000095061,0.531865393654101
15100.0000000374,32.6346547670173,1.00000000092764,0.524338880676524
15200.0000000378,32.5901892344024,1.00000000098251,0.523938878057021
15300.0000000381,32.5493459220672,1.00000000089991,0.518731180711864
15400.0000000385,32.5165711043571,1.00000000085979,0.521579345275665
15500.0000000389,32.4903312653344,1.00000000088255,0.534038023948826
15600.0000000392,32.4635602903504,1.00000000102342,0.549066975945147
15700.0000000396,32.4325300064517,1.00000000095394,0.558680951166469
15800.0000000399,32.3990326078519,1.00000000095971,0.559489993224673
15900.0000000403,32.3663632941233,1.00000000085518,0.559676786217383
16000.0000000407,32.3373574577531,1.00000000083321,0.558368499534064
16100.000000041,32.309262766145,1.00000000088491,0.556496383952396
16200.0000000414,32.2750471880439,1.00000000097627,0.568920681658944
16300.0000000418,32.2304223244454,1.00000000103183,0.565595935553251
16400.0000000418,32.1714784180192,1.00000000104295,0.565036975576584
16500.0000000404,32.0987399363619,1.00000000102572,0.570341006409979
16600.0000000389,32.0160948196468,1.00000000095407,0.581778243616214
16700.0000000375,31.9308364791186,1.00000000089796,0.578983889874581
16800.000000036,31.8496759882371,1.0000000008141,0.567057342785036
16900.0000000346,31.7758824585802,1.00000000082558,0.559183148287054
17000.0000000331,31.7096521673635,1.00000000087549,0.557105847247905
17100.0000000317,31.6480717905529,1.00000000098099,0.551561534785844
17200.0000000302,31.5890659134056,1.00000000098652,0.550977659945135
17300.0000000287,31.5304109702945,1.00000000100399,0.55635006152786
17400.0000000273,31.4700928509272,1.00000000100778,0.561228229209375
17500.0000000258,31.4113272284468,1.0000000009396,0.564378512080108
17600.0000000244,31.3616337019862,1.0000000008557,0.562613564495284
17700.0000000229,31.3248951171187,1.0000000008545,0.555931344706015
17800.0000000215,31.2998838237929,1.00000000090773,0.551940811035316
17900.00000002,31.2841299937279,1.00000000088501,0.545102532438659
18000.0000000186,31.2755100221956,1.00000000098225,0.541493666971632
18100.0000000171,31.268851947434,1.00000000097697,0.537386792509047
18200.0000000156,31.2640207779056,1.00000000093165,0.538556601849154
18300.0000000142,31.2662400128941,1.00000000086681,0.53844312016265
18400.0000000127,31.2762137477399,1.00000000087349,0.535697568921412
18500.0000000113,31.2886386260418,1.00000000093632,0.538246308386751
18600.0000000098,31.3008816798497,1.00000000097439,0.542434176470676
18700.0000000084,31.3125447685213,1.00000000093714,0.538557093689591
18800.0000000069,31.3227673000162,1.00000000096373,0.540492577606001
18900.0000000055,31.3308136525742,1.0000000009503,0.551196798670871
19000.000000004,31.3358093759048,1.0000000009623,0.566340303698098
19100.0000000026,31.3393629496708,1.00000000097965,0.56806740072761
19200.0000000011,31.342283981508,1.00000000094984,0.572136243263061
19299.9999999996,31.3463865841287,1.0000000008923,0.579458869019183
19399.9999999982,31.3502137208143,1.00000000096697,0.583663613486513
19499.9999999967,31.3489471576557,1.00000000102172,0.589102994306308
19599.9999999953,31.3413460940714,1.00000000095425,0.594555897975871
19699.9999999938,31.3292604360119,1.00000000098442,0.604278310223314
19799.9999999924,31.3140929287662,1.00000000091308,0.604867173844513
19899.9999999909,31.2938842537068,1.0000000009609,0.606120303769718
19999.9999999895,31.2683962093295,1.00000000096743,0.603718065482902
20099.999999988,31.2392186583565,1.00000000093778,0.598268027156503
20199.9999999865,31.2046928032632,1.00000000098666,0.594132168868499
20299.9999999851,31.1633520189245,1.00000000101447,0.588234571617037
20399.9999999836,31.1152219750948,1.0000000009913,0.585705762447906
20499.9999999822,31.059444044781,1.00000000105676,0.596345125320644
20599.9999999807,30.9956414340948,1.00000000107698,0.600320352643882
20699.9999999793,30.9252098096591,1.00000000105132,0.602330948092961
20799.9999999778,30.8530032557338,1.00000000095184,0.601309095424248
20899.9999999764,30.7828516409501,1.00000000091216,0.600787802591982
20999.9999999749,30.7171349097992,1.00000000087004,0.598859327963124
21099.9999999734,30.6567134918064,1.00000000086283,0.601234664451636
21199.999999972,30.6006498245529,1.00000000092823,0.599416870881143
21299.9999999705,30.5489128474124,1.00000000092167,0.58958078596903
21399.9999999691,30.5005803917164,1.00000000097611,0.591722584587882
21499.9999999676,30.4556833578592,1.00000000101172,0.590645546580771
21599.9999999662,30.4127821993485,1.00000000098282,0.581994082693082
21699.9999999647,30.3704177331696,1.0000000009776,0.572811598651954
21799.9999999633,30.3294820389722,1.00000000102073,0.570441918682832
21899.9999999618,30.2918632605611,1.00000000096362,0.571596933955721
21999.9999999603,30.2619042752853,1.00000000091113,0.572402422284935
22099.9999999589,30.2412241452649,1.00000000086298,0.573205354368454
22199.9999999574,30.231072594356,1.00000000085567,0.574477114836407
22299.999999956,30.2303775347,1.00000000089474,0.569277973801927
22399.9999999545,30.2363559572072,1.00000000094751,0.567620212982567
22499.9999999531,30.2462417046815,1.00000000095767,0.565340445188021
22599.9999999516,30.2587182218524,1.00000000101149,0.561742838440868
22699.9999999502,30.2749568921115,1.00000000091628,0.553037370919838
22799.9999999487,30.2962146116047,1.00000000095781,0.549440459412833
22899.9999999473,30.3228185326588,1.00000000092039,0.552614999370372
22999.9999999458,30.3526255007659,1.00000000091023,0.555104102608782
23099.9999999443,30.3831722416014,1.00000000094124,0.555672712023081
23199.9999999429,30.415435826634,1.00000000095813,0.557339959604182
23299.9999999414,30.4499178789592,1.00000000099944,0.55929388037308
23399.99999994,30.4837450305282,1.00000000101591,0.559351346373446
23499.9999999385,30.5140990950931,1.00000000099223,0.562557185671508
23599.9999999371,30.5396217005009,1.00000000100417,0.570950842836042
23699.9999999356,30.56195226505,1.00000000101402,0.576930951697056
23799.9999999342,30.5831082065542,1.00000000099397,0.583746538374686
23899.9999999327,30.6035120616706,1.00000000098736,0.592536512427575
23999.9999999312,30.6222594988787,1.00000000098394,0.598526704785823
24099.9999999298,30.6389867059148,1.00000000099766,0.604056144978205
24199.9999999283,30.6536331469998,1.00000000099924,0.601622540297464
24299.9999999269,30.6659582860704,1.00000000098206,0.606593161307085
24399.9999999254,30.6775101146137,1.00000000096946,0.610708480027324
24499.999999924,30.6880076684609,1.0000000009824,0.610223167572371
24599.9999999225,30.6964668651826,1.00000000099134,0.608800100021895
24699.9999999211,30.7038388034896,1.00000000099055,0.60775952877113
24799.9999999196,30.7092828748845,1.00000000102184,0.603449134702036
24899.9999999181,30.7097122880867,1.00000000102476,0.603843513399132
24999.9999999167,30.7064498645062,1.00000000099119,0.616358047960424
25099.9999999152,30.7002619512868,1.00000000099788,0.619196499468456
25199.9999999138,30.6923759565538,1.0000000009557,0.614724959421918
25299.9999999123,30.6834490657937,1.00000000103383,0.617553067536976
25399.9999999109,30.671676900383,1.00000000101699,0.619777740405672
25499.9999999094,30.6573406668667,1.0000000009706,0.617461996059178
25599.999999908,30.643078650442,1.00000000093382,0.607876852011608
25699.9999999065,30.6287961357497,1.00000000098959,0.603287815501663
25799.9999999051,30.6123999891705,1.00000000101593,0.602341086086276
25899.9999999036,30.5920355036011,1.00000000108518,0.604343893600232
25999.9999999021,30.5664200600743,1.00000000106634,0.612258091109946
26099.9999999007,30.5365714689578,1.0000000010576,0.610157590647976
26199.9999998992,30.5047148514697,1.00000000096693,0.613266633022537
26299.9999998978,30.471370379343,1.00000000103584,0.62096714593977
26399.9999998963,30.4369124537249,1.00000000097311,0.615356763723747
26499.9999998949,30.4028459600571,1.00000000098585,0.61805671883236
26599.9999998934,30.3671426497055,1.00000000099736,0.623732664783399
26699.999999892,30.3294358737863,1.00000000096466,0.617388911338516
26799.9999998905,30.2906376156886,1.00000000095535,0.608875942615401
26899.999999889,30.2503409550257,1.00000000100637,0.610412573763074
26999.9999998876,30.2066307260759,1.00000000101571,0.613005963588664
27099.9999998861,30.1591280135648,1.00000000109572,0.619406142967048
27199.9999998847,30.1078724249495,1.0000000010406,0.618211253668386
27299.9999998832,30.0534396404978,1.00000000109387,0.61819574408967
27399.9999998818,29.9954892690197,1.00000000107164,0.616422238089313
27499.9999998803,29.934463037519,1.00000000105629,0.623496897077911
27599.9999998789,29.8712057961834,1.00000000105954,0.625705188787804
27699.9999998774,29.8063782087685,1.00000000105625,0.628902925994675
27799.9999998759,29.7403953763612,1.00000000101412,0.629774824133154
27899.9999998745,29.6752119128471,1.00000000096418,0.622989340561223
27999.999999873,29.6119002679799,1.00000000096248,0.618538634136668
28099.9999998716,29.5513886401038,1.00000000092868,0.609645525402395
28199.9999998701,29.4944332452844,1.00000000088849,0.599648709623489
28299.9999998687,29.4413795282015,1.00000000093355,0.603769427915126
28399.9999998672,29.3924682226501,1.00000000098255,0.6086322082864
28499.9999998658,29.3472456493564,1.00000000102637,0.606897624053829
28599.9999998643,29.3040692665037,1.00000000107407,0.609859625005769
28699.9999998629,29.2634457323642,1.00000000109512,0.606232928273009
28799.9999998614,29.2258615645407,1.00000000104426,0.600826669979579
28899.9999998599,29.1894093075234,1.00000000106006,0.596791471953866
28999.9999998585,29.1551249224516,1.00000000103252,0.588265063802454
