Time,AGPnorm,Energy,Entropy
0,0,1,3.44368349160101e-18
99.9999999999986,0.0141292660707067,0.999999999998608,0.0355446495583604
199.999999999993,0.035415725448227,1.00000000000088,0.10538076064145
300,0.0647401587732227,1.00000000007644,0.226383912331423
400.000000000022,0.126771114106207,1.00000000174908,0.403708923448428
500.000000000045,0.536473223899825,1.00000000408471,0.52458060482599
600.000000000068,1.7005434976446,1.00000000500928,0.581769063950813
700.000000000091,3.57194495894803,1.00000000528042,0.600187013031065
800.000000000113,5.64323509592949,1.00000000473056,0.603826258911851
900.000000000136,7.60279805978551,1.00000000434616,0.594191501662231
1000.00000000016,9.11378794917873,1.00000000363957,0.586426865914623
1100.0000000001,10.1339626386189,1.0000000032153,0.57223146258276
1200,10.6525187184521,1.00000000321484,0.572036597393996
1299.99999999991,10.7593225552431,1.00000000316416,0.563170207311189
1399.99999999982,10.5988645721091,1.00000000256403,0.527045957206255
1499.99999999973,10.3075521488486,1.00000000217495,0.498387065236915
1599.99999999964,9.93733259941949,1.00000000399541,0.564260908478337
1699.99999999955,9.50797999838891,1.00000000300813,0.496784314351729
1799.99999999946,9.10434214599383,1.00000000280785,0.496521555180614
1899.99999999937,8.68762724712355,1.00000000319701,0.491382516552161
1999.99999999928,8.29594418191803,1.00000000377683,0.532792708902939
2099.99999999919,7.9411115856047,1.00000000262343,0.470764664274411
2199.99999999909,7.59157518587777,1.00000000337974,0.537655346772635
2299.999999999,7.2709539395375,1.00000000311947,0.522160636940975
2399.99999999891,7.00961690861831,1.00000000248614,0.47168034939965
2499.99999999882,6.74842341763579,1.00000000294325,0.525258392952934
2599.99999999873,6.50497423210263,1.00000000371342,0.555114437136365
2699.99999999864,6.28006745812432,1.00000000266577,0.509128645488231
2799.99999999855,6.12485705582466,1.00000000255984,0.481961930803998
2899.99999999846,5.963384560188,1.00000000343456,0.545266031359296
2999.99999999837,5.81477847152809,1.00000000324328,0.545649633125797
3099.99999999828,5.66120907191402,1.00000000330208,0.567606660115036
3199.99999999819,5.50853996958076,1.00000000390479,0.551953789970245
3299.99999999809,5.41609338020663,1.00000000225737,0.480214808441444
3399.999999998,5.36659167141063,1.00000000370869,0.536264850357677
3499.99999999791,5.30162143455447,1.00000000353429,0.553059189177905
3599.99999999782,5.23966698824979,1.00000000321321,0.56917871328888
3699.99999999773,5.16984764762202,1.00000000358814,0.583499119794421
3799.99999999764,5.08063746065979,1.00000000307964,0.600162462259558
3899.99999999755,4.99097243784594,1.00000000370061,0.585499982746106
3999.99999999746,4.90131289649659,1.00000000373247,0.568128410789401
4099.99999999738,4.8570731929703,1.00000000245575,0.518115261287782
4199.99999999775,4.88405374687175,1.0000000029268,0.528729122688946
4299.99999999811,4.90168119499045,1.00000000378513,0.55932753751741
4399.99999999848,4.91066718040059,1.00000000341233,0.562723436012131
4499.99999999884,4.90759708157406,1.00000000394125,0.598709090551425
4599.9999999992,4.89728030429362,1.00000000334745,0.601696771934975
4699.99999999957,4.88957009482289,1.00000000357919,0.631314110296691
4799.99999999993,4.86344815337292,1.00000000325818,0.622930957387071
4900.00000000029,4.82794591799464,1.00000000371228,0.620108969599291
5000.00000000066,4.77863365246394,1.00000000351997,0.636951393845443
5100.00000000102,4.72588883352762,1.00000000372236,0.644906352944799
5200.00000000139,4.66972929183502,1.00000000393707,0.633402745783748
5300.00000000175,4.61404020477825,1.00000000383308,0.602640994686925
5400.00000000211,4.57018087656596,1.00000000312756,0.563681880582193
5500.00000000248,4.59057021236868,1.00000000267783,0.537222891054239
5600.00000000284,4.66848914204492,1.00000000333756,0.553020749609058
5700.00000000321,4.74543061122437,1.00000000390447,0.576991396412868
5800.00000000357,4.80882215135402,1.00000000364192,0.588341978609221
5900.00000000393,4.86563507595726,1.00000000394771,0.606112158272214
6000.0000000043,4.90830132164349,1.00000000366376,0.616820459258132
6100.00000000466,4.94471200683055,1.00000000389157,0.641690507320605
6200.00000000502,4.9657428816483,1.00000000358153,0.646096129731848
6300.00000000539,4.97813627799722,1.00000000366706,0.655918999933382
6400.00000000575,4.97841487642374,1.0000000037834,0.655453413288152
6500.00000000612,4.98372661846817,1.0000000036271,0.643045492925864
6600.00000000648,4.99589147211813,1.00000000408587,0.662367701916584
6700.00000000684,5.00034280175841,1.00000000397592,0.646423837704338
6800.00000000721,4.99274454489521,1.00000000380215,0.642548455706619
6900.00000000757,4.98921785837026,1.00000000395739,0.651514468828375
7000.00000000793,4.98644395816868,1.00000000401124,0.669447174762978
7100.0000000083,4.97219209004311,1.00000000371483,0.674841974289525
7200.00000000866,4.9550272049454,1.00000000368078,0.647531115096111
7300.00000000903,4.93722081825257,1.00000000392834,0.656408816476717
7400.00000000939,4.91172498893413,1.00000000419144,0.666753359497973
7500.00000000975,4.8755963778166,1.00000000405132,0.672391401507224
7600.00000001012,4.83396033540469,1.00000000383388,0.674014590344661
7700.00000001048,4.79234755238763,1.00000000402831,0.680345873655016
7800.00000001084,4.75468878549069,1.00000000445699,0.669997756357417
7900.00000001121,4.71991542778025,1.00000000461719,0.672443431225678
8000.00000001157,4.68579221740427,1.00000000429785,0.629414237884364
8100.00000001194,4.65974981249328,1.00000000402018,0.591230427858515
8200.0000000123,4.67600491260612,1.00000000351779,0.566359376583914
8300.00000001266,4.75479545832533,1.00000000336773,0.565809285148021
8400.00000001303,4.87622638114834,1.00000000365382,0.574047838274659
8500.00000001339,5.00869516381954,1.00000000438599,0.584830633693672
8600.00000001376,5.13865092051178,1.00000000440835,0.593279115704501
8700.00000001412,5.26276369485445,1.00000000405009,0.59233592789037
8800.00000001448,5.37533414656676,1.00000000436472,0.603792304748866
8900.00000001485,5.48205173607358,1.00000000460792,0.617937189582377
9000.00000001521,5.57265530557022,1.00000000424353,0.636854461812745
9100.00000001557,5.65658652443225,1.00000000460412,0.658627094232673
9200.00000001594,5.7369858274033,1.00000000442397,0.657676265337719
9300.0000000163,5.81219173887609,1.00000000440131,0.660951822475549
9400.00000001667,5.8726872083875,1.0000000046765,0.67732523720872
9500.00000001703,5.91932696495436,1.00000000493957,0.681650711644651
9600.00000001739,5.95856396077674,1.00000000415749,0.688283144843375
9700.00000001776,6.00603793589145,1.00000000447385,0.688166300554823
9800.00000001812,6.05459758451867,1.0000000046934,0.700914175920746
9900.00000001848,6.08865215114725,1.00000000509959,0.708649292337813
10000.0000000188,6.12469991238677,1.00000000472102,0.701975993293185
10100.0000000192,6.15911718956884,1.00000000442454,0.704738253352384
10200.0000000196,6.18854242125701,1.00000000441609,0.693228284102216
10300.0000000199,6.21104956838141,1.00000000498016,0.707303639524732
10400.0000000203,6.22613241688401,1.00000000482706,0.690938419787073
10500.0000000207,6.24122848158339,1.00000000483601,0.69973879783493
10600.000000021,6.25711232753768,1.0000000048714,0.693187814061025
10700.0000000214,6.27428521695635,1.0000000045011,0.685833154095254
10800.0000000218,6.30561941542355,1.00000000452211,0.692060991178394
10900.0000000221,6.34899389016114,1.00000000459301,0.682973045358362
11000.0000000225,6.39827829285145,1.00000000495696,0.678412619270871
11100.0000000229,6.45600753676849,1.00000000537504,0.684544657996508
11200.0000000232,6.50678697905248,1.000000004684,0.684566602999314
11300.0000000236,6.55976603090118,1.00000000473335,0.665938226264482
11400.0000000239,6.60304972840391,1.00000000487479,0.673480495302942
11500.0000000243,6.65753048446325,1.0000000048163,0.686862546540853
11600.0000000247,6.7079104080156,1.00000000520239,0.688461089572561
11700.000000025,6.75238781068515,1.00000000501782,0.705521693009879
11800.0000000254,6.79780257945525,1.00000000564082,0.710195792614805
11900.0000000258,6.83690684500864,1.00000000474547,0.695960946320782
12000.0000000261,6.87415153959874,1.00000000551227,0.686434596558628
12100.0000000265,6.91915367269458,1.00000000459641,0.677614995600136
12200.0000000269,6.97615487300262,1.00000000487724,0.702759134070543
12300.0000000272,7.03493709622605,1.00000000526832,0.698052456858631
12400.0000000276,7.08949821665796,1.00000000557908,0.694019910805345
12500.0000000279,7.14107297864713,1.00000000570866,0.689285139424657
12600.0000000283,7.19241685817113,1.00000000560692,0.703078169589577
12700.0000000287,7.24540080822083,1.00000000480167,0.69261743411266
12800.000000029,7.30147259037643,1.00000000499159,0.703780027586612
12900.0000000294,7.36893846067241,1.00000000496253,0.712043898145877
13000.0000000298,7.42852077585483,1.00000000546205,0.720552215277091
13100.0000000301,7.4803560432471,1.00000000519259,0.70022308240238
13200.0000000305,7.52728250640677,1.00000000602221,0.70279815346209
13300.0000000309,7.57621978498005,1.00000000547116,0.709248560655861
13400.0000000312,7.62547981035587,1.0000000059745,0.716911195857818
13500.0000000316,7.67022700997033,1.00000000590066,0.713303972921258
13600.0000000319,7.71019615670351,1.00000000538903,0.704282044735486
13700.0000000323,7.75235367857159,1.00000000466526,0.707180199042735
13800.0000000327,7.79425727721982,1.00000000551364,0.695703828840981
13900.000000033,7.83035083338402,1.00000000523782,0.705462605869445
14000.0000000334,7.86773402904526,1.00000000573747,0.695692658414261
14100.0000000338,7.90643358488545,1.00000000523865,0.712343297767067
14200.0000000341,7.94149448598905,1.00000000536403,0.719054391041432
14300.0000000345,7.973064039763,1.00000000503138,0.697134786571175
14400.0000000349,7.99633362393207,1.00000000537449,0.705433317153341
14500.0000000352,8.01697102642257,1.00000000562661,0.715757307068301
14600.0000000356,8.03497851000878,1.0000000051391,0.70671639059254
14700.0000000359,8.04575371410489,1.00000000567932,0.723342686634686
14800.0000000363,8.05206630402077,1.00000000557425,0.709916415744008
14900.0000000367,8.05325080825119,1.00000000501897,0.710583957329216
15000.000000037,8.04877358416507,1.00000000524077,0.707768054231113
15100.0000000374,8.03365085930389,1.00000000601285,0.716079539605725
15200.0000000378,8.01449928541652,1.0000000052214,0.702936250580195
15300.0000000381,7.99364479430414,1.00000000603785,0.710011362774903
15400.0000000385,7.97509689378096,1.00000000555161,0.723346623201777
15500.0000000389,7.95822894610935,1.00000000557311,0.706342833732397
15600.0000000392,7.94373384157702,1.00000000551592,0.711326226743539
15700.0000000396,7.93340544997185,1.00000000634263,0.71521884076312
15800.0000000399,7.92447902931307,1.00000000542365,0.717455585716367
15900.0000000403,7.92782473038202,1.00000000611289,0.698411205608896
16000.0000000407,7.93119369591582,1.00000000512018,0.697681194558195
16100.000000041,7.95153719028035,1.00000000487909,0.688835097366537
16200.0000000414,7.98578866953023,1.00000000532518,0.675400522200587
16300.0000000418,8.05314665398235,1.00000000508011,0.663926906633208
16400.0000000418,8.16144879364271,1.00000000501928,0.639010957749893
16500.0000000404,8.33504979128614,1.00000000485219,0.638290729075711
16600.0000000389,8.56122454309993,1.00000000546052,0.641141131010789
16700.0000000375,8.85353760028296,1.00000000527918,0.647563821097565
16800.000000036,9.17204817992029,1.00000000497338,0.652257619915081
16900.0000000346,9.52723358634342,1.00000000598329,0.656431067908808
17000.0000000331,9.8668135777925,1.0000000057046,0.662339627832319
17100.0000000317,10.2207496723767,1.00000000592299,0.657359733718161
17200.0000000302,10.557841270183,1.00000000555041,0.664210997018347
17300.0000000287,10.9038876019397,1.00000000591196,0.659070582965125
17400.0000000273,11.2424670711985,1.00000000585858,0.662651751707423
17500.0000000258,11.5731311092296,1.00000000631115,0.656737599659041
17600.0000000244,11.9208313889214,1.00000000564644,0.663131455728401
17700.0000000229,12.2627582453229,1.00000000541584,0.67057366486374
17800.0000000215,12.6176276103156,1.00000000546553,0.669837122347986
17900.00000002,12.9673736730209,1.00000000552755,0.682406076458047
18000.0000000186,13.3138197195008,1.00000000600397,0.688823543500029
18100.0000000171,13.6517229565345,1.00000000604227,0.699342236162623
18200.0000000156,13.9855578010318,1.00000000563957,0.693905194124447
18300.0000000142,14.3165945595116,1.00000000615624,0.704046261395369
18400.0000000127,14.6280298369429,1.00000000587223,0.708540791791293
18500.0000000113,14.9468822127436,1.00000000655496,0.717474684402468
18600.0000000098,15.251594255268,1.0000000062542,0.72926056888209
18700.0000000084,15.5689225937511,1.00000000638256,0.71031397160629
18800.0000000069,15.8710017068132,1.00000000655196,0.731253277987171
18900.0000000055,16.1526182957424,1.00000000631369,0.72241609059673
19000.000000004,16.4363137864724,1.00000000639677,0.713564596840479
19100.0000000026,16.720526995607,1.00000000612631,0.726881740106117
19200.0000000011,17.003335024048,1.00000000652929,0.728526548608458
19299.9999999996,17.2766226908368,1.00000000638841,0.712937697798501
19399.9999999982,17.5484963969915,1.00000000660213,0.716035805281785
19499.9999999967,17.828890945407,1.00000000644477,0.727376287535274
19599.9999999953,18.104149690824,1.00000000634796,0.731250678335982
19699.9999999938,18.3887219734539,1.00000000615548,0.721164811567443
19799.9999999924,18.6842551817766,1.00000000631756,0.72957021177637
19899.9999999909,19.0082667531418,1.00000000621014,0.734266797239851
19999.9999999895,19.3375145436179,1.00000000626051,0.709235184727288
20099.999999988,19.6621034539361,1.00000000698666,0.732703007338372
20199.9999999865,19.9755388071606,1.00000000639404,0.735195371383386
20299.9999999851,20.2849099877452,1.00000000691283,0.736296121486564
20399.9999999836,20.6094473039885,1.00000000609425,0.7272982055097
20499.9999999822,20.9450712629495,1.00000000624832,0.730343509593964
20599.9999999807,21.2998654207366,1.00000000648452,0.743118197630985
20699.9999999793,21.654212772034,1.00000000739341,0.741236257557869
20799.9999999778,22.0072568985859,1.00000000692595,0.736420958627729
20899.9999999764,22.350869881525,1.00000000705656,0.723779237245571
20999.9999999749,22.6831873445065,1.00000000712308,0.732538293589329
21099.9999999734,23.0102398580188,1.00000000638115,0.732191173001015
21199.999999972,23.3317988778702,1.00000000765195,0.724034788104666
21299.9999999705,23.6584377908034,1.0000000069295,0.723238804431056
21399.9999999691,23.9949008465072,1.00000000686111,0.731466010367309
21499.9999999676,24.3314979801295,1.00000000711239,0.718840160656425
21599.9999999662,24.6908086857585,1.00000000717943,0.724587795918695
21699.9999999647,25.0658734558606,1.00000000634461,0.725609984098943
21799.9999999633,25.4503751447421,1.00000000712983,0.73714392473027
21899.9999999618,25.8395072383434,1.00000000784271,0.743485032003672
21999.9999999603,26.2226541243555,1.00000000705018,0.724215353134007
22099.9999999589,26.6077349958708,1.00000000707482,0.734622619039721
22199.9999999574,26.9837964950432,1.00000000761182,0.736561659801647
22299.999999956,27.3682470397571,1.00000000719912,0.71892973602469
22399.9999999545,27.7592222438112,1.00000000760891,0.723347100350318
22499.9999999531,28.1541352344871,1.00000000758468,0.727267149806054
22599.9999999516,28.5423936083226,1.0000000076068,0.735248663561617
22699.9999999502,28.9369687378576,1.00000000745697,0.735570112867896
22799.9999999487,29.3402470779077,1.00000000697638,0.738950950369481
22899.9999999473,29.7503818965795,1.00000000699007,0.745571390341848
22999.9999999458,30.1543478167491,1.00000000732951,0.7474316832563
23099.9999999443,30.5660226863091,1.00000000742087,0.730228566721062
23199.9999999429,31.0049232040547,1.00000000729009,0.72987382220173
23299.9999999414,31.440840037853,1.00000000752893,0.731744248802692
23399.99999994,31.8762168379898,1.00000000709238,0.741829717138459
23499.9999999385,32.309349270901,1.00000000849538,0.738098138522907
23599.9999999371,32.7343791154144,1.00000000713025,0.746604728614735
23699.9999999356,33.1519067360221,1.00000000765747,0.741523905901248
23799.9999999342,33.5854693875635,1.00000000741798,0.729503410270389
23899.9999999327,34.0601774659452,1.00000000733008,0.738989688456085
23999.9999999312,34.555952553355,1.00000000737859,0.743786704079374
24099.9999999298,35.0682368213751,1.00000000710371,0.7436332874672
24199.9999999283,35.6118480589761,1.00000000833038,0.746835837079589
24299.9999999269,36.1742260538105,1.00000000731063,0.744179350969161
24399.9999999254,36.7567022221641,1.00000000737531,0.740648460514916
24499.999999924,37.3389538299743,1.00000000686415,0.741958492760847
24599.9999999225,37.9308457959325,1.0000000081888,0.744088342029627
24699.9999999211,38.5138581406333,1.00000000722227,0.742448941637634
24799.9999999196,39.0891441573434,1.00000000771702,0.739544979524668
24899.9999999181,39.6503039849176,1.00000000843637,0.742512888345184
24999.9999999167,40.1898530672193,1.00000000788117,0.740470921338649
25099.9999999152,40.7363079743666,1.00000000812929,0.73860453612938
25199.9999999138,41.277759648144,1.00000000867629,0.743413951433954
25299.9999999123,41.8184386354874,1.00000000824217,0.745997874002793
25399.9999999109,42.3595250690894,1.00000000805581,0.750166502312873
25499.9999999094,42.9190749845776,1.00000000771231,0.73996328583423
25599.999999908,43.5081637703297,1.00000000785753,0.735044095843124
25699.9999999065,44.1307540521546,1.00000000766994,0.741359778921686
25799.9999999051,44.7428782288814,1.00000000753594,0.742092208917949
25899.9999999036,45.351396830856,1.0000000081839,0.749461403273485
25999.9999999021,45.9471327210497,1.00000000840933,0.751722766517385
26099.9999999007,46.5536774674967,1.00000000769595,0.745586817984166
26199.9999998992,47.1660868121577,1.0000000076696,0.746939437872283
26299.9999998978,47.7909868089988,1.00000000733113,0.746844342172933
26399.9999998963,48.4141943145696,1.00000000771011,0.748238124772445
26499.9999998949,49.0219019832414,1.00000000869619,0.74302636105293
26599.9999998934,49.6078661693879,1.00000000827546,0.740061102564823
26699.999999892,50.1927930625012,1.00000000782158,0.738482732318222
26799.9999998905,50.8088020336812,1.00000000777483,0.731347720722645
26899.999999889,51.4785998337941,1.00000000755142,0.725937833022788
26999.9999998876,52.1763237301201,1.00000000875198,0.734003203728183
27099.9999998861,52.8838382351344,1.00000000867706,0.741838475897727
27199.9999998847,53.5815787376873,1.00000000834972,0.749094257148672
27299.9999998832,54.2614723667186,1.00000000806417,0.745211234105778
27399.9999998818,54.9573956661333,1.00000000864891,0.734288657599479
27499.9999998803,55.655731722253,1.00000000866002,0.739718891760344
27599.9999998789,56.3544296779298,1.00000000824058,0.740404028709632
27699.9999998774,57.0601521997561,1.00000000804148,0.747489292104265
27799.9999998759,57.7749345152695,1.00000000866217,0.743742399777495
27899.9999998745,58.4906378802892,1.00000000841763,0.743876043474846
27999.999999873,59.2052568595093,1.00000000897892,0.74674476938411
28099.9999998716,59.9099628467281,1.00000000828478,0.735531253994495
28199.9999998701,60.6032143169535,1.00000000868868,0.723111759079157
28299.9999998687,61.2877565134722,1.00000000787971,0.746609493883439
28399.9999998672,61.9786261231673,1.00000000862013,0.739900218786611
28499.9999998658,62.6888796040264,1.00000000765618,0.735182572684953
28599.9999998643,63.4049941374123,1.00000000888127,0.740795566178034
28699.9999998629,64.1211876064014,1.00000000865401,0.741518569743451
28799.9999998614,64.8325444034749,1.00000000780899,0.734096976964943
28899.9999998599,65.5549519374823,1.00000000879977,0.744840005417651
28999.9999998585,66.2942603965307,1.00000000859275,0.73963781166027
