Time,AGPnorm,Energy,Entropy
0,0,1,-1.23932562866339e-17
99.9999999999986,3.61971465488706e-05,1.00000000000386,0.00143193459223569
199.999999999993,0.00309445377046935,0.999999999999264,0.00228069542369609
300,0.00773498071538252,1.00000000000254,0.00412161537213415
400.000000000022,0.01084663477762,1.00000000000216,0.00683781010879906
500.000000000045,0.0134523904178935,0.99999999999937,0.00936093869460553
600.000000000068,0.0189209083311671,1.00000000000398,0.0129349441780188
700.000000000091,0.0235116483586143,0.99999999999968,0.016463307201519
800.000000000113,0.0300965371743984,1.00000000000182,0.0204962987808372
900.000000000136,0.0374063182112077,1.0000000000029,0.0249211788671262
1000.00000000016,0.0436652528336427,0.999999999998927,0.0294628546164407
1100.0000000001,0.0517551977496572,1.00000000000384,0.0345530533893007
1200,0.0608991737349502,1.00000000000037,0.0397077620434494
1299.99999999991,0.0701664318491305,1.00000000000099,0.0454040036344006
1399.99999999982,0.0796289459130685,1.00000000000345,0.0512778093983619
1499.99999999973,0.0889737167326125,0.99999999999882,0.0574047175684605
1599.99999999964,0.0993105696593697,1.00000000000346,0.0640719525359032
1699.99999999955,0.110904271407145,1.00000000000119,0.0708249212138494
1799.99999999946,0.122020252699389,1.00000000000014,0.0782377108051739
1899.99999999937,0.132894901858554,1.00000000000376,0.0858327206268509
1999.99999999928,0.144478318449763,0.999999999999083,0.0937980966550875
2099.99999999919,0.156193563957373,1.00000000000287,0.102563850283779
2199.99999999909,0.168543159063426,1.000000000002,0.111517363508933
2299.999999999,0.180382878974953,0.999999999999519,0.121372378199495
2399.99999999891,0.191916249319241,1.0000000000039,0.131825126760037
2499.99999999882,0.204465849884574,0.999999999999852,0.143053326368215
2599.99999999873,0.216617674132983,1.00000000000319,0.155795941039479
2699.99999999864,0.228593930933467,1.00000000000609,0.169512781616678
2799.99999999855,0.239968152426659,1.00000000000959,0.184936154488618
2899.99999999846,0.252568913386819,1.00000000002667,0.201931984815657
2999.99999999837,0.263280019140861,1.00000000004634,0.219813726340207
3099.99999999828,0.277660794703919,1.00000000008134,0.238890095967129
3199.99999999819,0.293784409209471,1.00000000012253,0.257664459729581
3299.99999999809,0.310725325451635,1.0000000001845,0.276263010435247
3399.999999998,0.347567996706118,1.00000000023996,0.29488909957469
3499.99999999791,0.390997468997683,1.00000000030022,0.312576678748346
3599.99999999782,0.467766064766644,1.00000000036071,0.330333066902132
3699.99999999773,0.584462776720908,1.00000000043813,0.347035442125605
3799.99999999764,0.746091606178749,1.00000000051742,0.363160637575582
3899.99999999755,0.987358001272803,1.00000000057753,0.379114345538803
3999.99999999746,1.30540943620111,1.00000000062207,0.393660683374844
4099.99999999738,1.73541175640411,1.00000000064936,0.408254965299896
4199.99999999775,2.28478720819571,1.00000000075738,0.421635576698421
4299.99999999811,2.97619476291383,1.00000000080512,0.434247218451305
4399.99999999848,3.82844626576713,1.00000000085888,0.446919590663046
4499.99999999884,4.84705014239248,1.00000000086807,0.458012440007267
4599.9999999992,6.06981133178384,1.000000000933,0.468877256475922
4699.99999999957,7.47397449026832,1.00000000097505,0.479135256578089
4799.99999999993,9.10249668076701,1.00000000100545,0.48821203853053
4900.00000000029,10.9491162552497,1.00000000099177,0.497658925454442
5000.00000000066,12.9999574939703,1.00000000104225,0.505689095411443
5100.00000000102,15.3090383736639,1.00000000104465,0.513251476280955
5200.00000000139,17.8106245770764,1.00000000103448,0.521001735121777
5300.00000000175,20.5520337270829,1.00000000110123,0.526946216444464
5400.00000000211,23.5248437560739,1.00000000108439,0.533588656515964
5500.00000000248,26.6735166783819,1.00000000115483,0.539229709587563
5600.00000000284,30.0741315127487,1.00000000105049,0.544304522006161
5700.00000000321,33.6365238103216,1.00000000115298,0.54961672023029
5800.00000000357,37.3873471357125,1.00000000115324,0.553645556047502
5900.00000000393,41.3414306258149,1.00000000107372,0.558099233375606
6000.0000000043,45.403910464137,1.00000000113403,0.562194816639461
6100.00000000466,49.6604078146855,1.00000000113004,0.564816376069986
6200.00000000502,54.0262766174341,1.00000000112596,0.568673205153743
6300.00000000539,58.4935301165537,1.00000000112694,0.571430220364084
6400.00000000575,63.1072251682204,1.00000000109573,0.573869800034885
6500.00000000612,67.7539917636911,1.00000000107706,0.576971904562752
6600.00000000648,72.5088308146847,1.00000000107588,0.578463919027953
6700.00000000684,77.3150527992717,1.00000000109192,0.580723796267736
6800.00000000721,82.1312296753275,1.0000000010283,0.582779214102489
6900.00000000757,87.0238989242051,1.0000000010959,0.583521531739988
7000.00000000793,91.8838147032192,1.00000000105277,0.585722419559981
7100.0000000083,96.7622885408084,1.00000000101403,0.58642982680851
7200.00000000866,101.63840763442,1.00000000102848,0.587246334620662
7300.00000000903,106.449750855478,1.00000000102692,0.588795421194819
7400.00000000939,111.266642701928,1.00000000097931,0.588980353878879
7500.00000000975,116.001559636807,1.00000000097853,0.590080362695821
7600.00000001012,120.680843176325,1.00000000098161,0.590287453452638
7700.00000001048,125.310385136488,1.00000000097149,0.590535224564937
7800.00000001084,129.821833683089,1.00000000094657,0.591636626912224
7900.00000001121,134.279599415666,1.00000000093131,0.590824806213569
8000.00000001157,138.623122395582,1.00000000092916,0.591593017552279
8100.00000001194,142.856694816966,1.00000000092347,0.591633030008107
8200.0000000123,147.006053480024,1.00000000091906,0.591346128721892
8300.00000001266,151.005712768776,1.00000000087977,0.591432533977617
8400.00000001303,154.911415366312,1.00000000088572,0.591326008138207
8500.00000001339,158.681758067267,1.00000000087202,0.590611952270953
8600.00000001376,162.31368096095,1.00000000087121,0.591437341266289
8700.00000001412,165.834731937868,1.0000000008538,0.589449053791311
8800.00000001448,169.194874550744,1.00000000085305,0.591107808401608
8900.00000001485,172.432535366792,1.00000000080043,0.588917874991236
9000.00000001521,175.528464712791,1.00000000079801,0.589998090921279
9100.00000001557,178.470097190145,1.00000000078984,0.588703000738378
9200.00000001594,181.289031658638,1.00000000079559,0.588651428396469
9300.0000000163,183.946652921692,1.00000000076426,0.587948964646236
9400.00000001667,186.469276412271,1.00000000077776,0.587903231287893
9500.00000001703,188.853491088091,1.00000000074292,0.587029200391359
9600.00000001739,191.07923986845,1.00000000071783,0.587189992193645
9700.00000001776,193.18279057832,1.0000000007342,0.586611159809105
9800.00000001812,195.129843778338,1.00000000070899,0.585431808814044
9900.00000001848,196.943796802585,1.00000000073373,0.586505689375449
10000.0000000188,198.626172254716,1.00000000070736,0.584269827728863
10100.0000000192,200.158666001793,1.00000000070358,0.585232887791231
10200.0000000196,201.574635153428,1.00000000070101,0.58520414161311
10300.0000000199,202.850083452783,1.0000000006785,0.583548203224368
10400.0000000203,203.999238717189,1.00000000067316,0.584352121938637
10500.0000000207,205.03048546764,1.0000000006866,0.58429212722686
10600.000000021,205.928964841374,1.00000000067093,0.582822783027764
10700.0000000214,206.717586676501,1.00000000063621,0.582230233361694
10800.0000000218,207.385072130729,1.00000000065389,0.584386647672508
10900.0000000221,207.943077915467,1.00000000062852,0.582306062149836
11000.0000000225,208.395350989984,1.0000000005959,0.579737390336009
11100.0000000229,208.733872154964,1.00000000064193,0.583890067182679
11200.0000000232,208.984428488384,1.00000000059663,0.582783833447443
11300.0000000236,209.134773588155,1.00000000060004,0.578233326365793
11400.0000000239,209.188550739726,1.00000000061118,0.579671314556719
11500.0000000243,209.161543585263,1.00000000062171,0.582885407807161
11600.0000000247,209.049828556688,1.00000000061569,0.580413880938718
11700.000000025,208.863621879174,1.00000000056207,0.573462132502745
11800.0000000254,208.594093791471,1.00000000060733,0.576821476874344
11900.0000000258,208.259788711865,1.00000000065172,0.583004056446966
12000.0000000261,207.874208342781,1.00000000060632,0.575629134329315
12100.0000000265,207.415246199317,1.00000000052297,0.564906715484689
12200.0000000269,206.89507948465,1.00000000060235,0.576061333398293
12300.0000000272,206.33158106438,1.00000000065627,0.582553986086584
12400.0000000276,205.727180973906,1.00000000060742,0.57160904906932
12500.0000000279,205.070566869906,1.00000000050899,0.558682263478568
12600.0000000283,204.356734921955,1.0000000006033,0.571207498089132
12700.0000000287,203.618798319584,1.00000000068942,0.582733031955967
12800.000000029,202.858965746482,1.00000000062724,0.570025651765119
12900.0000000294,202.058952863409,1.00000000053632,0.555938015960716
13000.0000000298,201.215499035173,1.00000000056326,0.555416490100376
13100.0000000301,200.34422446073,1.00000000070533,0.582867170966255
13200.0000000305,199.469971042331,1.00000000068872,0.574523579565674
13300.0000000309,198.577699330451,1.00000000057035,0.557703376140506
13400.0000000312,197.650337825018,1.00000000051174,0.543788461311247
13500.0000000316,196.69398668838,1.0000000006075,0.559033332150591
13600.0000000319,195.732164265333,1.00000000079857,0.587016496334707
13700.0000000323,194.775675098834,1.00000000067196,0.5635989073554
13800.0000000327,193.806877991783,1.00000000058036,0.548045933454288
13900.000000033,192.809605767885,1.00000000050218,0.535586547031657
14000.0000000334,191.793827935848,1.00000000064164,0.556821079879913
14100.0000000338,190.782179403233,1.00000000078588,0.586585505568917
14200.0000000341,189.781563135672,1.0000000006967,0.560819034303464
14300.0000000345,188.776759248734,1.00000000058532,0.541836965156834
14400.0000000349,187.752297731101,1.00000000052447,0.532003822265013
14500.0000000352,186.714001870787,1.00000000059537,0.541616576279247
14600.0000000356,185.677045833789,1.00000000080152,0.579413376450763
14700.0000000359,184.656610204217,1.00000000073533,0.570696768952345
14800.0000000363,183.641764344885,1.00000000066509,0.539209467227022
14900.0000000367,182.619491421345,1.00000000055586,0.53147480005735
15000.000000037,181.587632782844,1.00000000057781,0.532634838575378
15100.0000000374,180.550226427416,1.00000000064763,0.547657206750837
15200.0000000378,179.52306898818,1.00000000079121,0.576744468559802
15300.0000000381,178.511843653387,1.00000000073393,0.560042431878062
15400.0000000385,177.504186187892,1.00000000063188,0.529253472967275
15500.0000000389,176.496265872689,1.00000000056402,0.528461239233071
15600.0000000392,175.483543237082,1.00000000059929,0.536179682124397
15700.0000000396,174.471567614521,1.00000000063812,0.541624365868382
15800.0000000399,173.468166182983,1.0000000007405,0.560514046832438
15900.0000000403,172.475898964909,1.00000000075676,0.562305264124854
16000.0000000407,171.494284748641,1.00000000068057,0.53420940110476
16100.000000041,170.515571347916,1.00000000058188,0.521417243151341
16200.0000000414,169.538741976238,1.00000000060734,0.534919401921914
16300.0000000418,168.565384887193,1.00000000064022,0.540200564322208
16400.0000000418,167.596297413202,1.0000000006739,0.540004333082723
16500.0000000404,166.636569337225,1.00000000070655,0.548615070229894
16600.0000000389,165.686836967795,1.0000000006966,0.549098445706833
16700.0000000375,164.74516466622,1.00000000067855,0.53356574068281
16800.000000036,163.810664694518,1.0000000006019,0.522536701481638
16900.0000000346,162.880799337304,1.00000000061455,0.533036583256803
17000.0000000331,161.957578793231,1.00000000064115,0.543067598750555
17100.0000000317,161.040538246176,1.00000000066938,0.53767808476875
17200.0000000302,160.13071630162,1.00000000065035,0.532123801253651
17300.0000000287,159.229675623947,1.00000000067538,0.538000523024341
17400.0000000273,158.336883825591,1.00000000069021,0.54158921979068
17500.0000000258,157.452571102458,1.00000000067706,0.531642249270377
17600.0000000244,156.576149026752,1.00000000062427,0.526185057544558
17700.0000000229,155.707371186658,1.00000000061476,0.537098100922525
17800.0000000215,154.846548273562,1.00000000065143,0.543813769482377
17900.00000002,153.99263817069,1.00000000065484,0.534678961776915
18000.0000000186,153.146674088755,1.00000000063027,0.527012301747459
18100.0000000171,152.30888355224,1.00000000065308,0.527578911637072
18200.0000000156,151.479065231467,1.00000000064517,0.539681126621094
18300.0000000142,150.657955406425,1.00000000069699,0.542385864956797
18400.0000000127,149.845021017899,1.00000000066128,0.535261381270481
18500.0000000113,149.040867121744,1.00000000059916,0.533586980762946
18600.0000000098,148.245270150645,1.00000000063996,0.543749005568335
18700.0000000084,147.458194506784,1.00000000059709,0.540567406574503
18800.0000000069,146.679510634864,1.00000000063148,0.532138640332077
18900.0000000055,145.908957111912,1.0000000006233,0.523028378880565
19000.000000004,145.147033228493,1.0000000006295,0.525935208179664
19100.0000000026,144.393908901672,1.00000000061929,0.532886146625377
19200.0000000011,143.648616637091,1.00000000066229,0.547824979988555
19299.9999999996,142.911525102473,1.00000000064974,0.544315005750046
19399.9999999982,142.182569920062,1.00000000064081,0.538273671951398
19499.9999999967,141.462036747466,1.00000000065628,0.543109967803442
19599.9999999953,140.750012205525,1.00000000063197,0.546293247355338
19699.9999999938,140.047489142825,1.00000000056568,0.535421820432634
19799.9999999924,139.354744417588,1.00000000057242,0.5231885767889
19899.9999999909,138.67134734066,1.00000000058977,0.518492343477766
19999.9999999895,137.996502619573,1.0000000006658,0.52694300534759
20099.999999988,137.329924336732,1.00000000064786,0.52838327602478
20199.9999999865,136.671114036663,1.00000000066371,0.540491540068548
20299.9999999851,136.019398081894,1.000000000643,0.548740332624841
20399.9999999836,135.374761003009,1.00000000064563,0.54535619756013
20499.9999999822,134.736941334114,1.00000000069264,0.545556674012891
20599.9999999807,134.105848968343,1.00000000069859,0.548236501696844
20699.9999999793,133.483278280779,1.0000000006561,0.539384716622334
20799.9999999778,132.871487889387,1.00000000054927,0.528684089930375
20899.9999999764,132.271104056271,1.00000000052459,0.515213900099217
20999.9999999749,131.681024322382,1.0000000006358,0.515421631450145
21099.9999999734,131.098538636459,1.00000000067032,0.522955221235788
21199.999999972,130.523259523322,1.00000000062673,0.524241568724722
21299.9999999705,129.95469622059,1.00000000065469,0.527803107479355
21399.9999999691,129.392215935437,1.00000000066717,0.539448769595847
21499.9999999676,128.834890148013,1.00000000068046,0.551831643536622
21599.9999999662,128.282198377049,1.0000000006926,0.54936401173964
21699.9999999647,127.734231228059,1.00000000071869,0.548046237206976
21799.9999999633,127.191326599677,1.00000000069823,0.544039050262203
21899.9999999618,126.656796065819,1.00000000060519,0.532227845993448
21999.9999999603,126.134291852911,1.00000000054825,0.523721144502183
22099.9999999589,125.623902626903,1.00000000053324,0.518004275376933
22199.9999999574,125.124267296806,1.0000000006254,0.511385151251917
22299.999999956,124.632467785804,1.00000000065744,0.513258716875002
22399.9999999545,124.147110076316,1.00000000065251,0.519715055002621
22499.9999999531,123.667458011841,1.00000000065283,0.520034999141602
22599.9999999516,123.19329929217,1.00000000064838,0.521869939771225
22699.9999999502,122.722615338003,1.00000000068898,0.539363903509
22799.9999999487,122.25346335826,1.0000000007002,0.552655144168801
22899.9999999473,121.786447176721,1.00000000070421,0.553347304724365
22999.9999999458,121.322683697338,1.00000000067297,0.54578231216584
23099.9999999443,120.863435729441,1.00000000069071,0.542130812925659
23199.9999999429,120.411103964206,1.00000000062948,0.534148918383747
23299.9999999414,119.968979533152,1.00000000058145,0.524800459714201
23399.99999994,119.538165015981,1.00000000056424,0.523772086939357
23499.9999999385,119.118564144664,1.00000000059062,0.52101182812488
23599.9999999371,118.708272859926,1.0000000006124,0.511962514735226
23699.9999999356,118.306525082649,1.00000000064264,0.508775884144986
23799.9999999342,117.911435411737,1.00000000062857,0.514494231272532
23899.9999999327,117.521324454867,1.00000000069434,0.520024821900239
23999.9999999312,117.134336749547,1.00000000067698,0.52700985042043
24099.9999999298,116.748335152397,1.00000000067956,0.531957609741731
24199.9999999283,116.362244205127,1.00000000073324,0.542063761157406
24299.9999999269,115.975557789913,1.00000000068784,0.551733105141849
24399.9999999254,115.589710435855,1.00000000068547,0.550837082397551
24499.999999924,115.207337728622,1.00000000065487,0.543725033056286
24599.9999999225,114.830189606859,1.0000000006232,0.53783403758146
24699.9999999211,114.459278452788,1.00000000062973,0.536036895342999
24799.9999999196,114.096083698861,1.00000000062402,0.535006768043415
24899.9999999181,113.740780856071,1.00000000061043,0.532919754845258
24999.9999999167,113.395240058598,1.00000000064117,0.527564820449122
25099.9999999152,113.059602007085,1.00000000058449,0.522304284412156
25199.9999999138,112.734191279008,1.00000000058915,0.512990655128656
25299.9999999123,112.417772750957,1.00000000058167,0.511255801473957
25399.9999999109,112.108061954437,1.00000000063455,0.516739036199684
25499.9999999094,111.802811169776,1.00000000064601,0.525960808571614
25599.999999908,111.499019856823,1.0000000006959,0.533995773934879
25699.9999999065,111.195301324681,1.00000000067936,0.536838246102228
25799.9999999051,110.890742081749,1.00000000069177,0.541570618775554
25899.9999999036,110.583285418862,1.00000000072716,0.544540230051632
25999.9999999021,110.275283220217,1.00000000069297,0.547331542617691
26099.9999999007,109.969054134493,1.00000000062722,0.548979069663515
26199.9999998992,109.667461263657,1.00000000061906,0.543705460040144
26299.9999998978,109.371444059048,1.00000000064204,0.544686950776715
26399.9999998963,109.079602092084,1.00000000066834,0.544616802842623
26499.9999998949,108.791898920651,1.00000000067104,0.543178001048235
26599.9999998934,108.508903444945,1.00000000064474,0.538260017155894
26699.999999892,108.233402707868,1.00000000058291,0.534573034244156
26799.9999998905,107.968102692729,1.00000000055122,0.52777790538014
26899.999999889,107.713309522312,1.00000000057272,0.523488111183455
26999.9999998876,107.468481298353,1.00000000060243,0.519543726321433
27099.9999998861,107.230814061156,1.00000000063184,0.518620944498646
27199.9999998847,106.999785073811,1.00000000063721,0.521381819001187
27299.9999998832,106.774284145339,1.00000000065266,0.527575620476064
27399.9999998818,106.55093674689,1.00000000069162,0.535646613711866
27499.9999998803,106.326704502282,1.0000000006741,0.544350417885787
27599.9999998789,106.100878665301,1.0000000006685,0.543280127248101
27699.9999998774,105.873488968309,1.00000000071011,0.540964306939081
27799.9999998759,105.644163206169,1.00000000071899,0.542964960137101
27899.9999998745,105.412965956605,1.00000000070867,0.5440817793187
27999.999999873,105.18244194626,1.00000000065639,0.544020340428351
28099.9999998716,104.955249993569,1.00000000061278,0.545307291553659
28199.9999998701,104.731702431307,1.00000000062619,0.547937126334903
28299.9999998687,104.511135129613,1.00000000066448,0.547677608920208
28399.9999998672,104.292613422539,1.00000000068333,0.545855261097944
28499.9999998658,104.075024393634,1.00000000071187,0.544530779995892
28599.9999998643,103.859479115314,1.00000000066045,0.539778358544186
28699.9999998629,103.649210870517,1.00000000063075,0.535490299221238
28799.9999998614,103.447604131177,1.00000000059136,0.528928445876273
28899.9999998599,103.256499072309,1.00000000055566,0.524415103355989
