Time,AGPnorm,Energy,Entropy
0,0,1,-9.87055791487966e-18
99.9999999999986,1.41875420704285e-05,1.00000000000092,0.000646719211675048
199.999999999993,0.00121522022100733,1.00000000000041,0.00101949500649844
300,0.00304245724391286,1.00000000000031,0.00181607884247375
400.000000000022,0.00425205168900321,1.00000000000099,0.0031036805878624
500.000000000045,0.00520164443890268,1,0.00416710204553351
600.000000000068,0.00742050153820029,1.00000000000083,0.00585653558095208
700.000000000091,0.00918183176685878,1.00000000000054,0.00748869765978575
800.000000000113,0.011854209387711,1.00000000000022,0.00925291209811954
900.000000000136,0.0148095837958714,1.00000000000102,0.0114009262933291
1000.00000000016,0.0171927385409061,1.00000000000002,0.0133987521863737
1100.0000000001,0.020683142876815,1.00000000000073,0.0157749066583364
1200,0.0243819887216018,1.0000000000007,0.0181930223378579
1299.99999999991,0.0283008900888467,1.00000000000013,0.0206623230949687
1399.99999999982,0.0323807678637624,1.00000000000101,0.0234480399982961
1499.99999999973,0.0362115921811727,1.00000000000008,0.0261454669940812
1599.99999999964,0.0409738012508598,1.00000000000065,0.0290999860167515
1699.99999999955,0.0461008654339408,1.00000000000083,0.0321623115897973
1799.99999999946,0.0510919725763671,1.00000000000002,0.0352426661527489
1899.99999999937,0.0562390673755022,1.00000000000096,0.0385862697625595
1999.99999999928,0.0614634492379851,1.00000000000021,0.0419006498957697
2099.99999999919,0.0672976577809459,1.00000000000057,0.045419733241791
2199.99999999909,0.0733352407881996,1.00000000000094,0.0490868597364814
2299.999999999,0.0791424404903997,0.999999999999916,0.0527599170719927
2399.99999999891,0.0852439912602283,1.00000000000091,0.0566714155569725
2499.99999999882,0.0917076632814136,1.00000000000038,0.0606108154589164
2599.99999999873,0.0983785928947863,1.00000000000044,0.064742389305715
2699.99999999864,0.104949307696501,1.00000000000099,0.0690365091547584
2799.99999999855,0.111401985725492,0.999999999999879,0.0733596221712608
2899.99999999846,0.118220660057748,1.00000000000088,0.07792434653973
2999.99999999837,0.125572450231376,1.00000000000054,0.082589389279912
3099.99999999828,0.132752993797926,1.00000000000027,0.0874379579722172
3199.99999999819,0.139695557747937,1.00000000000098,0.0924812116196984
3299.99999999809,0.146672556715131,0.999999999999971,0.0976043323648186
3399.999999998,0.153976736249948,1.00000000000088,0.103011559367565
3499.99999999791,0.161681184759277,1.00000000000071,0.108615142479342
3599.99999999782,0.169036713062042,1.00000000000009,0.11442042586028
3699.99999999773,0.176233344919154,1.00000000000096,0.120511963364262
3799.99999999764,0.18361301110063,1.00000000000019,0.126789959599552
3899.99999999755,0.191233304154667,1.00000000000085,0.133470896306336
3999.99999999746,0.198833688765665,1.00000000000102,0.140495665982147
4099.99999999738,0.206137430967761,1.00000000000022,0.147848814769453
4199.99999999775,0.213504761142672,1.0000000000015,0.155705596480187
4299.99999999811,0.220972805437731,1.00000000000141,0.164013795932273
4399.99999999848,0.228807307079577,1.0000000000027,0.172912823401752
4499.99999999884,0.236157264363322,1.00000000000481,0.182396389282876
4599.9999999992,0.243133655504241,1.00000000000642,0.192316019568443
4699.99999999957,0.251644398890938,1.00000000001149,0.202847865300143
4799.99999999993,0.258753627952454,1.00000000001675,0.213793246214204
4900.00000000029,0.268446383197619,1.00000000002405,0.225052830618796
5000.00000000066,0.279052675589717,1.00000000003304,0.236548183168209
5100.00000000102,0.289361219487808,1.00000000003999,0.247974325400356
5200.00000000139,0.309413478402583,1.00000000005324,0.259521961333574
5300.00000000175,0.329407420151579,1.00000000006602,0.270925241312539
5400.00000000211,0.361654343457443,1.00000000007961,0.28215821490103
5500.00000000248,0.408982685690929,1.00000000009707,0.293207608164266
5600.00000000284,0.465688722208694,1.00000000011217,0.303965845335301
5700.00000000321,0.556591469012054,1.00000000012982,0.314567663610661
5800.00000000357,0.668950642192661,1.00000000014688,0.324889551516054
5900.00000000393,0.820226318323417,1.00000000015844,0.334958189332589
6000.0000000043,1.02511452824019,1.00000000016913,0.344808778552805
6100.00000000466,1.27246854454578,1.00000000018885,0.354373065494331
6200.00000000502,1.59848356109319,1.00000000020896,0.363661371365017
6300.00000000539,1.9951584226443,1.00000000022408,0.372679107299229
6400.00000000575,2.4768447345329,1.00000000024884,0.381333991873763
6500.00000000612,3.06954581627964,1.00000000025967,0.389852587804167
6600.00000000648,3.75984753333924,1.00000000027681,0.398047546457131
6700.00000000684,4.5842472712956,1.00000000028366,0.405995503232121
6800.00000000721,5.54294962719943,1.00000000028673,0.413675828392829
6900.00000000757,6.6419010806197,1.00000000030823,0.421073661321404
7000.00000000793,7.91074078548831,1.00000000034299,0.428115407132653
7100.0000000083,9.33812046462578,1.00000000032306,0.435087462522314
7200.00000000866,10.9514998167764,1.00000000033729,0.441653952449725
7300.00000000903,12.7556017011695,1.00000000036284,0.447939154466638
7400.00000000939,14.7501604696294,1.00000000035271,0.454201096784367
7500.00000000975,16.9589124099509,1.00000000036672,0.460067746694622
7600.00000001012,19.3740630498341,1.00000000039215,0.465616467856642
7700.00000001048,22.0119952573825,1.00000000039214,0.471018636699511
7800.00000001084,24.8748607040539,1.00000000038072,0.476357141406503
7900.00000001121,27.9615730144036,1.00000000039997,0.48120555089504
8000.00000001157,31.2845646910683,1.00000000040749,0.486007162949103
8100.00000001194,34.8369968611469,1.00000000040271,0.490547016531897
8200.0000000123,38.6277718306432,1.00000000041645,0.494868244135031
8300.00000001266,42.6513093338818,1.00000000042236,0.499045757826464
8400.00000001303,46.9087757718446,1.00000000043396,0.502854388260672
8500.00000001339,51.4021191724514,1.00000000042684,0.506669278867344
8600.00000001376,56.1202868030836,1.00000000041668,0.510300609683927
8700.00000001412,61.0714001879452,1.00000000043929,0.51356335649406
8800.00000001448,66.2399184746096,1.00000000043217,0.516913166661719
8900.00000001485,71.6280086767683,1.00000000043554,0.519889560066601
9000.00000001521,77.2327528686074,1.000000000438,0.522773714108397
9100.00000001557,83.03535985387,1.00000000044352,0.525590672032598
9200.00000001594,89.0467994532485,1.00000000044892,0.528040948404353
9300.0000000163,95.2441053144353,1.00000000044852,0.530594258204363
9400.00000001667,101.625926161004,1.0000000004345,0.53296269537274
9500.00000001703,108.192127972148,1.00000000043498,0.535093398924811
9600.00000001739,114.914467418813,1.0000000004472,0.53719745058113
9700.00000001776,121.80643007129,1.00000000043362,0.539072166945538
9800.00000001812,128.843753840719,1.00000000042978,0.540932252368018
9900.00000001848,136.017454323498,1.00000000043486,0.542722075699091
10000.0000000188,143.334656639167,1.00000000043981,0.54413587738335
10100.0000000192,150.758933271822,1.00000000044878,0.545788569333472
10200.0000000196,158.304425257864,1.00000000044926,0.547082534927226
10300.0000000199,165.95124148317,1.00000000043376,0.548408466472444
10400.0000000203,173.679667571357,1.00000000043052,0.549750867939569
10500.0000000207,181.506485928093,1.00000000043364,0.550849308745342
10600.000000021,189.39067139278,1.00000000043682,0.551805151864014
10700.0000000214,197.343120772183,1.00000000042541,0.553056239242543
10800.0000000218,205.353272075051,1.00000000041748,0.553821998274265
10900.0000000221,213.391733366393,1.00000000042438,0.554444689792376
11000.0000000225,221.480018778262,1.00000000040763,0.555588353160315
11100.0000000229,229.581356428818,1.00000000041519,0.55577379823614
11200.0000000232,237.698280748428,1.00000000041945,0.55642672827072
11300.0000000236,245.830738871951,1.00000000041474,0.557229262999
11400.0000000239,253.945292606302,1.00000000041252,0.557358612920023
11500.0000000243,262.06125606321,1.00000000041268,0.558070901728654
11600.0000000247,270.151745884801,1.00000000040868,0.55846683289141
11700.000000025,278.209601296196,1.00000000039659,0.558611690635665
11800.0000000254,286.243970366344,1.00000000041324,0.559252931810443
11900.0000000258,294.220744897688,1.00000000040191,0.559113661205117
12000.0000000261,302.155629199283,1.00000000039541,0.559299320733756
12100.0000000265,310.031550779696,1.00000000040082,0.559858933598867
12200.0000000269,317.835365137426,1.00000000039645,0.559496724452771
12300.0000000272,325.580983862829,1.00000000039861,0.559594034427784
12400.0000000276,333.236854177322,1.0000000003879,0.560078349154239
12500.0000000279,340.816195605685,1.00000000038362,0.559591838601752
12600.0000000283,348.30754935762,1.00000000038261,0.560019762557794
12700.0000000287,355.695830219687,1.0000000003715,0.559777310837969
12800.000000029,362.997055635774,1.00000000036796,0.559446876520581
12900.0000000294,370.183756656149,1.00000000036685,0.559882025042564
13000.0000000298,377.265146237432,1.00000000035796,0.559603967317681
13100.0000000301,384.237893550495,1.00000000037395,0.559111498973478
13200.0000000305,391.08296859877,1.00000000036354,0.559555806419505
13300.0000000309,397.819254085621,1.00000000035372,0.558849140588494
13400.0000000312,404.422373690539,1.00000000036281,0.558950247708464
13500.0000000316,410.898631325725,1.00000000034435,0.55903538648237
13600.0000000319,417.252090045505,1.00000000034011,0.558106613911434
13700.0000000323,423.459937640006,1.000000000346,0.558149940886597
13800.0000000327,429.542170386135,1.00000000034078,0.558363357123104
13900.000000033,435.482994876476,1.00000000033947,0.55758426360864
14000.0000000334,441.279687300611,1.00000000033233,0.557372342110324
14100.0000000338,446.943670429495,1.00000000033651,0.557366652734264
14200.0000000341,452.455425870679,1.00000000032521,0.55674263488063
14300.0000000345,457.828483336899,1.00000000032794,0.556258463589836
14400.0000000349,463.05420719147,1.00000000032559,0.556328650370146
14500.0000000352,468.129312436775,1.00000000033001,0.556135464045689
14600.0000000356,473.065380727016,1.00000000031315,0.555307928576941
14700.0000000359,477.844447274894,1.00000000031359,0.555255301671548
14800.0000000363,482.479241536572,1.00000000031596,0.554910374244133
14900.0000000367,486.967195944928,1.00000000030576,0.554404304111533
15000.000000037,491.299009914831,1.00000000029931,0.554359488298803
15100.0000000374,495.489693028241,1.00000000031494,0.554177122743945
15200.0000000378,499.526459859018,1.00000000029814,0.553861467131306
15300.0000000381,503.416082210814,1.00000000029661,0.553145192709262
15400.0000000385,507.160340805404,1.00000000029233,0.552515719287554
15500.0000000389,510.750430667832,1.00000000028781,0.552680880122285
15600.0000000392,514.201728002243,1.00000000029578,0.552825483871135
15700.0000000396,517.502602355022,1.00000000027237,0.552249198366871
15800.0000000399,520.660242150725,1.00000000029088,0.552761084335096
15900.0000000403,523.678685128979,1.00000000027968,0.550432044971786
16000.0000000407,526.548761782038,1.00000000028224,0.551224587310063
16100.000000041,529.283278098976,1.00000000027068,0.549604517147694
16200.0000000414,531.876253724139,1.00000000027631,0.55198092064862
16300.0000000418,534.331902821336,1.00000000027219,0.551246835876671
16400.0000000418,536.656789283896,1.00000000027189,0.551403717337133
16500.0000000404,538.841737796461,1.00000000026278,0.549039208011558
16600.0000000389,540.896640676877,1.00000000026227,0.547789294037472
16700.0000000375,542.81692581614,1.00000000025713,0.547258179312739
16800.000000036,544.603666300136,1.00000000026575,0.549179581047124
16900.0000000346,546.267828201898,1.00000000026187,0.551411813756051
17000.0000000331,547.805622816295,1.00000000026002,0.552058022373451
17100.0000000317,549.226298799783,1.00000000025356,0.549327683404633
17200.0000000302,550.525294909787,1.00000000025231,0.544976776814698
17300.0000000287,551.695721845053,1.00000000024816,0.542606831066292
17400.0000000273,552.745719155292,1.00000000024758,0.544643726516343
17500.0000000258,553.674095247916,1.00000000025096,0.54950134119274
17600.0000000244,554.497097158946,1.00000000025878,0.553989707973491
17700.0000000229,555.220864474436,1.00000000025593,0.553376461707534
17800.0000000215,555.841976043083,1.00000000025278,0.548656861601854
17900.00000002,556.360902386047,1.00000000023342,0.540747751362247
18000.0000000186,556.762522391207,1.00000000021902,0.536720787440754
18100.0000000171,557.050454398784,1.00000000021279,0.539340999446979
18200.0000000156,557.234328607624,1.00000000023719,0.54767069703351
18300.0000000142,557.329004973617,1.00000000025301,0.555962884934007
18400.0000000127,557.354408107315,1.0000000002663,0.557773700260468
18500.0000000113,557.308699401034,1.00000000025483,0.551675733739475
18600.0000000098,557.182280612282,1.00000000023194,0.539725659971189
18700.0000000084,556.960777571663,1.00000000020527,0.529692701830962
18800.0000000069,556.631799392168,1.0000000001989,0.528218130684411
18900.0000000055,556.20733289977,1.00000000020502,0.53774425204163
19000.000000004,555.705274590803,1.00000000024302,0.551712695862956
19100.0000000026,555.150908269308,1.00000000027191,0.561145871445134
19200.0000000011,554.560224005325,1.0000000002842,0.560549634062276
19299.9999999996,553.925305393538,1.00000000025847,0.549460889428784
19399.9999999982,553.232282891494,1.00000000021809,0.532354740610905
19499.9999999967,552.456128892318,1.00000000018036,0.517580015339749
19599.9999999953,551.58724081207,1.00000000017451,0.515600356612446
19699.9999999938,550.63606278589,1.00000000019996,0.528114144818181
19799.9999999924,549.624414895394,1.00000000023778,0.548437808284644
19899.9999999909,548.585752986208,1.00000000027736,0.56301224372445
19999.9999999895,547.536078922397,1.00000000030004,0.565441520729443
20099.999999988,546.47422353033,1.00000000027691,0.555127227422202
20199.9999999865,545.384851821351,1.00000000023609,0.534288235645349
20299.9999999851,544.237708804104,1.00000000018683,0.511464817239866
20399.9999999836,543.016488401139,1.00000000015851,0.497870900635753
20499.9999999822,541.715710203184,1.0000000001646,0.503225100009689
20599.9999999807,540.354651463699,1.0000000002105,0.5275695329786
20699.9999999793,538.966465610379,1.00000000025731,0.552913063596602
20799.9999999778,537.576501911137,1.00000000031431,0.567385152703341
20899.9999999764,536.199891044882,1.00000000031871,0.567721154945143
20999.9999999749,534.832813429585,1.0000000002965,0.555046957064868
21099.9999999734,533.453407386516,1.00000000025034,0.530381939097765
21199.999999972,532.037271855286,1.00000000018866,0.500948283432277
21299.9999999705,530.558243270164,1.00000000014875,0.481259417429923
21399.9999999691,529.013943426163,1.00000000014732,0.483517183640484
21499.9999999676,527.417585024837,1.0000000001936,0.508943914380543
21599.9999999662,525.796546037372,1.00000000026259,0.541718654560983
21699.9999999647,524.181398878172,1.00000000032422,0.564129980898567
21799.9999999633,522.588942746593,1.00000000034867,0.5729407104175
21899.9999999618,521.02423573013,1.00000000034112,0.567317197177731
21999.9999999603,519.476923640648,1.0000000002998,0.548723629411384
22099.9999999589,517.922562033276,1.0000000002291,0.518765275909256
22199.9999999574,516.338478356446,1.0000000001761,0.485519823860902
22299.999999956,514.70338878275,1.00000000013434,0.465428963808917
22399.9999999545,513.016189395851,1.00000000014512,0.468763527080374
22499.9999999531,511.289850837504,1.00000000018792,0.496219706330146
22599.9999999516,509.546700079344,1.00000000025846,0.532807870296951
22699.9999999502,507.813710761966,1.00000000031975,0.560088845568753
22799.9999999487,506.107074656027,1.00000000034817,0.572294355419464
22899.9999999473,504.433327493259,1.00000000036467,0.571712999588728
22999.9999999458,502.789287813503,1.00000000033106,0.558885390264598
23099.9999999443,501.157645387598,1.00000000029061,0.5348319805396
23199.9999999429,499.520216470728,1.00000000022317,0.501135151720944
23299.9999999414,497.855772231317,1.0000000001615,0.468125670740477
23399.99999994,496.152969960555,1.00000000013376,0.452130977694475
23499.9999999385,494.413422697983,1.00000000014386,0.45913995439458
23599.9999999371,492.646577268071,1.0000000001886,0.487440041991264
23699.9999999356,490.87313907921,1.00000000025573,0.524880347564259
23799.9999999342,489.11088570288,1.00000000031604,0.553526248660777
23899.9999999327,487.372936560736,1.0000000003462,0.567871107513374
23999.9999999312,485.66732589805,1.0000000003756,0.569206981578439
24099.9999999298,483.991633728668,1.00000000034773,0.561206848616038
24199.9999999283,482.338384983963,1.00000000031399,0.543964200479855
24299.9999999269,480.694106729169,1.00000000025551,0.51686506028616
24399.9999999254,479.042633475662,1.00000000020486,0.48451246029633
24499.999999924,477.373761759541,1.0000000001584,0.45685237358695
24599.9999999225,475.679186600559,1.00000000014085,0.445281418665779
24699.9999999211,473.962756436203,1.00000000014815,0.453871394734761
24799.9999999196,472.231910500714,1.00000000019017,0.477934496061673
24899.9999999181,470.49761571368,1.00000000024441,0.510627302600406
24999.9999999167,468.773789177056,1.0000000003051,0.540109328296966
25099.9999999152,467.069036527235,1.0000000003349,0.556648839882156
25199.9999999138,465.389222255999,1.00000000035685,0.562901255302994
25299.9999999123,463.736386332763,1.00000000034509,0.556790768021347
25399.9999999109,462.105976729377,1.00000000034452,0.546877963596905
25499.9999999094,460.492834040308,1.00000000028683,0.528604076243267
25599.999999908,458.886573260202,1.00000000025049,0.505705577420649
25699.9999999065,457.278956961979,1.00000000021391,0.480955430229796
25799.9999999051,455.663920210193,1.00000000017397,0.459096295493107
25899.9999999036,454.037019026259,1.0000000001498,0.447629103310171
25999.9999999021,452.4010669742,1.00000000016123,0.449923709419009
26099.9999999007,450.758141442762,1.00000000018716,0.464979141226112
26199.9999998992,449.114955038847,1.00000000022807,0.488316685434757
26299.9999998978,447.478302097334,1.00000000026024,0.513634393493595
26399.9999998963,445.853313713352,1.00000000031228,0.5343382199763
26499.9999998949,444.245180471516,1.00000000033055,0.546561765306693
26599.9999998934,442.656486747897,1.00000000033545,0.546907105165449
26699.999999892,441.086258808952,1.00000000035393,0.543465526164558
26799.9999998905,439.533905703819,1.00000000030889,0.533408905253875
26899.999999889,437.994741956872,1.00000000029078,0.521287132249974
26999.9999998876,436.465072977783,1.00000000027075,0.508216328332387
27099.9999998861,434.940564550825,1.00000000022921,0.491496231789736
27199.9999998847,433.417374558909,1.00000000020574,0.476273775929217
27299.9999998832,431.894740728497,1.00000000019119,0.463286337495917
27399.9999998818,430.37100820803,1.0000000001724,0.455976841185663
27499.9999998803,428.848476777667,1.00000000018779,0.456841455161595
27599.9999998789,427.327945349617,1.00000000019709,0.465986243379155
27699.9999998774,425.811673075429,1.0000000002222,0.480979168922832
27799.9999998759,424.302811164025,1.00000000024798,0.498756390706814
27899.9999998745,422.803293651618,1.00000000028352,0.515042226391554
27999.999999873,421.315123243817,1.00000000031045,0.525857810278899
28099.9999998716,419.839937970006,1.00000000032217,0.530599815184106
28199.9999998701,418.377647844716,1.00000000030694,0.529619456978467
28299.9999998687,416.927997287802,1.00000000030675,0.526114678363305
28399.9999998672,415.490238215222,1.00000000029538,0.519731797090804
28499.9999998658,414.062292539474,1.00000000027058,0.512145217407391
28599.9999998643,412.643330507475,1.00000000025406,0.506554788142415
28699.9999998629,411.231631174324,1.00000000023056,0.499117712347821
28799.9999998614,409.826736472023,1.00000000022595,0.493307895116277
28899.9999998599,408.428024834133,1.00000000021601,0.484586519568653
