Time,AGPnorm,Energy,Entropy
0,0,1,-1.10718428538102e-17
99.9999999999986,2.88844159856746e-05,1.00000000000012,0.00116853962993177
199.999999999993,0.00242013857502229,1.00000000000072,0.00183740515814008
300,0.00606337474201457,0.999999999999748,0.0032528351427119
400.000000000022,0.0082573541842782,1.00000000000066,0.00556133034704087
500.000000000045,0.0100756076869661,1.00000000000016,0.00743161959727288
600.000000000068,0.0146899954584856,1.00000000000002,0.0103611181672439
700.000000000091,0.0181814042470667,1.00000000000069,0.0132344231240614
800.000000000113,0.0231202551589702,0.99999999999987,0.0162990902895164
900.000000000136,0.0288408488981268,1.00000000000051,0.020051997877622
1000.00000000016,0.0336704662998377,1.00000000000026,0.0235150623018893
1100.0000000001,0.0402775172136643,1.00000000000002,0.0276041589488025
1200,0.0469100370043089,1.00000000000062,0.0318574039229589
1299.99999999991,0.0539818633837378,0.999999999999971,0.0361402276171481
1399.99999999982,0.0620969885923756,1.00000000000042,0.0410051130522814
1499.99999999973,0.0696649055187938,1.0000000000003,0.0457416777133946
1599.99999999964,0.0779278364288023,1.00000000000004,0.0509116314115157
1699.99999999955,0.0865367200705096,1.00000000000055,0.0563791661935056
1799.99999999946,0.0953637759046894,1.00000000000006,0.061861229068344
1899.99999999937,0.105067144364611,1.00000000000039,0.0678773676541609
1999.99999999928,0.114596769282668,1.00000000000025,0.0739471446331697
2099.99999999919,0.124025938981207,1.00000000000005,0.0803600839224059
2199.99999999909,0.133988870117003,1.00000000000053,0.0872034239791706
2299.999999999,0.144035414916652,1.00000000000018,0.0941623704706109
2399.99999999891,0.154395993790913,1.00000000000041,0.101701703560625
2499.99999999882,0.164773024169767,1.00000000000017,0.10952461122791
2599.99999999873,0.174861396805125,1.00000000000005,0.117755944691903
2699.99999999864,0.185610838942508,1.00000000000056,0.126703377226502
2799.99999999855,0.19626935762982,1.00000000000039,0.136044218399902
2899.99999999846,0.206646003895775,1.00000000000075,0.146275003530178
2999.99999999837,0.216836152208578,1.00000000000113,0.157345678962441
3099.99999999828,0.227199735031909,1.00000000000281,0.169337304342571
3199.99999999819,0.238111071384013,1.00000000000721,0.182759208662216
3299.99999999809,0.247929870188693,1.00000000001413,0.197140397326417
3399.999999998,0.259725505332456,1.00000000002794,0.21249324810746
3499.99999999791,0.26886776059114,1.00000000004652,0.228586530867499
3599.99999999782,0.28167381080681,1.000000000071,0.244774921002458
3699.99999999773,0.301135823000615,1.00000000010441,0.261333110191543
3799.99999999764,0.3171619776163,1.00000000014389,0.2774770478554
3899.99999999755,0.355790271420531,1.00000000017859,0.293311089611629
3999.99999999746,0.402670944843347,1.00000000022673,0.308924802765262
4099.99999999738,0.473808304420198,1.00000000027181,0.323912440927232
4199.99999999775,0.592994206499146,1.00000000030725,0.338726169802662
4299.99999999811,0.737602019550451,1.00000000033624,0.353028119060076
4399.99999999848,0.959825903281089,1.00000000038197,0.366612923744656
4499.99999999884,1.25196076115315,1.00000000045773,0.379809574548947
4599.9999999992,1.62363407733631,1.00000000049119,0.392583063410856
4699.99999999957,2.1235214661026,1.0000000005224,0.404720749622953
4799.99999999993,2.72350270468676,1.00000000057953,0.416342940406574
4900.00000000029,3.47385339823251,1.00000000059003,0.427407845597098
5000.00000000066,4.38348152020933,1.0000000006151,0.438083815295987
5100.00000000102,5.44490550652793,1.00000000063958,0.448254957410237
5200.00000000139,6.70914968447753,1.00000000066537,0.457774012949629
5300.00000000175,8.15354177665853,1.00000000070146,0.466849384531844
5400.00000000211,9.8034739525773,1.00000000073254,0.475443101422731
5500.00000000248,11.6770014610351,1.00000000076629,0.483413152436629
5600.00000000284,13.7565313706224,1.00000000077153,0.491025671248924
5700.00000000321,16.0721280163941,1.00000000079196,0.498162899794646
5800.00000000357,18.6111555061847,1.0000000008124,0.504909999770092
5900.00000000393,21.3743098038171,1.00000000078483,0.511526418473104
6000.0000000043,24.3740984138568,1.0000000008183,0.517372372609211
6100.00000000466,27.59451420014,1.00000000086128,0.522725045119282
6200.00000000502,31.0381915021695,1.00000000081535,0.528052697944075
6300.00000000539,34.6983977315672,1.00000000085227,0.532795624591895
6400.00000000575,38.5660345511123,1.00000000084636,0.537402400128567
6500.00000000612,42.6360221216872,1.00000000086086,0.541656771048994
6600.00000000648,46.8999942621953,1.00000000084574,0.545444038888318
6700.00000000684,51.3432048890262,1.00000000082791,0.549349431950476
6800.00000000721,55.9554069785523,1.00000000084834,0.552619544320622
6900.00000000757,60.7310207065944,1.00000000085586,0.555615114866568
7000.00000000793,65.6479647402213,1.00000000085635,0.558609460865423
7100.0000000083,70.7032464655056,1.00000000088049,0.56101325394441
7200.00000000866,75.8786009113305,1.00000000085485,0.563708370631638
7300.00000000903,81.1548393474387,1.00000000085862,0.565994123331866
7400.00000000939,86.5352503172522,1.0000000008328,0.567840841964833
7500.00000000975,91.9879534160804,1.00000000081864,0.569890070156577
7600.00000001012,97.5097830653739,1.00000000082319,0.571523242557997
7700.00000001048,103.089636123225,1.00000000085437,0.573026124133452
7800.00000001084,108.698980517802,1.00000000082283,0.574614947390602
7900.00000001121,114.348610954777,1.0000000007938,0.575591837116278
8000.00000001157,120.006953413583,1.00000000078417,0.57692814970902
8100.00000001194,125.665519628942,1.00000000081376,0.577879631286631
8200.0000000123,131.324071693356,1.00000000077756,0.578607892374077
8300.00000001266,136.950306374716,1.00000000078984,0.57950257031381
8400.00000001303,142.556966723074,1.00000000077552,0.579870571194913
8500.00000001339,148.118515630102,1.0000000007797,0.580665003876639
8600.00000001376,153.622672574251,1.00000000076934,0.581221197987623
8700.00000001412,159.076851064389,1.00000000075936,0.581131559187333
8800.00000001448,164.45073732875,1.00000000074563,0.582027882751924
8900.00000001485,169.75365481672,1.00000000074652,0.581778610355663
9000.00000001521,174.972969911607,1.00000000071803,0.582148586410876
9100.00000001557,180.088976821661,1.00000000072126,0.582114331941053
9200.00000001594,185.117543029925,1.00000000071917,0.582250178626212
9300.0000000163,190.030568995997,1.00000000070157,0.581809664889311
9400.00000001667,194.835822580113,1.00000000069925,0.582513241484223
9500.00000001703,199.528889216721,1.00000000069345,0.581269944608912
9600.00000001739,204.088337767023,1.00000000067702,0.582117814978857
9700.00000001776,208.534517751322,1.00000000065803,0.58155494157178
9800.00000001812,212.843011059968,1.00000000063837,0.581009661444386
9900.00000001848,217.020098239949,1.00000000064463,0.581930414119711
10000.0000000188,221.066726052477,1.00000000063172,0.580210384813242
10100.0000000192,224.963474123998,1.00000000064645,0.580828769820623
10200.0000000196,228.730278295626,1.0000000006384,0.580135352069687
10300.0000000199,232.35000603052,1.00000000061221,0.57940502776196
10400.0000000203,235.8246724104,1.00000000061002,0.579730644555578
10500.0000000207,239.161853181333,1.00000000060012,0.578836116229401
10600.000000021,242.345430613272,1.00000000058908,0.578575189140129
10700.0000000214,245.390174511466,1.00000000061297,0.578254199202225
10800.0000000218,248.289231571454,1.00000000057964,0.578137138774949
10900.0000000221,251.039041183769,1.00000000057347,0.577150207968013
11000.0000000225,253.64909741962,1.00000000058445,0.577371664978069
11100.0000000229,256.110206410573,1.00000000057946,0.577070188087924
11200.0000000232,258.432071708544,1.00000000054631,0.57555318626506
11300.0000000236,260.611515243699,1.00000000055334,0.576359552770847
11400.0000000239,262.648095605156,1.00000000055643,0.575877639244126
11500.0000000243,264.549960281223,1.00000000052985,0.574704239175962
11600.0000000247,266.309576950438,1.00000000053257,0.575519132620631
11700.000000025,267.938636034816,1.00000000051413,0.574093180289584
11800.0000000254,269.433544745377,1.00000000050272,0.574499849520135
11900.0000000258,270.794771900591,1.00000000053032,0.57505755372069
12000.0000000261,272.03345982279,1.00000000050892,0.571894197034112
12100.0000000265,273.139813829637,1.00000000049757,0.57262279594244
12200.0000000269,274.125898325066,1.00000000049039,0.575164247208393
12300.0000000272,274.997047599796,1.00000000048177,0.573086380992703
12400.0000000276,275.745294707405,1.00000000047178,0.570452013677651
12500.0000000279,276.380981672477,1.0000000004907,0.570891420505108
12600.0000000283,276.903872713415,1.0000000004833,0.574694350999152
12700.0000000287,277.325794788787,1.0000000004865,0.574036805425483
12800.000000029,277.648544932511,1.00000000045777,0.568430461805792
12900.0000000294,277.861768449773,1.00000000043788,0.566020072225746
13000.0000000298,277.97833697991,1.00000000045642,0.572991535686805
13100.0000000301,278.010535716092,1.00000000049524,0.57661807852241
13200.0000000305,277.963234007821,1.00000000046379,0.568957143322104
13300.0000000309,277.827316121428,1.00000000041312,0.559951795368429
13400.0000000312,277.597185324182,1.0000000004361,0.565590714722618
13500.0000000316,277.298294217821,1.00000000050186,0.576945111410221
13600.0000000319,276.943211609933,1.00000000049874,0.57362947000884
13700.0000000323,276.524482672292,1.00000000044406,0.560954105325398
13800.0000000327,276.028799586223,1.00000000040713,0.55290721419137
13900.000000033,275.457892272746,1.00000000043964,0.565476402441408
14000.0000000334,274.844579346104,1.00000000050723,0.579419483493781
14100.0000000338,274.198081789197,1.0000000004945,0.570911136416463
14200.0000000341,273.505676350604,1.00000000043007,0.555670093286535
14300.0000000345,272.748462960063,1.00000000038542,0.543800316920703
14400.0000000349,271.928695944875,1.00000000043466,0.558855732326334
14500.0000000352,271.083303080075,1.00000000055496,0.581018469096885
14600.0000000356,270.224694565176,1.00000000054862,0.573233783461124
14700.0000000359,269.341548732673,1.00000000044157,0.553574844213531
14800.0000000363,268.409068855307,1.00000000037714,0.535110671096645
14900.0000000367,267.420170159338,1.00000000037799,0.540364319536028
15000.000000037,266.406299342159,1.00000000054811,0.57560981037794
15100.0000000374,265.394544421656,1.00000000056128,0.580396928976963
15200.0000000378,264.380702044596,1.00000000055223,0.561632518214188
15300.0000000381,263.345166510815,1.00000000038938,0.535117678042249
15400.0000000385,262.261699768376,1.00000000034003,0.520844631028076
15500.0000000389,261.141973821156,1.00000000044543,0.543115867365003
15600.0000000392,260.015679686989,1.00000000059973,0.579366220953976
15700.0000000396,258.904267031867,1.00000000062048,0.579437566812365
15800.0000000399,257.800321608153,1.0000000005225,0.552726917833944
15900.0000000403,256.678800838428,1.00000000041143,0.525490622786267
16000.0000000407,255.522888624706,1.00000000033174,0.511450222698202
16100.000000041,254.33606995337,1.00000000043383,0.531634001773633
16200.0000000414,253.145385541704,1.00000000058903,0.572502547754373
16300.0000000418,251.9750105953,1.00000000064597,0.583365410950746
16400.0000000418,250.820833956913,1.00000000056494,0.559713217822982
16500.0000000404,249.665657345782,1.00000000043133,0.52620341149717
16600.0000000389,248.488954054432,1.00000000035313,0.508525733144079
16700.0000000375,247.286454861474,1.00000000038391,0.511816964995124
16800.000000036,246.073167761951,1.00000000048697,0.541435584202072
16900.0000000346,244.868752280165,1.00000000060983,0.576572432303998
17000.0000000331,243.68627878043,1.00000000063452,0.577885814016554
17100.0000000317,242.521083489969,1.00000000054388,0.547583752154391
17200.0000000302,241.35418240194,1.0000000004294,0.515915931208069
17300.0000000287,240.175702373394,1.00000000037676,0.505564246198558
17400.0000000273,238.9810547679,1.00000000038344,0.509050248827101
17500.0000000258,237.780154965001,1.0000000004767,0.53094804399797
17600.0000000244,236.58730573112,1.0000000005614,0.562386143839045
17700.0000000229,235.412197841981,1.00000000064346,0.574861756307706
17800.0000000215,234.255935072237,1.00000000060225,0.554112144126607
17900.00000002,233.107979942593,1.00000000048632,0.522980148579735
18000.0000000186,231.958272060434,1.00000000039373,0.505763543945742
18100.0000000171,230.802382641316,1.0000000003876,0.506053600075552
18200.0000000156,229.640467313505,1.00000000042399,0.515061979245553
18300.0000000142,228.480540269588,1.00000000049842,0.530215602238954
18400.0000000127,227.329643669814,1.00000000056341,0.552334909005502
18500.0000000113,226.193270561409,1.00000000062285,0.563101611527697
18600.0000000098,225.072574657847,1.00000000058485,0.548690761302705
18700.0000000084,223.961239883839,1.00000000051732,0.525062586795544
18800.0000000069,222.854364315913,1.00000000042047,0.507506834636006
18900.0000000055,221.747712828107,1.00000000041835,0.508584107814787
19000.000000004,220.641825201376,1.0000000004331,0.515212550513721
19100.0000000026,219.539197336068,1.0000000004652,0.520744982025788
19200.0000000011,218.441829467742,1.00000000049991,0.527703614444404
19299.9999999996,217.354243060887,1.0000000005539,0.541498965078193
19399.9999999982,216.278814772592,1.00000000058149,0.548814730468028
19499.9999999967,215.214575224289,1.00000000054879,0.540811448847007
19599.9999999953,214.160016440915,1.00000000051018,0.523926318980463
19699.9999999938,213.111754719309,1.00000000044691,0.513119404584223
19799.9999999924,212.06953524618,1.00000000044454,0.514537133350545
19899.9999999909,211.032472940254,1.00000000045586,0.518564988954431
19999.9999999895,210.000737393367,1.00000000045218,0.518659690546404
20099.999999988,208.975378989845,1.0000000004572,0.518382070769543
20199.9999999865,207.957180210884,1.00000000049416,0.523561436244638
20299.9999999851,206.94795651986,1.00000000051292,0.531445888283462
20399.9999999836,205.94867103398,1.00000000055129,0.537531195924156
20499.9999999822,204.958454535983,1.00000000052464,0.536301416985503
20599.9999999807,203.97722023374,1.00000000052468,0.529433690342737
20699.9999999793,203.004181944151,1.00000000049361,0.523031127634994
20799.9999999778,202.039393536992,1.00000000045768,0.523161673789699
20899.9999999764,201.082684635451,1.00000000045766,0.524109780375867
20999.9999999749,200.133368864088,1.00000000045165,0.520748049585409
21099.9999999734,199.191784993966,1.00000000044317,0.517340251517221
21199.999999972,198.25761490451,1.00000000045746,0.514232269282516
21299.9999999705,197.331743991594,1.00000000050046,0.517517378144463
21399.9999999691,196.414725954251,1.00000000050277,0.522833941931928
21499.9999999676,195.506011512857,1.00000000051875,0.535168069755707
21599.9999999662,194.605604222709,1.0000000005176,0.539903925826434
21699.9999999647,193.713430363832,1.00000000049845,0.536662954526132
21799.9999999633,192.82945429448,1.00000000048529,0.529734034826149
21899.9999999618,191.954036492893,1.0000000004787,0.532339565328052
21999.9999999603,191.087225325267,1.0000000004871,0.532884676638537
22099.9999999589,190.22971219819,1.00000000044838,0.528986736615351
22199.9999999574,189.381145224645,1.00000000041643,0.517775005941667
22299.999999956,188.542193378947,1.0000000004079,0.506454153668086
22399.9999999545,187.712857050557,1.00000000041683,0.505277233932568
22499.9999999531,186.892541843566,1.00000000048373,0.513499373672012
22599.9999999516,186.080545382412,1.00000000051944,0.522214627719811
22699.9999999502,185.275946002367,1.00000000056511,0.530488913018225
22799.9999999487,184.478051161112,1.00000000051215,0.537881451534042
22899.9999999473,183.687594587923,1.00000000048109,0.539188695896395
22999.9999999458,182.904590934366,1.00000000047365,0.53295913102659
23099.9999999443,182.129055961116,1.00000000050754,0.536746463401009
23199.9999999429,181.360493726815,1.00000000053118,0.542909586790477
23299.9999999414,180.599778454032,1.00000000051257,0.537845710375437
23399.99999994,179.848116057133,1.00000000045941,0.527143681064841
23499.9999999385,179.107435032535,1.0000000003792,0.509011101980046
23599.9999999371,178.37955961659,1.00000000036525,0.495501129023513
23699.9999999356,177.663669403868,1.00000000040846,0.494892440165088
23799.9999999342,176.957774457462,1.00000000047949,0.506291233106758
23899.9999999327,176.25921991774,1.00000000053193,0.517163489094185
23999.9999999312,175.566541147735,1.00000000053615,0.522209487245406
24099.9999999298,174.878801638665,1.0000000005235,0.525932132294342
24199.9999999283,174.196740784531,1.00000000049244,0.530942315217511
24299.9999999269,173.520820812056,1.00000000049949,0.537325283716419
24399.9999999254,172.850745115348,1.0000000004968,0.53551915044682
24499.999999924,172.185709822122,1.00000000054833,0.540207579974032
24599.9999999225,171.524895425585,1.00000000056087,0.548312641930925
24699.9999999211,170.868914436691,1.00000000055094,0.543443989060715
24799.9999999196,170.220704220532,1.0000000004716,0.525364392805916
24899.9999999181,169.58399191108,1.00000000039462,0.510539281268754
24999.9999999167,168.961373400822,1.0000000003548,0.495416040370045
25099.9999999152,168.353976514103,1.00000000037859,0.488264806311519
25199.9999999138,167.759050896806,1.00000000043509,0.492371170586671
25299.9999999123,167.173149843638,1.00000000049098,0.502442331336589
25399.9999999109,166.592719627378,1.00000000055232,0.513481116777146
25499.9999999094,166.016222060169,1.00000000054281,0.517462958055997
25599.999999908,165.442914687602,1.00000000052282,0.516106249372443
25699.9999999065,164.873488434238,1.00000000049685,0.519159848643622
25799.9999999051,164.307919112951,1.00000000049871,0.532046602873822
25899.9999999036,163.745608521281,1.00000000052699,0.53966070912928
25999.9999999021,163.185926939219,1.00000000053573,0.539615709224523
26099.9999999007,162.628326275173,1.00000000053858,0.541280620673855
26199.9999998992,162.07283717666,1.00000000052918,0.543823182440597
26299.9999998978,161.521224229625,1.00000000052344,0.537943801725247
26399.9999998963,160.97638509564,1.00000000048261,0.522504747443197
26499.9999998949,160.442110595423,1.00000000042681,0.507089308176522
26599.9999998934,159.921937470264,1.00000000039066,0.499993505084182
26699.999999892,159.416164824621,1.00000000039809,0.49653551741934
26799.9999998905,158.924422087008,1.00000000041758,0.491179571259587
26899.999999889,158.443837799853,1.00000000044594,0.494006425142202
26999.9999998876,157.971387458608,1.00000000050899,0.498567191210262
27099.9999998861,157.50414938346,1.00000000052553,0.506243004281439
27199.9999998847,157.040015544101,1.0000000005424,0.512476632203494
27299.9999998832,156.577879926614,1.00000000053057,0.515112374804149
27399.9999998818,156.116737583208,1.00000000053248,0.517451452648751
27499.9999998803,155.656436461982,1.00000000052139,0.52527960009096
27599.9999998789,155.196574778611,1.00000000053398,0.534363680250302
27699.9999998774,154.736577695083,1.00000000053079,0.541389302773888
27799.9999998759,154.277211182303,1.00000000051855,0.538527981497851
27899.9999998745,153.819177028146,1.0000000005322,0.535710228915824
27999.999999873,153.363647786474,1.00000000050104,0.531891484960175
28099.9999998716,152.912157248957,1.00000000050536,0.529235741340045
28199.9999998701,152.465825961041,1.0000000004898,0.525988840755897
28299.9999998687,152.026731712261,1.00000000046533,0.51633725625221
28399.9999998672,151.597732354505,1.00000000046001,0.508421827243301
28499.9999998658,151.180279689464,1.00000000041845,0.504815493003422
28599.9999998643,150.775496914394,1.00000000042024,0.502228386292534
28699.9999998629,150.383043004903,1.00000000041685,0.500223535398934
28799.9999998614,150.002141120564,1.00000000043332,0.494788311609684
28899.9999998599,149.631138870097,1.000000000451,0.496704068010643
