Time,AGPnorm,Energy,Entropy
0,0,1,-7.42737316527384e-17
99.9999999999986,0.000402887261688786,0.999999999998947,0.00154184236417755
199.999999999993,0.00273242030507483,0.999999999997999,0.00461922471825324
300,0.00562665768032423,0.999999999998834,0.00862245644805121
400.000000000022,0.00863097671964733,1.00000000000002,0.0136629119116448
500.000000000045,0.0123456122988212,0.999999999999432,0.0198468196770169
600.000000000068,0.0173531157030877,0.999999999998181,0.0268734406977244
700.000000000091,0.0227690627759882,0.999999999998326,0.0345118661114243
800.000000000113,0.0288715752498402,0.999999999999764,0.0428155374089643
900.000000000136,0.0350261304522876,0.999999999999831,0.0519998903808331
1000.00000000016,0.0422401061094922,0.99999999999861,0.0619611945232085
1100.0000000001,0.0499285674939368,0.999999999997998,0.0726167174550046
1200,0.0577669195217318,0.999999999999304,0.0839886114487269
1299.99999999991,0.0655859036155167,1.00000000000006,0.0964005768619424
1399.99999999982,0.074113517691771,0.99999999999911,0.109841822486671
1499.99999999973,0.0828848018687888,0.999999999998162,0.124447553747767
1599.99999999964,0.091513560113468,0.999999999999114,0.14029877542067
1699.99999999955,0.100375784503606,1.00000000000096,0.15795673057001
1799.99999999946,0.108760997349637,1.00000000000261,0.177758321053892
1899.99999999937,0.117378037254294,1.00000000000696,0.199949669881212
1999.99999999928,0.127492086706858,1.00000000001829,0.224450539677571
2099.99999999919,0.142305114688958,1.00000000004086,0.250997403236717
2199.99999999909,0.160901711545148,1.00000000007361,0.278679876029604
2299.999999999,0.191466085278856,1.00000000010485,0.306359502080619
2399.99999999891,0.25995299910469,1.00000000015738,0.332895878781689
2499.99999999882,0.397747233755834,1.00000000020561,0.357577158161733
2599.99999999873,0.625928601769574,1.00000000026957,0.380412810087674
2699.99999999864,0.983895660269404,1.00000000029555,0.401361813924051
2799.99999999855,1.53836265382981,1.00000000035774,0.420047199887325
2899.99999999846,2.35055540064872,1.00000000040816,0.43655449001163
2999.99999999837,3.45234155035496,1.00000000044624,0.451612529510816
3099.99999999828,4.88418113733001,1.00000000049521,0.465113784877141
3199.99999999819,6.70614602970944,1.00000000048388,0.477239055519412
3299.99999999809,8.96098083193515,1.00000000051372,0.48741775767095
3399.999999998,11.648363483235,1.00000000051518,0.496701289235301
3499.99999999791,14.7733629671285,1.00000000056911,0.50494954168797
3599.99999999782,18.3594023471892,1.00000000060398,0.512161425677639
3699.99999999773,22.4081684679133,1.00000000057544,0.518050365365088
3799.99999999764,26.8841222548082,1.00000000059363,0.523036551592777
3899.99999999755,31.7507951856715,1.00000000062322,0.527825911077418
3999.99999999746,36.9959784967636,1.00000000061953,0.53192404144533
4099.99999999738,42.6010640005797,1.00000000062516,0.534456879523616
4199.99999999775,48.5109078666398,1.00000000060017,0.536843479385103
4299.99999999811,54.6606121153819,1.00000000060886,0.539612809824994
4399.99999999848,61.0226175094271,1.00000000060705,0.540910511291962
4499.99999999884,67.5738971266835,1.00000000059674,0.541667892054248
4599.9999999992,74.2586241854378,1.00000000059048,0.542444726921502
4699.99999999957,81.0107869198526,1.00000000059275,0.54327897074691
4799.99999999993,87.7946644646245,1.00000000057801,0.542822859323115
4900.00000000029,94.5895170020796,1.00000000055912,0.543105625083541
5000.00000000066,101.358276973031,1.00000000056528,0.542225902809169
5100.00000000102,108.047085386582,1.00000000055484,0.541200100156515
5200.00000000139,114.617138059261,1.00000000053542,0.541799664234066
5300.00000000175,121.055056134302,1.00000000054057,0.540640477642085
5400.00000000211,127.343453623025,1.0000000005245,0.538922799256765
5500.00000000248,133.446285644364,1.00000000051946,0.538642937838868
5600.00000000284,139.33298225138,1.00000000050803,0.537701886859479
5700.00000000321,144.987824383087,1.00000000052435,0.535573562372413
5800.00000000357,150.410159055826,1.00000000049797,0.534000235361261
5900.00000000393,155.582561785471,1.00000000047993,0.533174034183004
6000.0000000043,160.482773978453,1.0000000004764,0.531478640699877
6100.00000000466,165.0974453691,1.00000000045644,0.529365734389049
6200.00000000502,169.43223383689,1.0000000004536,0.528063168619039
6300.00000000539,173.488118700083,1.00000000041693,0.527827327890144
6400.00000000575,177.25441066796,1.0000000004061,0.525673057745769
6500.00000000612,180.722007038106,1.00000000039253,0.522640125234502
6600.00000000648,183.893632799323,1.00000000040126,0.521835188566093
6700.00000000684,186.784892637643,1.0000000003947,0.52405078743574
6800.00000000721,189.400823478286,1.00000000039913,0.523684613197135
6900.00000000757,191.73743555056,1.0000000003655,0.517192459918297
7000.00000000793,193.787106084953,1.00000000036346,0.511444816132232
7100.0000000083,195.561498354576,1.00000000037055,0.515233636243086
7200.00000000866,197.091748711501,1.0000000003702,0.525246631832791
7300.00000000903,198.399439227264,1.00000000037534,0.526232296231478
7400.00000000939,199.477000745218,1.00000000033961,0.512688712206206
7500.00000000975,200.298970910665,1.00000000031732,0.497321877053051
7600.00000001012,200.866544059154,1.00000000031829,0.501588225059062
7700.00000001048,201.227181057884,1.00000000035236,0.523491511708375
7800.00000001084,201.44175465186,1.00000000037332,0.537944104867332
7900.00000001121,201.529942124144,1.00000000034778,0.52849257446934
8000.00000001157,201.452344332303,1.00000000029287,0.497401756643173
8100.00000001194,201.156294961665,1.00000000023549,0.472609248144898
8200.0000000123,200.646045554009,1.00000000025706,0.487882684545385
8300.00000001266,199.998592539018,1.00000000034554,0.525832229421971
8400.00000001303,199.30170839705,1.00000000043212,0.549445550187319
8500.00000001339,198.589307652915,1.00000000040104,0.543894753886634
8600.00000001376,197.82097821181,1.0000000003276,0.506618591627616
8700.00000001412,196.914727027756,1.00000000021604,0.455063128249462
8800.00000001448,195.825074936246,1.00000000018781,0.439998790061354
8900.00000001485,194.596846321307,1.00000000026473,0.481511722690406
9000.00000001521,193.326197910446,1.00000000041263,0.529784998557395
9100.00000001557,192.089493018265,1.00000000049174,0.55501004658138
9200.00000001594,190.908899393611,1.00000000048666,0.553339615809348
9300.0000000163,189.746753135729,1.00000000040746,0.517095569414568
9400.00000001667,188.527337894455,1.00000000024916,0.45136764506036
9500.00000001703,187.188645226045,1.00000000014755,0.39726098914871
9600.00000001739,185.731439049593,1.00000000017016,0.410317549567453
9700.00000001776,184.213603188866,1.00000000029509,0.475249620105692
9800.00000001812,182.705808509163,1.00000000042461,0.528586439239414
9900.00000001848,181.258505203585,1.00000000049678,0.551793447693652
10000.0000000188,179.888378370038,1.00000000050065,0.554747690582685
10100.0000000192,178.576696999561,1.0000000004574,0.532981426406019
10200.0000000196,177.273768538468,1.00000000034719,0.475811241006494
10300.0000000199,175.922618379588,1.00000000021067,0.399916625830846
10400.0000000203,174.495023521324,1.00000000013251,0.353083113046473
10500.0000000207,173.006394902016,1.00000000016191,0.374534406118568
10600.000000021,171.495643549345,1.00000000028796,0.443601542968401
10700.0000000214,170.000847852845,1.00000000040858,0.505215521388024
10800.0000000218,168.550322662933,1.00000000050242,0.535589727390277
10900.0000000221,167.1597834961,1.00000000052107,0.545677674683127
11000.0000000225,165.830290772348,1.00000000049564,0.543687660955595
11100.0000000229,164.546466599954,1.00000000044477,0.524734275836225
11200.0000000232,163.280282435973,1.00000000035855,0.479202068440663
11300.0000000236,162.002159887981,1.00000000026448,0.413534354110645
11400.0000000239,160.695221571395,1.00000000017395,0.355650752559468
11500.0000000243,159.363132045221,1.00000000014866,0.339493647833801
11600.0000000247,158.022626804207,1.0000000001983,0.370876041434315
11700.000000025,156.690718446625,1.00000000029588,0.431897688809149
11800.0000000254,155.377463945707,1.00000000040633,0.486424634521151
11900.0000000258,154.088201641734,1.00000000046684,0.515065589655326
12000.0000000261,152.828397471054,1.00000000048373,0.523931614891587
12100.0000000265,151.603075079821,1.00000000049502,0.530687960151002
12200.0000000269,150.41284262385,1.00000000047618,0.534539785434031
12300.0000000272,149.251273171609,1.00000000044151,0.523018873519051
12400.0000000276,148.106807543921,1.00000000035133,0.489765446137128
12500.0000000279,146.968414061909,1.00000000026506,0.442520998195255
12600.0000000283,145.831750906447,1.00000000022174,0.396122400125694
12700.0000000287,144.701340111199,1.00000000022069,0.364769864977764
12800.000000029,143.58656464017,1.00000000020293,0.359063553149777
12900.0000000294,142.494860233544,1.00000000022346,0.380715516944373
13000.0000000298,141.427319745444,1.00000000026662,0.414558881834409
13100.0000000301,140.379754421975,1.0000000003273,0.457010296267947
13200.0000000305,139.346453513379,1.00000000036935,0.493675469682962
13300.0000000309,138.324126398929,1.00000000039653,0.507961903871909
13400.0000000312,137.312021515891,1.00000000039099,0.502732918923416
13500.0000000316,136.309945299107,1.00000000043191,0.501494186118431
13600.0000000319,135.318239649043,1.00000000045294,0.513997578864
13700.0000000323,134.33821464022,1.00000000049055,0.532200345068824
13800.0000000327,133.371680340782,1.00000000044843,0.536067805491728
13900.000000033,132.41930467838,1.00000000040032,0.514924176305205
14000.0000000334,131.481297171899,1.00000000030433,0.473183477322916
14100.0000000338,130.56084146776,1.00000000023231,0.426855558189247
14200.0000000341,129.665101509003,1.00000000019566,0.391192462413062
14300.0000000345,128.800939125504,1.00000000022059,0.373774195802139
14400.0000000349,127.970740170436,1.00000000025688,0.374185664828847
14500.0000000352,127.173316730477,1.00000000028678,0.392826863936655
14600.0000000356,126.405062179906,1.00000000030646,0.42249696334379
14700.0000000359,125.658878201978,1.00000000033878,0.445981605479362
14800.0000000363,124.92511078882,1.00000000037062,0.466928083866804
14900.0000000367,124.196331355382,1.00000000038433,0.487716422158587
15000.000000037,123.470931649025,1.00000000035451,0.501685727740544
15100.0000000374,122.752603921313,1.00000000030787,0.499215543890211
15200.0000000378,122.044994767027,1.00000000028271,0.48486155443258
15300.0000000381,121.346325646761,1.00000000032852,0.476022032817141
15400.0000000385,120.648078511009,1.00000000039724,0.484303959778483
15500.0000000389,119.941601418861,1.00000000045375,0.503394814138496
15600.0000000392,119.224735381263,1.00000000049576,0.524322936235968
15700.0000000396,118.501892724526,1.00000000049002,0.537720393723185
15800.0000000399,117.779819893692,1.00000000044468,0.53355140557827
15900.0000000403,117.065390017311,1.00000000036134,0.511733575048128
16000.0000000407,116.365734047955,1.00000000030101,0.47630220649207
16100.000000041,115.690349787815,1.00000000023047,0.437932133211081
16200.0000000414,115.051198650689,1.00000000018854,0.403947741511583
16300.0000000418,114.456964081195,1.00000000019295,0.380842856344234
16400.0000000418,113.909128284425,1.00000000023147,0.373434915874714
16500.0000000404,113.400404190576,1.00000000027098,0.383741070658211
16600.0000000389,112.920790271933,1.00000000030975,0.404312596261375
16700.0000000375,112.460972067242,1.00000000032877,0.427104987920431
16800.000000036,112.014640752396,1.00000000034539,0.448940568831277
16900.0000000346,111.574604158351,1.00000000036669,0.466714876482608
17000.0000000331,111.135850771366,1.00000000036788,0.478447025425913
17100.0000000317,110.693450176497,1.00000000039063,0.489131148005149
17200.0000000302,110.245577323519,1.00000000037806,0.498908983205374
17300.0000000287,109.79305329515,1.0000000003708,0.505854993601852
17400.0000000273,109.34070256771,1.00000000032458,0.508656530394019
17500.0000000258,108.894899262404,1.00000000029884,0.505241720042206
17600.0000000244,108.459315194818,1.00000000028597,0.497351586008308
17700.0000000229,108.031950101998,1.00000000030894,0.48995685365276
17800.0000000215,107.604460052014,1.00000000034225,0.485313434499057
17900.00000002,107.168516090892,1.00000000040559,0.484824992455022
18000.0000000186,106.717763140523,1.00000000043773,0.492617291900622
18100.0000000171,106.249836807293,1.00000000046023,0.505007783955778
18200.0000000156,105.765553322936,1.00000000047153,0.519909873819393
18300.0000000142,105.268712167367,1.00000000044975,0.53384273003073
18400.0000000127,104.765621048348,1.00000000042054,0.538403175457565
18500.0000000113,104.264529740265,1.00000000037408,0.528536354712282
18600.0000000098,103.774586624787,1.00000000033566,0.504833206805653
18700.0000000084,103.305738008812,1.00000000025936,0.473053807453572
18800.0000000069,102.868195115527,1.00000000022538,0.442050025422974
18900.0000000055,102.470112375809,1.00000000021721,0.42162217949071
19000.000000004,102.116739104823,1.00000000022735,0.408912258279989
19100.0000000026,101.809593616451,1.00000000022259,0.399871656873052
19200.0000000011,101.546854646975,1.00000000024397,0.396594071378902
19299.9999999996,101.322299095379,1.00000000027408,0.398621506125317
19399.9999999982,101.124117646157,1.00000000032512,0.413698331187265
19499.9999999967,100.938243617176,1.00000000036794,0.436348746856787
19599.9999999953,100.753924120123,1.00000000038245,0.457200460932835
19699.9999999938,100.567571460725,1.00000000036257,0.471360164956228
19799.9999999924,100.382773417745,1.00000000034072,0.478227230428582
19899.9999999909,100.205714757536,1.00000000030846,0.479621528591618
19999.9999999895,100.040197251587,1.00000000028161,0.479157994861127
20099.999999988,99.8842275014554,1.000000000301,0.481863309671799
20199.9999999865,99.7296997967873,1.00000000034474,0.491528118968915
20299.9999999851,99.5655283579773,1.00000000039484,0.504669175637171
20399.9999999836,99.3814258435145,1.00000000040006,0.516757776299187
20499.9999999822,99.1724041752673,1.0000000004132,0.525438068525296
20599.9999999807,98.9392012908843,1.000000000405,0.530718711695757
20699.9999999793,98.6877000813974,1.00000000038808,0.534329894764297
20799.9999999778,98.4267028535954,1.0000000003392,0.534093533850993
20899.9999999764,98.1647120992234,1.00000000031444,0.526468476803613
20999.9999999749,97.9068270333938,1.00000000028986,0.515478637624493
21099.9999999734,97.6550356219766,1.00000000027736,0.506129639306444
21199.999999972,97.4094171941191,1.00000000027436,0.499801735813236
21299.9999999705,97.1676231212405,1.00000000030957,0.493728995917557
21399.9999999691,96.9254416632285,1.00000000032506,0.489178639053514
21499.9999999676,96.6770748660589,1.00000000035404,0.490990563455393
21599.9999999662,96.4165686794808,1.00000000041624,0.49935936161496
21699.9999999647,96.1387784534939,1.00000000044598,0.510614823672619
21799.9999999633,95.8410312678677,1.00000000045429,0.522403676922566
21899.9999999618,95.5245117662828,1.0000000004397,0.533937631687585
21999.9999999603,95.1940687907912,1.00000000046584,0.542083684494098
22099.9999999589,94.8566880009481,1.00000000042063,0.542977027714624
22199.9999999574,94.5200103218702,1.00000000035734,0.535391797033817
22299.999999956,94.1921178154997,1.00000000031536,0.518216981504134
22399.9999999545,93.881624295685,1.00000000028863,0.493743296068489
22499.9999999531,93.5972117547846,1.00000000024215,0.471124468209612
22599.9999999516,93.3470033978367,1.00000000022139,0.450016624110065
22699.9999999502,93.1377814425557,1.0000000002155,0.43281974504838
22799.9999999487,92.973480707503,1.00000000021115,0.421698670585425
22899.9999999473,92.8536943712264,1.00000000024127,0.413905419213944
22999.9999999458,92.7747865038356,1.00000000026893,0.408392997843676
23099.9999999443,92.7293512739744,1.00000000027144,0.408910961006721
23199.9999999429,92.7089878571161,1.00000000030321,0.41430773574596
23299.9999999414,92.7064988216063,1.00000000034209,0.421031791597464
23399.99999994,92.7159421222668,1.00000000033693,0.428183075106812
23499.9999999385,92.7332722543971,1.00000000033543,0.435978494797513
23599.9999999371,92.7542463125595,1.00000000034232,0.448300918336356
23699.9999999356,92.7749141983941,1.00000000034673,0.462801089781413
23799.9999999342,92.7924056380144,1.00000000035523,0.474034992664948
23899.9999999327,92.8054968113055,1.0000000003504,0.482699397973125
23999.9999999312,92.8133482217601,1.00000000035312,0.491857008536524
24099.9999999298,92.8160309567426,1.00000000035635,0.504680480252202
24199.9999999283,92.8144488055861,1.00000000033738,0.51548869107966
24299.9999999269,92.8105003077572,1.00000000033084,0.521359565638124
24399.9999999254,92.8071044685486,1.00000000031857,0.522911622497083
24499.999999924,92.8056240072481,1.00000000029997,0.524120381599995
24599.9999999225,92.8043587107528,1.00000000031751,0.524572466985398
24699.9999999211,92.7989928354599,1.00000000034224,0.526866071356749
24799.9999999196,92.7840520811162,1.00000000036698,0.529799525850486
24899.9999999181,92.7546996955843,1.00000000036971,0.530391707553244
24999.9999999167,92.7081983273672,1.00000000037024,0.530212070628959
25099.9999999152,92.6439693563893,1.00000000037203,0.527544038896066
25199.9999999138,92.5622680993368,1.00000000035959,0.523553869090203
25299.9999999123,92.462447207476,1.00000000035202,0.519113155151979
25399.9999999109,92.3442310311756,1.00000000036585,0.51702899192434
25499.9999999094,92.2085221114114,1.00000000037585,0.523843730760724
25599.999999908,92.0584114951084,1.000000000378,0.533215190822994
25699.9999999065,91.8987320390263,1.00000000036046,0.536362195535722
25799.9999999051,91.7348953958588,1.00000000033733,0.534190727391856
25899.9999999036,91.5714081602495,1.00000000032804,0.530886148411843
25999.9999999021,91.4110393567991,1.00000000032347,0.528437635156312
26099.9999999007,91.2549252158543,1.00000000031151,0.527556511123649
26199.9999998992,91.1035391605097,1.00000000029548,0.527917462546442
26299.9999998978,90.9567101824799,1.00000000028684,0.529966913614431
26399.9999998963,90.8129943003262,1.00000000030015,0.531572298432085
26499.9999998949,90.6698744754803,1.00000000031197,0.531598469286867
26599.9999998934,90.5249423042147,1.00000000032026,0.530749181602322
26699.999999892,90.3763677062274,1.00000000032814,0.53028762626111
26799.9999998905,90.2224948558254,1.00000000035805,0.529402761167692
26899.999999889,90.0614686012278,1.00000000036997,0.527223345608749
26999.9999998876,89.8907474478544,1.00000000037648,0.523773451658917
27099.9999998861,89.7079924297288,1.0000000004086,0.521971430407057
27199.9999998847,89.5118724867524,1.00000000045768,0.523912359213658
27299.9999998832,89.3017357761791,1.00000000046271,0.529035119696817
27399.9999998818,89.0783034469641,1.00000000044438,0.534547163316576
27499.9999998803,88.8442487434143,1.00000000042944,0.539314886235463
27599.9999998789,88.6037972284193,1.0000000004052,0.542270164550444
27699.9999998774,88.3620831121677,1.00000000037421,0.541722857678274
27799.9999998759,88.1245904351701,1.00000000033855,0.535356116042586
27899.9999998745,87.8970766649303,1.00000000029782,0.522096942184998
27999.999999873,87.6854423805082,1.00000000028857,0.50660473462362
28099.9999998716,87.4957385570148,1.00000000025653,0.490891222222714
28199.9999998701,87.3337492901578,1.00000000022622,0.475557656835733
28299.9999998687,87.2046673715076,1.00000000022164,0.462931339356408
28399.9999998672,87.111868240129,1.00000000021578,0.450517245645038
28499.9999998658,87.0572765555721,1.00000000022788,0.438742393161051
28599.9999998643,87.0409830109675,1.00000000024413,0.430336507060673
28699.9999998629,87.060375480144,1.000000000254,0.428198194130509
28799.9999998614,87.1111378464138,1.00000000027298,0.430168130815637
28899.9999998599,87.187714248369,1.00000000030484,0.434485133072386
