Time,AGPnorm,Energy,Entropy
0,0,1,-1.36946483038087e-17
99.9999999999986,4.56158860444335e-05,0.999999999999107,0.00182751967369766
199.999999999993,0.00410083743643797,1.00000000000073,0.00290174068341971
300,0.0104644635668304,0.999999999999254,0.00505103086804638
400.000000000022,0.0142986145540739,0.999999999999919,0.00862231521104444
500.000000000045,0.0169326572511877,1.00000000000022,0.0115297789504717
600.000000000068,0.0243906226922516,0.999999999999135,0.0159480609979519
700.000000000091,0.0304787706399831,1.0000000000005,0.0203926091396422
800.000000000113,0.0387493418112536,0.9999999999996,0.0250254898634177
900.000000000136,0.047975438818718,0.999999999999587,0.0307542948670941
1000.00000000016,0.0555829030513396,1.00000000000028,0.0360915858413204
1100.0000000001,0.0663733211827324,0.99999999999939,0.0422791478956639
1200,0.0771795607034723,1.00000000000022,0.0489190565756203
1299.99999999991,0.0876313152950276,0.999999999999805,0.0555528741840686
1399.99999999982,0.0996700605130312,0.999999999999452,0.063105844662714
1499.99999999973,0.111815862382604,1.00000000000022,0.0706549428404158
1599.99999999964,0.124969570515883,0.999999999999667,0.0788487803681993
1699.99999999955,0.137973000308612,0.999999999999882,0.0877886982522976
1799.99999999946,0.149856357604833,0.999999999999945,0.096803539977285
1899.99999999937,0.163312140315167,0.999999999999644,0.106862729768202
1999.99999999928,0.177725316778471,1.00000000000009,0.117512125833484
2099.99999999919,0.191434084046636,0.999999999999816,0.12897997819322
2199.99999999909,0.204884974072789,0.999999999999816,0.141867737780643
2299.999999999,0.217784460725907,1.00000000000137,0.155622289870839
2399.99999999891,0.231887516642691,1.0000000000048,0.171499009873507
2499.99999999882,0.245148839862161,1.0000000000151,0.189441667147021
2599.99999999873,0.259183011891989,1.00000000003855,0.208850673476051
2699.99999999864,0.272466552592823,1.00000000007522,0.229961702000711
2799.99999999855,0.284338185545982,1.00000000013835,0.251091360635026
2899.99999999846,0.312107173336631,1.00000000021207,0.272491063116484
2999.99999999837,0.332523173435076,1.0000000002991,0.293664223110929
3099.99999999828,0.379994665132862,1.00000000038842,0.313667711023221
3199.99999999819,0.459532598193365,1.00000000046776,0.333653570832746
3299.99999999809,0.558970019372937,1.00000000056422,0.352864038888861
3399.999999998,0.745637856128225,1.00000000067321,0.371087458448423
3499.99999999791,0.984649748422155,1.00000000074919,0.388807319750463
3599.99999999782,1.32215151646898,1.00000000081972,0.40518969012355
3699.99999999773,1.79749505038744,1.00000000090635,0.420871274932114
3799.99999999764,2.37565825163679,1.00000000095833,0.436038161638549
3899.99999999755,3.13745748968576,1.00000000103285,0.449735430944352
3999.99999999746,4.06518397811177,1.00000000107558,0.46289283612459
4099.99999999738,5.16662399953349,1.00000000119775,0.475079676402059
4199.99999999775,6.49640262144564,1.00000000124507,0.486357896429538
4299.99999999811,8.01397532090139,1.00000000123324,0.497162814698127
4399.99999999848,9.7589486460231,1.00000000128957,0.50672823749156
4499.99999999884,11.734919711349,1.00000000129004,0.515728573429863
4599.9999999992,13.9144739594695,1.00000000128894,0.524371378611998
4699.99999999957,16.3304712536844,1.00000000135054,0.53199422221101
4799.99999999993,18.9583842317623,1.00000000138466,0.538927830540779
4900.00000000029,21.7890807441562,1.00000000135455,0.545747438314911
5000.00000000066,24.830075517092,1.00000000139771,0.551419675018109
5100.00000000102,28.0510297376644,1.00000000140879,0.556969763786845
5200.00000000139,31.4471215539641,1.00000000145108,0.561903916167939
5300.00000000175,35.0121559781159,1.00000000138827,0.566438561710268
5400.00000000211,38.7151636796403,1.00000000140913,0.570930969532962
5500.00000000248,42.5502216476807,1.00000000141489,0.574649091663279
5600.00000000284,46.5042007070322,1.00000000140797,0.577791176671838
5700.00000000321,50.5457663302882,1.00000000139809,0.580958252665727
5800.00000000357,54.6746264101472,1.00000000135651,0.583589392334408
5900.00000000393,58.8642192116841,1.00000000135741,0.586200264024295
6000.0000000043,63.092787701501,1.00000000135354,0.58855153017
6100.00000000466,67.3636934198766,1.00000000133909,0.590226529996299
6200.00000000502,71.639436366529,1.00000000132666,0.592152920766788
6300.00000000539,75.9161759471748,1.00000000131189,0.593445682383037
6400.00000000575,80.1822205812827,1.00000000127395,0.594522956326468
6500.00000000612,84.406973506728,1.00000000127355,0.595777737860862
6600.00000000648,88.6013579563253,1.00000000127866,0.596262483862689
6700.00000000684,92.7355169583603,1.00000000122527,0.597277546911598
6800.00000000721,96.8004161915079,1.00000000120833,0.597744088430512
6900.00000000757,100.797194219942,1.00000000116789,0.598181432052481
7000.00000000793,104.695360604091,1.00000000120783,0.598746504527403
7100.0000000083,108.507330162045,1.0000000011405,0.598903030910653
7200.00000000866,112.215804972597,1.00000000115975,0.598828261732922
7300.00000000903,115.8073385648,1.00000000115869,0.599260102828938
7400.00000000939,119.290702114615,1.00000000113904,0.598524894559827
7500.00000000975,122.642724650986,1.00000000106196,0.59859552891591
7600.00000001012,125.873285230581,1.00000000108856,0.598877850509118
7700.00000001048,128.974989263099,1.00000000108413,0.59787579940276
7800.00000001084,131.93458122111,1.00000000106433,0.598518678601815
7900.00000001121,134.766280848589,1.00000000102707,0.596591903039171
8000.00000001157,137.452463943276,1.00000000104589,0.598335814276386
8100.00000001194,140.000956277053,1.00000000100064,0.596039473769196
8200.0000000123,142.41293409256,1.00000000101882,0.597133005186993
8300.00000001266,144.675476342846,1.00000000099184,0.595473301462533
8400.00000001303,146.804911047172,1.00000000098003,0.596122232484549
8500.00000001339,148.788374830317,1.00000000093885,0.594308033095054
8600.00000001376,150.633420066593,1.00000000094372,0.595417848005261
8700.00000001412,152.343639427626,1.00000000090936,0.593128328487967
8800.00000001448,153.909838294194,1.00000000090787,0.594643458528362
8900.00000001485,155.34791101016,1.00000000088042,0.592494416038276
9000.00000001521,156.649493955624,1.0000000008761,0.593034276165918
9100.00000001557,157.821248907207,1.00000000087539,0.59209642477851
9200.00000001594,158.869032162511,1.0000000008502,0.592178465496723
9300.0000000163,159.787291016912,1.00000000080673,0.590965056229526
9400.00000001667,160.588597411046,1.00000000083518,0.592287084827048
9500.00000001703,161.273024540738,1.00000000079916,0.590187594209285
9600.00000001739,161.839247299648,1.00000000078858,0.589968040906927
9700.00000001776,162.301741678746,1.00000000082689,0.592543932499128
9800.00000001812,162.654792689447,1.0000000007533,0.587689678170708
9900.00000001848,162.907026328316,1.00000000079319,0.590395085808196
10000.0000000188,163.066936235055,1.00000000079085,0.592199043905639
10100.0000000192,163.133719939087,1.00000000074544,0.585695922486908
10200.0000000196,163.111804485311,1.00000000076026,0.589242508302478
10300.0000000199,163.010914514887,1.00000000080393,0.590757169757893
10400.0000000203,162.836126436455,1.00000000072821,0.581328895827037
10500.0000000207,162.582718986124,1.0000000007666,0.585950841575096
10600.000000021,162.267562186241,1.00000000077984,0.588937905638675
10700.0000000214,161.895870928174,1.00000000072035,0.578992822711368
10800.0000000218,161.45680804274,1.00000000074287,0.578891132711982
10900.0000000221,160.971416906335,1.00000000079536,0.58683799100428
11000.0000000225,160.444942286676,1.00000000076888,0.579531864724908
11100.0000000229,159.866947748627,1.000000000732,0.570411290650869
11200.0000000232,159.246147591642,1.00000000081155,0.581842820885274
11300.0000000236,158.594760556171,1.00000000083781,0.581726521795426
11400.0000000239,157.913566234055,1.00000000073792,0.571792066998934
11500.0000000243,157.190065397755,1.0000000007243,0.566016018276801
11600.0000000247,156.439972508189,1.00000000082179,0.582143584700962
11700.000000025,155.678244709514,1.00000000082161,0.577032019741845
11800.0000000254,154.890288655029,1.00000000070803,0.560102392337371
11900.0000000258,154.072636609836,1.00000000075653,0.564560305253908
12000.0000000261,153.24386272329,1.00000000090157,0.58187962963692
12100.0000000265,152.409549635272,1.00000000078717,0.570948599495742
12200.0000000269,151.55907332147,1.00000000071615,0.553787180540021
12300.0000000272,150.683266561143,1.00000000074861,0.559364631990832
12400.0000000276,149.80527080832,1.00000000091487,0.580780803913847
12500.0000000279,148.929423376954,1.00000000081593,0.564044712895153
12600.0000000283,148.044213421042,1.00000000070606,0.554412633211261
12700.0000000287,147.1442316088,1.0000000007473,0.548399573168847
12800.000000029,146.239931068329,1.00000000091515,0.576150352990802
12900.0000000294,145.342325539705,1.00000000087858,0.562921764052841
13000.0000000298,144.446101504489,1.00000000080021,0.552202019386303
13100.0000000301,143.54089005447,1.00000000076275,0.548295780769329
13200.0000000305,142.632199655012,1.00000000084007,0.555576641609201
13300.0000000309,141.72766234469,1.00000000089351,0.569759739292723
13400.0000000312,140.830560600944,1.0000000008593,0.551838082119014
13500.0000000316,139.936034865404,1.00000000078374,0.544504616043646
13600.0000000319,139.038303739066,1.00000000077961,0.551022868610649
13700.0000000323,138.143440835762,1.00000000084457,0.554167066088381
13800.0000000327,137.253894123105,1.00000000087468,0.561452882038156
13900.000000033,136.372161786411,1.00000000089173,0.548340818263353
14000.0000000334,135.496157570692,1.00000000079263,0.537760862148146
14100.0000000338,134.621369558501,1.0000000008314,0.550581377986097
14200.0000000341,133.752100862949,1.0000000008439,0.554078133686179
14300.0000000345,132.888369067025,1.00000000081631,0.549618124091216
14400.0000000349,132.031712861104,1.00000000084104,0.550726164592432
14500.0000000352,131.182958692669,1.00000000082923,0.537283427094254
14600.0000000356,130.339263524523,1.00000000075378,0.537935377216122
14700.0000000359,129.501898450923,1.00000000085356,0.555397865869065
14800.0000000363,128.67127158958,1.0000000008647,0.551294559234205
14900.0000000367,127.847553717923,1.00000000081812,0.542496215588931
15000.000000037,127.031148012969,1.00000000081638,0.541638687288534
15100.0000000374,126.221336807558,1.00000000084449,0.537399513587729
15200.0000000378,125.419584866897,1.00000000079304,0.536470217143094
15300.0000000381,124.624968421293,1.00000000082787,0.55374506414331
15400.0000000385,123.838216429636,1.00000000080939,0.553272789274116
15500.0000000389,123.059353633066,1.00000000079135,0.539948629507231
15600.0000000392,122.287001476217,1.00000000077337,0.535336530909613
15700.0000000396,121.522334303941,1.00000000081943,0.539861232547562
15800.0000000399,120.765531245452,1.00000000081065,0.537296776629434
15900.0000000403,120.016793053962,1.00000000083894,0.543424094783652
16000.0000000407,119.276942595318,1.00000000085429,0.553615128281138
16100.000000041,118.544712242882,1.00000000081798,0.549259346261614
16200.0000000414,117.820505254037,1.00000000082693,0.539391017406851
16300.0000000418,117.104069129815,1.00000000079585,0.53223983869891
16400.0000000418,116.395427556486,1.00000000078214,0.537688432916798
16500.0000000404,115.695160278487,1.00000000081707,0.547327091296236
16600.0000000389,115.002867516181,1.00000000082227,0.543616862864912
16700.0000000375,114.319396755195,1.00000000082032,0.547621318880684
16800.000000036,113.644368214433,1.0000000007815,0.552678546204186
16900.0000000346,112.977631967132,1.00000000076473,0.544319141739649
17000.0000000331,112.319519350041,1.00000000076789,0.533793920845543
17100.0000000317,111.669827387577,1.0000000007324,0.531540432558622
17200.0000000302,111.028509430643,1.0000000008125,0.542823617768805
17300.0000000287,110.395062152033,1.00000000083331,0.551003723600547
17400.0000000273,109.769492725046,1.00000000078578,0.545475812947486
17500.0000000258,109.152103170844,1.00000000084978,0.547126666405338
17600.0000000244,108.542767017291,1.00000000079874,0.550396477362425
17700.0000000229,107.942791564989,1.00000000075114,0.543424223495376
17800.0000000215,107.35222455532,1.00000000072125,0.531594305017726
17900.00000002,106.770392214243,1.00000000079075,0.532431886252128
18000.0000000186,106.196508397615,1.000000000842,0.536643242940987
18100.0000000171,105.630361873142,1.00000000080992,0.541314744332243
18200.0000000156,105.071303815718,1.00000000083429,0.552734039850129
18300.0000000142,104.519246475018,1.00000000082944,0.552419958629004
18400.0000000127,103.973944544984,1.00000000084456,0.547596025095351
18500.0000000113,103.436297672293,1.00000000083562,0.547233432150242
18600.0000000098,102.908089944618,1.00000000073414,0.538421999461369
18700.0000000084,102.390693415159,1.00000000071333,0.530252887855981
18800.0000000069,101.882278936281,1.00000000080412,0.530558197240817
18900.0000000055,101.380788241531,1.00000000084323,0.535632655732116
19000.000000004,100.886562423258,1.00000000075841,0.530051567364095
19100.0000000026,100.399329628047,1.00000000082901,0.540519755402642
19200.0000000011,99.9166572741529,1.00000000084003,0.558113308901745
19299.9999999996,99.4388547096176,1.000000000839,0.556816326213948
19399.9999999982,98.9669857917647,1.00000000088073,0.548260708083414
19499.9999999967,98.5018473423941,1.00000000083932,0.544457057757131
19599.9999999953,98.0463614910587,1.00000000074826,0.535226966718687
19699.9999999938,97.6020088237097,1.00000000073586,0.533537916552979
19799.9999999924,97.1665607942094,1.00000000078562,0.530708280445183
19899.9999999909,96.7383617353683,1.00000000084158,0.528719791397158
19999.9999999895,96.316179642982,1.00000000080394,0.529109625344944
20099.999999988,95.9006279566794,1.00000000080574,0.531343804893052
20199.9999999865,95.4893173629603,1.00000000084553,0.540961358449714
20299.9999999851,95.0801750095382,1.00000000088996,0.555656419398929
20399.9999999836,94.6736101403244,1.00000000086408,0.559383681420532
20499.9999999822,94.2716479293759,1.00000000086198,0.546742684918808
20599.9999999807,93.876110499574,1.00000000079173,0.539722967334883
20699.9999999793,93.4895316053538,1.00000000075121,0.534962684383247
20799.9999999778,93.1123032611052,1.00000000076583,0.536837879658734
20899.9999999764,92.7442350229965,1.00000000076103,0.534927516824844
20999.9999999749,92.3842210866507,1.00000000081727,0.529494088551272
21099.9999999734,92.031434418723,1.00000000079803,0.526182557577672
21199.999999972,91.6847796732278,1.00000000083661,0.528563855679203
21299.9999999705,91.3422259431219,1.00000000082496,0.530572720374221
21399.9999999691,91.0020140004289,1.00000000087964,0.53992991310204
21499.9999999676,90.6616317680994,1.00000000087848,0.547771649909319
21599.9999999662,90.3219865612393,1.00000000084153,0.556996284468023
21699.9999999647,89.9848690144794,1.00000000085718,0.556068283207181
21799.9999999633,89.6527818929377,1.00000000082815,0.543898764221616
21899.9999999618,89.3272417122992,1.00000000078615,0.54098609342736
21999.9999999603,89.009445775952,1.00000000078318,0.542311997623889
22099.9999999589,88.7003073528023,1.00000000076901,0.542468985247962
22199.9999999574,88.3996360690898,1.00000000077706,0.539805631361326
22299.999999956,88.1066980337776,1.00000000077592,0.535140108050869
22399.9999999545,87.8212473952667,1.00000000078548,0.530547028076734
22499.9999999531,87.5422868942119,1.00000000081674,0.531256568267033
22599.9999999516,87.2681072048687,1.00000000083849,0.534343555911785
22699.9999999502,86.9960113239901,1.00000000084381,0.542917580300168
22799.9999999487,86.7240709686433,1.00000000085921,0.543307827887063
22899.9999999473,86.4509604431308,1.00000000090443,0.549260104195791
22999.9999999458,86.1765629465477,1.00000000087596,0.558756050947262
23099.9999999443,85.9037135837849,1.00000000084858,0.560553447779868
23199.9999999429,85.6348172302528,1.0000000007848,0.553265867588927
23299.9999999414,85.3715073068713,1.00000000075315,0.548879116030606
23399.99999994,85.1151629231025,1.00000000080704,0.547872570826424
23499.9999999385,84.8661810062545,1.00000000078081,0.550969937190198
23599.9999999371,84.624256716144,1.00000000079542,0.550333444689768
23699.9999999356,84.3911183137609,1.00000000073598,0.543766791440015
23799.9999999342,84.1658384456428,1.00000000079169,0.542213840718018
23899.9999999327,83.9467734748313,1.00000000079857,0.538129842299739
23999.9999999312,83.733196073886,1.00000000078893,0.537926423406914
24099.9999999298,83.5247846640552,1.00000000077887,0.540519380956632
24199.9999999283,83.3186221258141,1.00000000082574,0.548402234276434
24299.9999999269,83.1131450330092,1.00000000088548,0.551388386081829
24399.9999999254,82.9066080723177,1.00000000087852,0.550548100091113
24499.999999924,82.6964524863681,1.0000000009408,0.55750813794043
24599.9999999225,82.4837002408256,1.000000000867,0.558450826454859
24699.9999999211,82.2721546387279,1.00000000082697,0.562176581335354
24799.9999999196,82.0643563161177,1.0000000007755,0.557945750787547
24899.9999999181,81.8615324349115,1.00000000082009,0.555158893885932
24999.9999999167,81.6628477473796,1.00000000083305,0.556352288884707
25099.9999999152,81.4687613109224,1.000000000819,0.555400779520747
25199.9999999138,81.2809236626129,1.00000000078613,0.553147779434334
25299.9999999123,81.1006221745113,1.00000000077915,0.551063462734992
25399.9999999109,80.9282134454748,1.00000000078621,0.54666332274088
25499.9999999094,80.7629564200671,1.0000000007978,0.546320961879901
25599.999999908,80.6029969665275,1.00000000083915,0.544436294465106
25699.9999999065,80.4485602385619,1.00000000078713,0.540828874315486
25799.9999999051,80.2993229372628,1.00000000078946,0.543609180754465
25899.9999999036,80.1523570119423,1.00000000085251,0.552639868372226
25999.9999999021,80.0038032765691,1.0000000008843,0.561273951246379
26099.9999999007,79.8529050442838,1.0000000008632,0.563067708572453
26199.9999998992,79.700343552592,1.00000000084023,0.557434761930792
26299.9999998978,79.5450358966763,1.00000000088498,0.55983850156448
26399.9999998963,79.3879226556716,1.00000000085197,0.558354847727455
26499.9999998949,79.2312355324565,1.00000000083058,0.559555907584652
26599.9999998934,79.0761254934863,1.00000000079724,0.565809325853365
26699.999999892,78.9233285515216,1.00000000081287,0.569706739843857
26799.9999998905,78.7726152710604,1.0000000008175,0.567949991553158
26899.999999889,78.6242808859213,1.00000000085623,0.562946056879653
26999.9999998876,78.4792864482013,1.0000000008428,0.555110067497216
27099.9999998861,78.3389301692466,1.00000000082277,0.553322862384485
27199.9999998847,78.2047855911809,1.00000000079517,0.551501653869838
27299.9999998832,78.0771426685929,1.00000000078825,0.550855414662294
27399.9999998818,77.9563112792851,1.00000000077123,0.545477662473343
27499.9999998803,77.8422202097471,1.00000000078022,0.544944019774136
27599.9999998789,77.7338181272176,1.00000000079875,0.546488704669433
27699.9999998774,77.6296924758174,1.00000000083998,0.551077380607552
27799.9999998759,77.5271230569624,1.00000000084979,0.556093077945926
27899.9999998745,77.4243358775454,1.00000000084715,0.561832317471699
27999.999999873,77.319109385445,1.0000000008993,0.567801829662272
28099.9999998716,77.2111298211763,1.00000000088513,0.568433749387295
28199.9999998701,77.1010831489816,1.00000000084235,0.569576845140591
28299.9999998687,76.9897281217233,1.00000000083171,0.563213397327263
28399.9999998672,76.8783615394419,1.0000000008467,0.559272829113539
28499.9999998658,76.7668806948005,1.00000000082855,0.562452089775592
28599.9999998643,76.6549709136761,1.00000000083389,0.562200088201178
28699.9999998629,76.5437231815792,1.00000000085369,0.561248827797019
28799.9999998614,76.4323502419617,1.00000000084464,0.571347828522499
28899.9999998599,76.3211508560706,1.00000000081543,0.575832454125203
