Time,AGPnorm,Energy,Entropy
0,0,1,-7.07041992627731e-17
99.9999999999986,0.00112968530450745,1.00000000000074,0.00369005254792844
199.999999999993,0.0074265714240892,0.999999999998745,0.0107436506633221
300,0.0150311079203514,0.999999999997622,0.0196982371374472
400.000000000022,0.023026311883299,0.999999999999271,0.0308547226791792
500.000000000045,0.0317582900645761,1.00000000000034,0.0446140931109995
600.000000000068,0.0445171290326508,0.999999999999648,0.0604936906278413
700.000000000091,0.0566474639535966,0.999999999997843,0.077984984805043
800.000000000113,0.07006963220323,0.999999999998968,0.097503393189292
900.000000000136,0.0830686324056322,0.999999999999948,0.120287312361883
1000.00000000016,0.0977823240636945,1.0000000000006,0.146694060651776
1100.0000000001,0.112199931003481,1.0000000000037,0.178331713700563
1200,0.127445729114566,1.00000000003011,0.216020019118289
1299.99999999991,0.144045283389373,1.00000000011333,0.260674533270157
1399.99999999982,0.159637005169714,1.00000000026811,0.307197813157953
1499.99999999973,0.214301340342975,1.00000000045602,0.351401263981383
1599.99999999964,0.373241587422021,1.00000000065129,0.390083139008264
1699.99999999955,0.678741736336679,1.00000000088307,0.423915042825043
1799.99999999946,1.1899141746173,1.00000000105459,0.453400940941707
1899.99999999937,2.02001039258071,1.0000000012607,0.478444575925199
1999.99999999928,3.260722751404,1.00000000134304,0.499204673773701
2099.99999999919,4.91661177545149,1.00000000142745,0.516796533270893
2199.99999999909,6.98544111371852,1.00000000152385,0.531385901480123
2299.999999999,9.48900722811244,1.00000000152343,0.543506678043929
2399.99999999891,12.4136365781429,1.00000000159472,0.552593828327367
2499.99999999882,15.6905092821793,1.00000000154191,0.560430298658198
2599.99999999873,19.2468452884029,1.00000000150217,0.566265949878732
2699.99999999864,23.0381663228608,1.00000000150984,0.570706484458787
2799.99999999855,27.0004450723893,1.0000000015553,0.573419595343698
2899.99999999846,31.052249331324,1.00000000146828,0.57544375600976
2999.99999999837,35.1207485595536,1.00000000145723,0.576535313527332
3099.99999999828,39.1563524109375,1.00000000133034,0.576500009793187
3199.99999999819,43.110092982929,1.00000000134436,0.57621248702615
3299.99999999809,46.9237007122635,1.00000000128454,0.57492051057662
3399.999999998,50.5549057890381,1.0000000012548,0.573386119488994
3499.99999999791,53.9773546078163,1.00000000127882,0.572203150659817
3599.99999999782,57.1671447543921,1.0000000012487,0.571917592820894
3699.99999999773,60.0994908765637,1.00000000119177,0.568139493256844
3799.99999999764,62.7631544458386,1.0000000010884,0.565727897470148
3899.99999999755,65.1440610885978,1.00000000113364,0.566864859542282
3999.99999999746,67.2410360540832,1.0000000010461,0.562779065159152
4099.99999999738,69.0673530954797,1.00000000101989,0.56071314271379
4199.99999999775,70.6121317011844,1.00000000101523,0.559191716738203
4299.99999999811,71.8863017972132,1.00000000094643,0.560513219156259
4399.99999999848,72.9047081213406,1.00000000091389,0.552815005675822
4499.99999999884,73.6751656060955,1.00000000094855,0.55889877357359
4599.9999999992,74.2332063308764,1.00000000090375,0.555644064630095
4699.99999999957,74.564113986982,1.00000000081098,0.543399706450451
4799.99999999993,74.7037426490288,1.00000000095043,0.566717548670243
4900.00000000029,74.6989807232464,1.00000000083929,0.547277831119896
5000.00000000066,74.5058910539024,1.00000000074221,0.534931816176573
5100.00000000102,74.2019736635781,1.00000000101848,0.574601108232127
5200.00000000139,73.8208865485338,1.00000000083227,0.53826626648543
5300.00000000175,73.290877118577,1.00000000062988,0.51530160630756
5400.00000000211,72.6839250347106,1.00000000109219,0.572485037683553
5500.00000000248,72.0743201301449,1.0000000009504,0.552910249676043
5600.00000000284,71.3803998140386,1.00000000056931,0.490778858980523
5700.00000000321,70.5905791423223,1.00000000083269,0.535736910968105
5800.00000000357,69.8165159859034,1.00000000123983,0.579430582239129
5900.00000000393,69.0599504655866,1.00000000079244,0.521362333819061
6000.0000000043,68.2363553861902,1.00000000051042,0.463827449542238
6100.00000000466,67.3595600033964,1.00000000087062,0.526896302119524
6200.00000000502,66.5167047560122,1.00000000121787,0.576109965431458
6300.00000000539,65.7138809772184,1.0000000009734,0.527632797222148
6400.00000000575,64.8861281017024,1.00000000053965,0.451925969570163
6500.00000000612,64.0160818086146,1.00000000068968,0.469970999451849
6600.00000000648,63.1524021736557,1.00000000115683,0.546485603449108
6700.00000000684,62.3345494936766,1.00000000123937,0.560946793698742
6800.00000000721,61.5455186667896,1.00000000083443,0.501859825947197
6900.00000000757,60.7469152244134,1.00000000060953,0.445314176436229
7000.00000000793,59.9341038686217,1.00000000066402,0.456840556048251
7100.0000000083,59.127020330223,1.00000000101618,0.516550936054639
7200.00000000866,58.3489952526736,1.00000000120616,0.55163623220149
7300.00000000903,57.6021353510258,1.00000000102574,0.529064049552199
7400.00000000939,56.8692719280883,1.00000000077753,0.478636262825744
7500.00000000975,56.141742336008,1.00000000065438,0.453568764571264
7600.00000001012,55.4211121989907,1.00000000072197,0.470425483750852
7700.00000001048,54.7120490699714,1.0000000009338,0.496850687243287
7800.00000001084,54.0204601676045,1.00000000108227,0.528632757410775
7900.00000001121,53.3480008713832,1.00000000112734,0.534366028577658
8000.00000001157,52.6929750029729,1.00000000090316,0.512325739279522
8100.00000001194,52.0536373532674,1.00000000069972,0.468533381163582
8200.0000000123,51.4319997495766,1.00000000070587,0.469340853028948
8300.00000001266,50.8278976581439,1.00000000084842,0.489090328210111
8400.00000001303,50.239583252832,1.00000000080568,0.494688932942941
8500.00000001339,49.6676758127711,1.000000000802,0.496604271426298
8600.00000001376,49.1091111461437,1.00000000100442,0.520388292907528
8700.00000001412,48.5597281292872,1.00000000111455,0.532786165780804
8800.00000001448,48.0206288949185,1.00000000092552,0.516788129574764
8900.00000001485,47.5013286030241,1.00000000067914,0.478514321741931
9000.00000001521,47.0066788020287,1.00000000069228,0.470850798186876
9100.00000001557,46.530857935658,1.00000000095717,0.489064246447122
9200.00000001594,46.0653237518141,1.00000000097344,0.506343389773264
9300.0000000163,45.6127251233378,1.00000000084591,0.501502681492105
9400.00000001667,45.1804242503045,1.00000000073705,0.483264563926397
9500.00000001703,44.7622262244186,1.00000000089895,0.50784774555924
9600.00000001739,44.347904883652,1.00000000111179,0.533093090791539
9700.00000001776,43.9317037729245,1.00000000109544,0.532959181815978
9800.00000001812,43.5225613725828,1.00000000089473,0.512759256085013
9900.00000001848,43.1352622324187,1.00000000066266,0.482590556799815
10000.0000000188,42.7738196217168,1.00000000072374,0.4771907633505
10100.0000000192,42.4319015399286,1.00000000082808,0.487684520301017
10200.0000000196,42.0958289722805,1.00000000104021,0.500250644124287
10300.0000000199,41.7622808302054,1.00000000102703,0.509268395998004
10400.0000000203,41.4388152695284,1.00000000088206,0.51150882603651
10500.0000000207,41.1327901317828,1.00000000079321,0.498392940113428
10600.000000021,40.8400384818457,1.0000000008564,0.507190509006939
10700.0000000214,40.551209764518,1.00000000093866,0.525690353454894
10800.0000000218,40.2610397827023,1.00000000100906,0.532655983111403
10900.0000000221,39.9664420511707,1.0000000010288,0.538030841342381
11000.0000000225,39.6759017910852,1.00000000092501,0.52739751318884
11100.0000000229,39.4020183905149,1.00000000073204,0.504246769540355
11200.0000000232,39.1514189435371,1.00000000076407,0.490945391012143
11300.0000000236,38.9198180925132,1.00000000082005,0.500189085508004
11400.0000000239,38.7009023914095,1.00000000086706,0.501613567136469
11500.0000000243,38.4917073940797,1.00000000089892,0.509036844863882
11600.0000000247,38.2884586716949,1.00000000086733,0.506358782895829
11700.000000025,38.0908782096572,1.00000000090034,0.507894880827818
11800.0000000254,37.8955149475739,1.00000000094147,0.530111389883098
11900.0000000258,37.6993745815848,1.00000000089576,0.536237592844606
12000.0000000261,37.5070541211841,1.00000000092456,0.538525866923608
12100.0000000265,37.3176585904325,1.00000000082435,0.533381291130722
12200.0000000269,37.1352578263446,1.00000000085835,0.529720990825077
12300.0000000272,36.9565741473194,1.00000000091835,0.527947901872282
12400.0000000276,36.7763537371448,1.00000000103739,0.539642696206688
12500.0000000279,36.5907155403221,1.0000000010399,0.543046662159209
12600.0000000283,36.4085042194912,1.00000000084524,0.532056596202273
12700.0000000287,36.2430776413524,1.00000000077067,0.519301191636437
12800.000000029,36.100887333054,1.00000000075905,0.50235420302118
12900.0000000294,35.9751645943365,1.00000000082362,0.505299613352764
13000.0000000298,35.8535061497059,1.00000000095614,0.517289229449674
13100.0000000301,35.7321072887656,1.00000000092618,0.517938789430569
13200.0000000305,35.6186283758408,1.00000000084454,0.503097730592687
13300.0000000309,35.5179919847017,1.00000000084356,0.511686928426111
13400.0000000312,35.4274437111117,1.00000000084335,0.520712469485339
13500.0000000316,35.3416084035405,1.00000000091391,0.524195329583871
13600.0000000319,35.2534353179211,1.00000000099648,0.534636454301349
13700.0000000323,35.1540632163063,1.00000000101397,0.547694012113652
13800.0000000327,35.0429415321857,1.00000000097828,0.554802970431362
13900.000000033,34.9241319418445,1.00000000088483,0.561440845846478
14000.0000000334,34.8022852059649,1.00000000087723,0.560048810274702
14100.0000000338,34.6835389133842,1.00000000085319,0.556226714280149
14200.0000000341,34.5705193718373,1.00000000084282,0.549176422635612
14300.0000000345,34.4621177049442,1.00000000089308,0.539578435924414
14400.0000000349,34.3557895764921,1.00000000094201,0.536620114241974
14500.0000000352,34.2483437418357,1.00000000100897,0.54683509274699
14600.0000000356,34.1383719828979,1.00000000099304,0.551277827714899
14700.0000000359,34.0323234234401,1.00000000087052,0.548021031636248
14800.0000000363,33.940049232233,1.0000000007811,0.542061009498753
14900.0000000367,33.8655241455009,1.00000000081794,0.527136027840339
15000.000000037,33.8048203202483,1.0000000008474,0.526607129462289
15100.0000000374,33.753603547974,1.00000000085593,0.527272681404285
15200.0000000378,33.7095882619977,1.00000000091541,0.523329591579403
15300.0000000381,33.6667597703288,1.00000000090927,0.520829417175171
15400.0000000385,33.6262072443514,1.00000000082556,0.514336871553168
15500.0000000389,33.5944633243629,1.00000000082417,0.519271415668013
15600.0000000392,33.5702679641718,1.00000000086399,0.531558303273
15700.0000000396,33.5460889030313,1.00000000098346,0.544857074242707
15800.0000000399,33.5174844481458,1.00000000096863,0.557283717135677
15900.0000000403,33.4853961142634,1.00000000094196,0.559497509462555
16000.0000000407,33.4545058363915,1.00000000083002,0.560762208143342
16100.000000041,33.4272498363853,1.00000000082159,0.559033106940228
16200.0000000414,33.401328781007,1.00000000093024,0.559837974407016
16300.0000000418,33.3688692078551,1.00000000093327,0.566961946134898
16400.0000000418,33.3246487760159,1.00000000104412,0.568719063790006
16500.0000000404,33.2663442601734,1.00000000097133,0.565155481795431
16600.0000000389,33.194721765025,1.00000000106342,0.570861907379356
16700.0000000375,33.1124442013639,1.0000000009623,0.578293007860005
16800.000000036,33.0264130464233,1.00000000087228,0.579405939714851
16900.0000000346,32.9444492480758,1.00000000086601,0.570962396243887
17000.0000000331,32.8703222156411,1.00000000077215,0.560114527373501
17100.0000000317,32.8030751691074,1.00000000083448,0.557075520509928
17200.0000000302,32.7406100054844,1.00000000091895,0.553518424927933
17300.0000000287,32.6794726798391,1.00000000096602,0.554195846252217
17400.0000000273,32.6183150273841,1.00000000104428,0.561800115605996
17500.0000000258,32.5553632631496,1.00000000099188,0.565007305047018
17600.0000000244,32.4928412697961,1.00000000089208,0.56605596573551
17700.0000000229,32.4381497521158,1.00000000085295,0.562821922494895
17800.0000000215,32.397251110009,1.00000000083811,0.555269265254191
17900.00000002,32.3702355922763,1.00000000085522,0.551680152189112
18000.0000000186,32.3556984335655,1.0000000008794,0.542179530519924
18100.0000000171,32.3485222895544,1.00000000091094,0.538441675717988
18200.0000000156,32.3439258678312,1.00000000097351,0.537768301417111
18300.0000000142,32.3414484465489,1.00000000090126,0.536701286277054
18400.0000000127,32.3461592028441,1.00000000085109,0.536684501866323
18500.0000000113,32.3581233913229,1.00000000089745,0.534500462622392
18600.0000000098,32.3738050241242,1.00000000089748,0.535701495208116
18700.0000000084,32.3896909751011,1.00000000095237,0.537227811952502
18800.0000000069,32.4057151099159,1.00000000094902,0.536185398670165
18900.0000000055,32.4221278293401,1.00000000090014,0.534803902017871
19000.000000004,32.4369004860191,1.00000000090008,0.549468509583578
19100.0000000026,32.4475698033554,1.00000000091213,0.564594219408224
19200.0000000011,32.4553425851094,1.00000000093768,0.567929441513237
19299.9999999996,32.4614478949602,1.00000000092895,0.570645381766053
19399.9999999982,32.4683286357553,1.00000000091321,0.572913920454845
19499.9999999967,32.4745320710491,1.00000000093823,0.576518334023474
19599.9999999953,32.4768586458816,1.0000000009831,0.581242597373582
19699.9999999938,32.4720122296681,1.00000000101575,0.587961736599655
19799.9999999924,32.4617039558071,1.0000000009288,0.597821542016587
19899.9999999909,32.4485112185966,1.0000000009289,0.600955268711606
19999.9999999895,32.4315247359738,1.00000000096946,0.601035155561622
20099.999999988,32.4087396446597,1.00000000093752,0.599499221891098
20199.9999999865,32.3823733659675,1.00000000094629,0.596420137713765
20299.9999999851,32.3520750814185,1.00000000095754,0.591479573194831
20399.9999999836,32.3155978887182,1.00000000097619,0.583265224659409
20499.9999999822,32.2721151056277,1.00000000100251,0.577822982541224
20599.9999999807,32.2195493535832,1.00000000102842,0.584341120418856
20699.9999999793,32.1585058507346,1.000000001045,0.595891624654028
20799.9999999778,32.0900363131644,1.00000000101506,0.595212840933815
20899.9999999764,32.0180059372134,1.00000000098828,0.597556620439834
20999.9999999749,31.9467638011263,1.00000000087604,0.594541702313717
21099.9999999734,31.8792181049066,1.00000000086157,0.593402113819774
21199.999999972,31.8166868257267,1.00000000083857,0.593356406365751
21299.9999999705,31.7586480993258,1.00000000087153,0.594109986416616
21399.9999999691,31.704127913449,1.00000000086962,0.584991301226144
21499.9999999676,31.6538008711712,1.00000000092635,0.582019659233076
21599.9999999662,31.6065271006763,1.00000000100082,0.585715006744257
21699.9999999647,31.5619732692099,1.00000000100173,0.583182175385684
21799.9999999633,31.5183641696696,1.00000000096286,0.575224055030094
21899.9999999618,31.4750726992303,1.00000000101483,0.568682043908876
21999.9999999603,31.4334400649001,1.00000000095183,0.570767339081422
22099.9999999589,31.3971351871679,1.00000000095682,0.570607525178297
22199.9999999574,31.3703696307939,1.00000000088281,0.568498942607205
22299.999999956,31.3551633972511,1.00000000083263,0.569508641210029
22399.9999999545,31.3509615304953,1.00000000087333,0.564871530263513
22499.9999999531,31.3553297367384,1.00000000089999,0.560494987224356
22599.9999999516,31.365458441202,1.00000000088136,0.560606694276353
22699.9999999502,31.3797582568338,1.00000000095634,0.557315852626203
22799.9999999487,31.3975164631486,1.00000000092506,0.551840745459181
22899.9999999473,31.4190937917584,1.00000000089359,0.54716985124508
22999.9999999458,31.4455402147318,1.00000000089756,0.544956402231279
23099.9999999443,31.477325722242,1.0000000009079,0.548835628937246
23199.9999999429,31.5114192638147,1.00000000093104,0.550283972056393
23299.9999999414,31.5475605931484,1.00000000090078,0.550058061498681
23399.99999994,31.5862272512783,1.00000000091407,0.552521902964072
23499.9999999385,31.6255747916702,1.00000000096977,0.552799603094735
23599.9999999371,31.6634823938018,1.00000000099284,0.55694710195482
23699.9999999356,31.6962263843776,1.00000000097384,0.563925935942157
23799.9999999342,31.7251035613466,1.00000000098433,0.573983478995896
23899.9999999327,31.7515572566123,1.00000000091155,0.577510250687497
23999.9999999312,31.7767651517443,1.00000000092447,0.583740616038034
24099.9999999298,31.7996021212176,1.00000000095178,0.592050160675464
24199.9999999283,31.8198268311147,1.0000000010304,0.599512573555054
24299.9999999269,31.8371628669743,1.00000000094911,0.603330018964465
24399.9999999254,31.8519163787709,1.00000000092633,0.599665020302325
24499.999999924,31.8651141925192,1.00000000093838,0.606151105113196
24599.9999999225,31.8773530986061,1.00000000095752,0.606546878999494
24699.9999999211,31.8875801262659,1.00000000097269,0.60620664888078
24799.9999999196,31.8960049171724,1.00000000094392,0.600797919749641
24899.9999999181,31.9033883053393,1.00000000096149,0.601124870690499
24999.9999999167,31.9077281856866,1.00000000099305,0.599139841193647
25099.9999999152,31.9067142355155,1.00000000100036,0.605600164161339
25199.9999999138,31.9017052479243,1.00000000095342,0.616124201309781
25299.9999999123,31.893568615316,1.00000000095118,0.612333459992301
25399.9999999109,31.8839205050046,1.00000000091249,0.612183514891506
25499.9999999094,31.8720875788137,1.00000000095961,0.615243388042629
25599.999999908,31.8579210785856,1.00000000089871,0.616881931195171
25699.9999999065,31.8438278453777,1.00000000087914,0.609883109284071
25799.9999999051,31.8304152994442,1.00000000094768,0.599288038224666
25899.9999999036,31.8147922481427,1.00000000098089,0.59614740035943
25999.9999999021,31.7947394036073,1.00000000096061,0.593766265596777
26099.9999999007,31.7702966554862,1.00000000101406,0.60291465539535
26199.9999998992,31.7408201447562,1.00000000105574,0.608446326575432
26299.9999998978,31.7075212997001,1.00000000100464,0.606129784027416
26399.9999998963,31.6724576792154,1.00000000092954,0.611963012689812
26499.9999998949,31.6367932874963,1.00000000094157,0.615761143427515
26599.9999998934,31.6012945009688,1.00000000090513,0.611422609425095
26699.999999892,31.5651981598911,1.00000000092865,0.617186712517943
26799.9999998905,31.5269807725727,1.00000000096933,0.620512016478994
26899.999999889,31.4864861468847,1.00000000093619,0.612901956194132
26999.9999998876,31.4443174252064,1.00000000093521,0.609685074308359
27099.9999998861,31.3996506394475,1.00000000093927,0.608565752792533
27199.9999998847,31.3522373842287,1.00000000100291,0.613142854183006
27299.9999998832,31.3021848840536,1.00000000101204,0.613949999501856
27399.9999998818,31.2488068423571,1.00000000097823,0.614278905133965
27499.9999998803,31.1927715428364,1.00000000102765,0.612470979046787
27599.9999998789,31.1331930584817,1.0000000010602,0.61502191978749
27699.9999998774,31.0702706008433,1.00000000107063,0.624456626820791
27799.9999998759,31.0045395585393,1.00000000101138,0.627281786278906
27899.9999998745,30.9364150955669,1.00000000100425,0.630619994281011
27999.999999873,30.8672661481906,1.0000000009493,0.627089920005221
28099.9999998716,30.7986460741807,1.00000000088633,0.61909469174452
28199.9999998701,30.7321355304868,1.00000000088742,0.617175523856552
28299.9999998687,30.6688252086101,1.00000000089715,0.605857303332476
28399.9999998672,30.6092900970818,1.00000000087999,0.600904153197676
28499.9999998658,30.5534624724676,1.0000000009787,0.607243591204259
28599.9999998643,30.5008553695177,1.00000000088039,0.608840027446739
28699.9999998629,30.4517344270852,1.00000000097577,0.610751973611322
28799.9999998614,30.4058464651446,1.00000000103873,0.612664223530234
28899.9999998599,30.3620303534795,1.00000000099023,0.606579773662282
28999.9999998585,30.320570420854,1.000000001018,0.607003293110257
