Time,AGPnorm,Energy,Entropy
0,0,1,2.64282686564729e-18
99.9999999999986,0.00443973749756595,1.00000000000521,0.0142258085888877
199.999999999993,0.0127983537044584,1.00000000000106,0.0419378797145622
300,0.0261978090728765,1.00000000000402,0.0816106123487988
400.000000000022,0.0406299966758221,1.00000000000379,0.134015724831825
500.000000000045,0.0561201033097354,1.00000000002384,0.204309443132522
600.000000000068,0.0824089935174852,1.00000000021669,0.300278622779566
700.000000000091,0.164356369344127,1.00000000070339,0.399296747215923
800.000000000113,0.56713201500057,1.00000000118297,0.475903636153525
900.000000000136,1.58423087785233,1.00000000154826,0.523287560337308
1000.00000000016,3.39223018464507,1.00000000185172,0.550868459274027
1100.0000000001,6.04675505375799,1.0000000017571,0.56389996026935
1200,9.25888425151649,1.0000000019702,0.568211734936664
1299.99999999991,12.8678798876966,1.00000000184074,0.567103700280923
1399.99999999982,16.4864886917823,1.000000001673,0.562044334423773
1499.99999999973,19.950270634129,1.00000000158356,0.553805895216626
1599.99999999964,23.0277572317455,1.00000000157637,0.547770703620195
1699.99999999955,25.6355963511901,1.00000000139373,0.537088065086016
1799.99999999946,27.7261781522022,1.00000000129935,0.537214588215332
1899.99999999937,29.2715043955076,1.00000000117731,0.516724715942477
1999.99999999928,30.30793907684,1.00000000119829,0.536553345559328
2099.99999999919,30.9059365836124,1.00000000099232,0.501301140524828
2199.99999999909,31.039388605907,1.00000000106234,0.515432089579509
2299.999999999,30.9766455658123,1.00000000122548,0.545422886080203
2399.99999999891,30.6054516464724,1.00000000066091,0.429592476947758
2499.99999999882,30.0199713153651,1.00000000130329,0.551901301199261
2599.99999999873,29.4876708197967,1.00000000130091,0.543137906605857
2699.99999999864,28.8109552706376,1.0000000004917,0.367977383452624
2799.99999999855,27.9882205702195,1.00000000114808,0.492929846031235
2899.99999999846,27.2519209947091,1.00000000160446,0.574832908384558
2999.99999999837,26.6041935030638,1.00000000114223,0.489190943684642
3099.99999999828,25.8807827946547,1.00000000049793,0.321729844639642
3199.99999999819,25.1192784079022,1.00000000101073,0.44427911774867
3299.99999999809,24.3868714873628,1.00000000156696,0.536385461063852
3399.999999998,23.7403547711143,1.00000000153371,0.565513231933442
3499.99999999791,23.1448219756764,1.00000000098067,0.480209803461153
3599.99999999782,22.5473108150284,1.00000000056753,0.326389388721271
3699.99999999773,21.9910786079401,1.00000000081386,0.380762201679702
3799.99999999764,21.4511478248858,1.00000000129622,0.510235149265274
3899.99999999755,20.9167002610069,1.0000000011432,0.519137767684797
3999.99999999746,20.4007986074856,1.00000000142813,0.517985903705595
4099.99999999738,19.9101048124026,1.00000000147077,0.577685590931607
4199.99999999775,19.4518099234301,1.00000000099121,0.489813268679244
4299.99999999811,19.0455888757092,1.00000000043779,0.340943564700637
4399.99999999848,18.744853685693,1.00000000072056,0.340731020992099
4499.99999999884,18.501537618668,1.00000000109833,0.449707461619284
4599.9999999992,18.2287705901658,1.00000000133977,0.524883084560218
4699.99999999957,17.9169455903283,1.00000000131655,0.548863939503837
4799.99999999993,17.616492496332,1.00000000087354,0.499546329495509
4900.00000000029,17.3246966928927,1.00000000109286,0.499411996560517
5000.00000000066,17.007615112997,1.00000000140901,0.530632108062733
5100.00000000102,16.6799099373987,1.00000000154311,0.576595621003167
5200.00000000139,16.3652280994271,1.00000000118407,0.549712475508396
5300.00000000175,16.0892943140027,1.00000000063835,0.430704352060486
5400.00000000211,15.9187844194508,1.00000000049824,0.342865736937538
5500.00000000248,15.8884879031587,1.00000000068296,0.347237572164739
5600.00000000284,15.9339838034145,1.00000000112662,0.430822757457975
5700.00000000321,15.9440088123801,1.00000000135841,0.512193993832364
5800.00000000357,15.9060883180066,1.00000000118328,0.537709461807637
5900.00000000393,15.8398834910195,1.00000000116466,0.526410462403771
6000.0000000043,15.7355103472502,1.0000000012666,0.549971353370908
6100.00000000466,15.5970525481174,1.0000000012011,0.544399462748865
6200.00000000502,15.45057184532,1.00000000101598,0.534057829491926
6300.00000000539,15.3083358395812,1.00000000102296,0.532654940978778
6400.00000000575,15.1675481319936,1.0000000009604,0.537283916822226
6500.00000000612,15.0190130674253,1.00000000108009,0.53548135874381
6600.00000000648,14.8479313239308,1.00000000136295,0.548870040224134
6700.00000000684,14.6531967090582,1.00000000142723,0.554790247917261
6800.00000000721,14.4474357130052,1.00000000163152,0.578781847682835
6900.00000000757,14.2431202969418,1.00000000116678,0.572660943422106
7000.00000000793,14.0518906068804,1.00000000089238,0.506355367915794
7100.0000000083,13.9152198239525,1.00000000054697,0.41690585037879
7200.00000000866,13.8963007845684,1.00000000048241,0.356315909664303
7300.00000000903,14.0289867481938,1.00000000062967,0.356960219454354
7400.00000000939,14.2758258608845,1.00000000095579,0.395760205397711
7500.00000000975,14.5415749990524,1.00000000118531,0.459864444316412
7600.00000001012,14.7680897255301,1.00000000130677,0.507476392055722
7700.00000001048,14.9362133001189,1.00000000126702,0.54282255986902
7800.00000001084,15.0557949738396,1.00000000118265,0.546071567812375
7900.00000001121,15.1412893267198,1.00000000117991,0.560857426594113
8000.00000001157,15.1854970789665,1.00000000128528,0.58174280880068
8100.00000001194,15.1859570343146,1.00000000108926,0.579022149163387
8200.0000000123,15.1592064752082,1.00000000115557,0.563688038971861
8300.00000001266,15.1150253232902,1.0000000010834,0.553965183673874
8400.00000001303,15.0585666084164,1.00000000122678,0.55345560206437
8500.00000001339,14.9867261019438,1.00000000115537,0.54652521873415
8600.00000001376,14.9151699309135,1.00000000103419,0.546239721095468
8700.00000001412,14.8526634086422,1.0000000009543,0.545342393378888
8800.00000001448,14.7920763280448,1.00000000113738,0.545986576074572
8900.00000001485,14.7254014127734,1.00000000105841,0.548803979883876
9000.00000001521,14.6593200229059,1.00000000104609,0.552429633365771
9100.00000001557,14.59256332389,1.00000000110846,0.554033547887423
9200.00000001594,14.5190996143908,1.00000000119894,0.553790024280104
9300.0000000163,14.4315078795738,1.00000000117967,0.562976947513932
9400.00000001667,14.3334685794233,1.00000000116491,0.58423474408256
9500.00000001703,14.2301827820391,1.00000000098658,0.587659631867247
9600.00000001739,14.1284267155889,1.00000000096188,0.578067739699534
9700.00000001776,14.0234125965921,1.00000000106404,0.584912019907857
9800.00000001812,13.9102506256161,1.00000000115147,0.584276502321589
9900.00000001848,13.7881994544872,1.00000000128683,0.589524046936291
10000.0000000188,13.6617820854984,1.00000000148335,0.596159957549873
10100.0000000192,13.5386494741096,1.00000000148757,0.59204742397036
10200.0000000196,13.4228775405555,1.00000000157935,0.596342002386993
10300.0000000199,13.311555330561,1.00000000137067,0.589305472261485
10400.0000000203,13.1954443180074,1.0000000011408,0.567282481210031
10500.0000000207,13.0729888370453,1.0000000008526,0.516612715349405
10600.000000021,12.9654032460224,1.00000000067538,0.459847182737304
10700.0000000214,12.9142000775565,1.00000000054548,0.404670610506049
10800.0000000218,12.9662871652226,1.00000000054183,0.371121528955363
10900.0000000221,13.1505880329058,1.00000000054487,0.366252432111468
11000.0000000225,13.4678090923581,1.00000000075708,0.38463262792193
11100.0000000229,13.871489421424,1.00000000099049,0.412187331935792
11200.0000000232,14.3123637992316,1.00000000118811,0.445322928274681
11300.0000000236,14.7287600072572,1.00000000128362,0.483169365916569
11400.0000000239,15.1081539223247,1.00000000129019,0.503686538796148
11500.0000000243,15.4403217266667,1.00000000129153,0.53524877055103
11600.0000000247,15.7222164788063,1.00000000119737,0.55191525849463
11700.000000025,15.9650356566519,1.00000000128107,0.560813943306897
11800.0000000254,16.1710210965094,1.00000000116729,0.568577722831956
11900.0000000258,16.3407682264699,1.00000000122562,0.590480962235652
12000.0000000261,16.4747261672074,1.00000000125278,0.598307425301351
12100.0000000265,16.5760852847969,1.00000000124589,0.601408060425255
12200.0000000269,16.6438288892195,1.00000000123995,0.605275109160589
12300.0000000272,16.6868763112636,1.00000000123665,0.609778522784027
12400.0000000276,16.7060170316993,1.00000000121372,0.612926023931684
12500.0000000279,16.7054658872148,1.0000000012024,0.599187595388396
12600.0000000283,16.6979102055511,1.00000000108874,0.587639652455224
12700.0000000287,16.6769423211761,1.00000000130571,0.586988565002656
12800.000000029,16.6448540488902,1.00000000113436,0.580336325450785
12900.0000000294,16.6099471758735,1.00000000116989,0.581769479766068
13000.0000000298,16.5630410903917,1.00000000122345,0.589418014714681
13100.0000000301,16.5055234211961,1.00000000116482,0.59692479136126
13200.0000000305,16.4407557868045,1.00000000123896,0.60204603438573
13300.0000000309,16.3704904831367,1.00000000120742,0.596458922528743
13400.0000000312,16.2930906837092,1.00000000123679,0.608241478131643
13500.0000000316,16.2113214813322,1.0000000011927,0.601987059055038
13600.0000000319,16.1319999473145,1.00000000110145,0.59336204253997
13700.0000000323,16.0575858545439,1.00000000106166,0.575580020293052
13800.0000000327,15.9911366267175,1.00000000110717,0.567559710092682
13900.000000033,15.9270337440344,1.00000000131756,0.575525663499469
14000.0000000334,15.8629340250864,1.00000000119896,0.581017233260518
14100.0000000338,15.7992850216855,1.00000000123104,0.576825800607323
14200.0000000341,15.7343500203647,1.00000000123086,0.583868622075964
14300.0000000345,15.6720593485105,1.00000000120488,0.586305752790124
14400.0000000349,15.6184665150387,1.00000000104295,0.579847631872228
14500.0000000352,15.571506589614,1.00000000121959,0.577278498121235
14600.0000000356,15.5208256882972,1.00000000121893,0.581765381094474
14700.0000000359,15.4728241978869,1.00000000106268,0.578099637450396
14800.0000000363,15.4325251501094,1.00000000113262,0.560379474253714
14900.0000000367,15.3952787506717,1.00000000124775,0.55248438943814
15000.000000037,15.3542869982076,1.00000000125115,0.554108298933657
15100.0000000374,15.3157452708805,1.00000000107543,0.563512562318976
15200.0000000378,15.2802986724901,1.00000000112502,0.581308673900288
15300.0000000381,15.2409047162395,1.00000000115542,0.603587605460892
15400.0000000385,15.2006019456032,1.00000000116127,0.601260459532377
15500.0000000389,15.1602876378381,1.00000000119917,0.59238091822878
15600.0000000392,15.1151760038299,1.0000000012488,0.575072175610413
15700.0000000396,15.070094973534,1.00000000115617,0.584544341981558
15800.0000000399,15.0310046864579,1.00000000111257,0.59125890540994
15900.0000000403,14.991592521251,1.00000000128036,0.606242622910212
16000.0000000407,14.9472478405703,1.00000000120067,0.611718494097957
16100.000000041,14.9032187657186,1.00000000111765,0.610352105655189
16200.0000000414,14.8553727515929,1.00000000124991,0.620526587911774
16300.0000000418,14.8011277693802,1.00000000121303,0.620532482410269
16400.0000000418,14.7446845606046,1.00000000113302,0.612702532994813
16500.0000000404,14.6867438766497,1.00000000119487,0.610894982152991
16600.0000000389,14.6263923307172,1.00000000125864,0.616565094385399
16700.0000000375,14.566930619067,1.00000000110707,0.616300985877947
16800.000000036,14.511502756599,1.00000000117041,0.609977898604788
16900.0000000346,14.4562564697902,1.00000000117055,0.609587056912215
17000.0000000331,14.3972980594047,1.00000000124577,0.604723682043617
17100.0000000317,14.3359456905401,1.00000000121278,0.605406220402393
17200.0000000302,14.2765835370153,1.00000000101877,0.614906783891571
17300.0000000287,14.2172136778064,1.0000000013085,0.620805606346293
17400.0000000273,14.1559095324637,1.00000000121255,0.609555351863348
17500.0000000258,14.0972635750997,1.00000000106849,0.600725165171304
17600.0000000244,14.0395792203675,1.00000000123204,0.605131188120404
17700.0000000229,13.9792565169039,1.00000000119259,0.599176810639579
17800.0000000215,13.9173510574608,1.0000000011743,0.612880551309845
17900.00000002,13.8538556613219,1.00000000119247,0.61808262565175
18000.0000000186,13.7891581910362,1.00000000122743,0.618266896941636
18100.0000000171,13.7231998949924,1.00000000128196,0.616432966387476
18200.0000000156,13.6546904881116,1.00000000137005,0.633541539386232
18300.0000000142,13.5841059633571,1.00000000127753,0.628650325493642
18400.0000000127,13.5141895435756,1.0000000010863,0.618666529549887
18500.0000000113,13.4451312543494,1.00000000117664,0.62367864649382
18600.0000000098,13.3746226760116,1.00000000139262,0.640092895678306
18700.0000000084,13.3037807028749,1.00000000124958,0.623222582965624
18800.0000000069,13.233911534903,1.00000000118748,0.623470706188627
18900.0000000055,13.1644721979121,1.0000000011783,0.60954417561494
19000.000000004,13.0957967759119,1.0000000011513,0.625595288008822
19100.0000000026,13.028127526902,1.00000000109326,0.632348989663575
19200.0000000011,12.9613435197837,1.00000000103256,0.623504840747278
19299.9999999996,12.8956603010113,1.00000000121624,0.619897177517254
19399.9999999982,12.8319605222642,1.00000000113612,0.629089788241079
19499.9999999967,12.7718038695902,1.00000000119769,0.630461031677313
19599.9999999953,12.7169521803487,1.00000000127629,0.622976458057193
19699.9999999938,12.669937631478,1.00000000135606,0.632600683989889
19799.9999999924,12.6351185966449,1.00000000137192,0.635064891278337
19899.9999999909,12.6134422026494,1.00000000146336,0.636318836527956
19999.9999999895,12.6141566891934,1.00000000152528,0.644368189235058
20099.999999988,12.6311127529633,1.00000000158165,0.647682756030308
20199.9999999865,12.6815371680313,1.00000000157037,0.652035907289174
20299.9999999851,12.7461291253146,1.00000000162648,0.650781514139914
20399.9999999836,12.844999861413,1.0000000017442,0.641563751999814
20499.9999999822,12.9496737998709,1.00000000168409,0.630531164664819
20599.9999999807,13.0742345952008,1.00000000149576,0.615300671720159
20699.9999999793,13.1811790631641,1.0000000014407,0.603202600389177
20799.9999999778,13.2696808473538,1.0000000012434,0.591424509275954
20899.9999999764,13.3189793312842,1.00000000103499,0.565007766118391
20999.9999999749,13.3281087005152,1.00000000099435,0.535395369515066
21099.9999999734,13.303627769259,1.00000000076912,0.500701811603811
21199.999999972,13.2550925847448,1.00000000076673,0.472045592957972
21299.9999999705,13.2041376434074,1.00000000055757,0.440142129658657
21399.9999999691,13.1769997922891,1.00000000060437,0.415157611051342
21499.9999999676,13.2001063689383,1.00000000055628,0.396373419216937
21599.9999999662,13.2998882566998,1.00000000057657,0.382446940868424
21699.9999999647,13.5037445134216,1.00000000061791,0.379789704079651
21799.9999999633,13.8073871324013,1.00000000071729,0.381599326899735
21899.9999999618,14.2414481692103,1.00000000080593,0.389174202988563
21999.9999999603,14.7572674447168,1.00000000096923,0.397688633772109
22099.9999999589,15.3837632987702,1.0000000009404,0.413277665779329
22199.9999999574,16.0486451281741,1.00000000116686,0.425088633422341
22299.999999956,16.7580918060244,1.00000000124352,0.438740379317904
22399.9999999545,17.4716328610582,1.0000000013225,0.451837263618795
22499.9999999531,18.1690383325118,1.00000000133177,0.469311849174533
22599.9999999516,18.8597028970068,1.00000000135143,0.483474949857719
22699.9999999502,19.5005524661159,1.00000000140473,0.49334679570213
22799.9999999487,20.1321049213959,1.00000000128505,0.511443368013894
22899.9999999473,20.7139664630401,1.00000000139113,0.516000443787286
22999.9999999458,21.2700334863267,1.00000000141864,0.526443793423573
23099.9999999443,21.7836768888712,1.00000000126154,0.533233315933935
23199.9999999429,22.270260253446,1.00000000132121,0.54240327295494
23299.9999999414,22.7269056620781,1.00000000132785,0.552478267828418
23399.99999994,23.1435792152325,1.00000000130612,0.557626902499759
23499.9999999385,23.5454948625065,1.00000000126418,0.579810451324255
23599.9999999371,23.9112092030817,1.00000000124494,0.582543054104175
23699.9999999356,24.2606671671937,1.00000000137264,0.58700432978651
23799.9999999342,24.5743334091873,1.00000000123982,0.600385763528716
23899.9999999327,24.8595002635417,1.00000000127353,0.618230825687829
23999.9999999312,25.1185489324392,1.00000000126092,0.622836551116812
24099.9999999298,25.351155433175,1.00000000125555,0.612653506565248
24199.9999999283,25.5630398320669,1.00000000142033,0.627087138221152
24299.9999999269,25.7362616173013,1.00000000144051,0.64151545278167
24399.9999999254,25.8909403834957,1.00000000128559,0.644854644938849
24499.999999924,26.022156624554,1.00000000132153,0.635884129815443
24599.9999999225,26.1444493617445,1.00000000121185,0.632294240692116
24699.9999999211,26.2464914193858,1.00000000133488,0.637089235959224
24799.9999999196,26.3262208062609,1.00000000145564,0.643343701334343
24899.9999999181,26.3852478310426,1.00000000133898,0.644753790672616
24999.9999999167,26.4307963675683,1.00000000121874,0.637685696308875
25099.9999999152,26.4724571749531,1.00000000127173,0.632398848579225
25199.9999999138,26.5053679125181,1.0000000011961,0.625715268096095
25299.9999999123,26.5325767145287,1.00000000149862,0.628254394291976
25399.9999999109,26.5404155080842,1.00000000141493,0.644182656475426
25499.9999999094,26.5315574086951,1.0000000013902,0.637703043883298
25599.999999908,26.5170429969362,1.00000000117675,0.628932646264096
25699.9999999065,26.499834545401,1.00000000119607,0.623541257284183
25799.9999999051,26.4816215689316,1.00000000122235,0.621809570932598
25899.9999999036,26.4565781848895,1.00000000132599,0.617441730409012
25999.9999999021,26.4294209887932,1.00000000129796,0.616343645244615
26099.9999999007,26.3961126859105,1.00000000132569,0.631409482893931
26199.9999998992,26.3594648877197,1.00000000123015,0.641901097612804
26299.9999998978,26.3173204285841,1.00000000120509,0.644211172035906
26399.9999998963,26.2737351630005,1.00000000121511,0.624725505730254
26499.9999998949,26.2325550772335,1.00000000124652,0.600177086100479
26599.9999998934,26.190909247315,1.00000000135162,0.612584514563628
26699.999999892,26.1437202943013,1.00000000136126,0.608725633551642
26799.9999998905,26.0871380989604,1.00000000131281,0.607356332344665
26899.999999889,26.0267912448691,1.00000000120749,0.598852787258241
26999.9999998876,25.9667457723489,1.00000000119572,0.593776211737759
27099.9999998861,25.9092346781816,1.00000000142153,0.612047881802126
27199.9999998847,25.8482093337137,1.00000000145999,0.626049008474543
27299.9999998832,25.7804165279237,1.00000000138103,0.635030468723918
27399.9999998818,25.7119316521833,1.0000000012172,0.627490766274871
27499.9999998803,25.646968571515,1.00000000118846,0.616333387626731
27599.9999998789,25.5868754369826,1.0000000012738,0.617703754561812
27699.9999998774,25.5269989247334,1.00000000127959,0.623928684399116
27799.9999998759,25.4657827378787,1.00000000131708,0.620430403613775
27899.9999998745,25.4073204836879,1.00000000112928,0.596334037570363
27999.999999873,25.3547007257162,1.00000000121857,0.591782554053528
28099.9999998716,25.3025669549843,1.00000000135798,0.61429495618523
28199.9999998701,25.2458343248969,1.00000000150332,0.616109247691997
28299.9999998687,25.1866434562148,1.00000000135773,0.620079780631657
28399.9999998672,25.1265262510527,1.00000000119645,0.598495928697871
28499.9999998658,25.0704394342312,1.00000000117273,0.605654531741043
28599.9999998643,25.0147219570663,1.0000000014313,0.629432210792575
28699.9999998629,24.9554651911555,1.00000000130192,0.618691005997883
28799.9999998614,24.8948351770956,1.00000000122919,0.604926695921488
28899.9999998599,24.8356557830344,1.00000000121621,0.597640536306146
28999.9999998585,24.7791706434715,1.00000000118607,0.596250214076993
