Time,AGPnorm,Energy,Entropy
0,0,1,-1.18126352328174e-17
99.9999999999986,2.18224491130908e-05,1.00000000000084,0.000959440101622894
199.999999999993,0.00188305076896049,1.00000000000113,0.00149446334090547
300,0.00482867364877009,0.999999999999905,0.00266161631685425
400.000000000022,0.00664898588813791,1.00000000000151,0.00454766567508833
500.000000000045,0.0080090437746065,1.0000000000002,0.00608127180619122
600.000000000068,0.0115726494239931,1.00000000000061,0.00852286942953168
700.000000000091,0.0143652020664833,1.00000000000129,0.0108548004644837
800.000000000113,0.0183700311354659,0.999999999999911,0.0133985597210208
900.000000000136,0.0227920850545058,1.00000000000134,0.0165057103808581
1000.00000000016,0.0266164686409118,1.00000000000041,0.0193410273502602
1100.0000000001,0.0321919614198345,1.00000000000045,0.0227475189880582
1200,0.03765275811807,1.00000000000137,0.0262142927764808
1299.99999999991,0.0431701831863651,0.99999999999994,0.0297555053367851
1399.99999999982,0.0493166508313854,1.00000000000116,0.0337774598581056
1499.99999999973,0.055500527881588,1.00000000000064,0.037625494566183
1599.99999999964,0.062799126740539,1.00000000000034,0.0418939020009752
1699.99999999955,0.0700308583235401,1.00000000000135,0.0463322664076708
1799.99999999946,0.0769728159860091,0.999999999999998,0.0507779817956217
1899.99999999937,0.084651493819133,1.00000000000103,0.0556726539822548
1999.99999999928,0.0926443379193439,1.00000000000087,0.0605181005885327
2099.99999999919,0.100968264144496,1.00000000000024,0.0657067106779897
2199.99999999909,0.109268110996737,1.00000000000124,0.0711463286091279
2299.999999999,0.117507658616009,1.00000000000011,0.0765928594323793
2399.99999999891,0.126402520167635,1.00000000000095,0.0825171468570962
2499.99999999882,0.135504963108987,1.00000000000101,0.0885341187031594
2599.99999999873,0.144253594953333,1.00000000000014,0.094859358568519
2699.99999999864,0.153111264592097,1.00000000000119,0.101553854241979
2799.99999999855,0.162309713521085,1.00000000000032,0.108353972868037
2899.99999999846,0.171849334453199,1.00000000000086,0.115750548089313
2999.99999999837,0.181281139724387,1.00000000000107,0.123444963949641
3099.99999999828,0.190139369268366,1.00000000000017,0.131515581446477
3199.99999999819,0.199294111490364,1.00000000000137,0.140270107476282
3299.99999999809,0.208880528112912,1.00000000000099,0.149455555532579
3399.999999998,0.218526238987455,1.00000000000174,0.159571167780702
3499.99999999791,0.227478986227604,1.00000000000348,0.170478767932707
3599.99999999782,0.236399055435509,1.00000000000541,0.182104859258903
3699.99999999773,0.24625145050183,1.00000000001179,0.19487549813192
3799.99999999764,0.254727395413013,1.00000000001973,0.208259464052188
3899.99999999755,0.266428828028922,1.00000000003151,0.222333748785669
3999.99999999746,0.275867878359733,1.00000000004641,0.236785145442575
4099.99999999738,0.288035342599244,1.00000000006762,0.25110611620227
4199.99999999775,0.310175319358667,1.00000000009261,0.265709709882742
4299.99999999811,0.329351878475587,1.0000000001136,0.27996283034671
4399.99999999848,0.370491461792743,1.0000000001466,0.293851167376379
4499.99999999884,0.423761950774657,1.00000000017592,0.307592604076334
4599.9999999992,0.497036476830443,1.00000000020628,0.320827428139829
4699.99999999957,0.618456135216509,1.00000000023886,0.333951709115903
4799.99999999993,0.763810420917535,1.00000000026815,0.346618802774624
4900.00000000029,0.977773256576058,1.00000000030426,0.358684310400163
5000.00000000066,1.25886491447461,1.00000000033552,0.370523817296308
5100.00000000102,1.60759888645085,1.00000000036101,0.381955274096448
5200.00000000139,2.0735003590825,1.00000000037698,0.393019371587449
5300.00000000175,2.62912366692203,1.00000000040049,0.403600704612775
5400.00000000211,3.31841711633594,1.00000000044938,0.413580914693059
5500.00000000248,4.15342547169316,1.00000000047892,0.423360862762924
5600.00000000284,5.12259526692989,1.00000000048254,0.432817501467427
5700.00000000321,6.28010585142099,1.00000000051824,0.441640206065105
5800.00000000357,7.6024527545649,1.00000000053289,0.450199349867008
5900.00000000393,9.116300573095,1.00000000054951,0.45826480735443
6000.0000000043,10.8410534498684,1.00000000058686,0.466015528398633
6100.00000000466,12.7577959773531,1.00000000059086,0.473451256187144
6200.00000000502,14.907324079703,1.00000000060033,0.480365695344317
6300.00000000539,17.2713615320454,1.00000000063152,0.486901403905703
6400.00000000575,19.8593787756419,1.00000000060372,0.493318243810365
6500.00000000612,22.6870005278873,1.00000000063802,0.499237314296977
6600.00000000648,25.7342256382186,1.00000000062018,0.504865417027148
6700.00000000684,29.0221010122109,1.00000000066284,0.510004892392184
6800.00000000721,32.5342120121271,1.00000000065304,0.515074954177255
6900.00000000757,36.271522388409,1.00000000064768,0.519842897995849
7000.00000000793,40.2377220531724,1.00000000066451,0.524283060913566
7100.0000000083,44.4143011662113,1.00000000067021,0.528343977003874
7200.00000000866,48.8085622999465,1.00000000068651,0.532157876163203
7300.00000000903,53.4002694544773,1.00000000068989,0.535925050274708
7400.00000000939,58.1895303658577,1.00000000072371,0.539185412215063
7500.00000000975,63.1683458169726,1.00000000069472,0.542488227856811
7600.00000001012,68.3178192237561,1.00000000066072,0.545538362707463
7700.00000001048,73.6410424533073,1.00000000069722,0.548234377508767
7800.00000001084,79.1114468861573,1.00000000069782,0.550941713183448
7900.00000001121,84.7308292244671,1.00000000070087,0.553065650544789
8000.00000001157,90.4860094254156,1.00000000065407,0.555448897629653
8100.00000001194,96.3540544685433,1.00000000065747,0.557653066596439
8200.0000000123,102.341086262852,1.00000000066107,0.559487969167343
8300.00000001266,108.415337723398,1.00000000068463,0.561168967602887
8400.00000001303,114.578782528171,1.0000000006729,0.562567763357323
8500.00000001339,120.819504204984,1.00000000066932,0.564275094609988
8600.00000001376,127.109878102315,1.00000000064887,0.565849512188441
8700.00000001412,133.460871913496,1.00000000066038,0.5666241456561
8800.00000001448,139.840757447498,1.00000000066337,0.567953180342606
8900.00000001485,146.247848838719,1.00000000064677,0.569019584517696
9000.00000001521,152.676655653691,1.00000000064513,0.569737489253421
9100.00000001557,159.095450157699,1.0000000006611,0.570760000723881
9200.00000001594,165.519261639606,1.00000000061632,0.571106646645394
9300.0000000163,171.919160452778,1.00000000062034,0.571986731832212
9400.00000001667,178.289987752743,1.00000000061936,0.572564109224988
9500.00000001703,184.632710555455,1.0000000005985,0.572748520289565
9600.00000001739,190.916199980562,1.00000000061646,0.573468556689499
9700.00000001776,197.154562515725,1.00000000059771,0.573376015932577
9800.00000001812,203.328302953037,1.00000000059139,0.573970349406536
9900.00000001848,209.423991381219,1.00000000059134,0.573938856368634
10000.0000000188,215.452464283539,1.00000000059026,0.574211198387856
10100.0000000192,221.38250246129,1.00000000058665,0.574236643643063
10200.0000000196,227.226740070862,1.00000000056859,0.574338026566807
10300.0000000199,232.975143042629,1.00000000057179,0.574246823787571
10400.0000000203,238.609913075221,1.00000000054625,0.574345135689487
10500.0000000207,244.146524527713,1.00000000054547,0.574854061404904
10600.000000021,249.559141852248,1.00000000055288,0.573934890086345
10700.0000000214,254.854729310327,1.00000000053982,0.574613549454707
10800.0000000218,260.034198143592,1.00000000054962,0.574327138622707
10900.0000000221,265.075728140521,1.00000000054564,0.573262645731736
11000.0000000225,269.99644728771,1.00000000052414,0.574243791802982
11100.0000000229,274.778313003362,1.00000000051538,0.573259954046009
11200.0000000232,279.422785140657,1.00000000053263,0.572408067256441
11300.0000000236,283.93542746538,1.00000000051959,0.573220376241798
11400.0000000239,288.298950922155,1.00000000050713,0.571857828403976
11500.0000000243,292.525053388296,1.00000000052429,0.571773272626555
11600.0000000247,296.604844507939,1.00000000052071,0.572061123420447
11700.000000025,300.538510874863,1.00000000048974,0.570743490818209
11800.0000000254,304.330274200778,1.00000000048685,0.571091005582429
11900.0000000258,307.968595013218,1.00000000047609,0.57104382609032
12000.0000000261,311.465699230592,1.00000000047968,0.569595275889687
12100.0000000265,314.81312349295,1.00000000046862,0.57019281556062
12200.0000000269,318.012633355106,1.00000000046086,0.569263537536498
12300.0000000272,321.070199223469,1.00000000044414,0.568609373265884
12400.0000000276,323.973791539953,1.00000000045353,0.569122914949984
12500.0000000279,326.738125711763,1.00000000046065,0.568118249462921
12600.0000000283,329.356330230214,1.0000000004513,0.567407392774853
12700.0000000287,331.828247879977,1.00000000043963,0.567796079177605
12800.000000029,334.164373856857,1.00000000042783,0.566899481993096
12900.0000000294,336.35286598297,1.00000000043456,0.567038547943674
13000.0000000298,338.406630952508,1.00000000043478,0.566292463498053
13100.0000000301,340.324419455826,1.00000000041806,0.564860192526721
13200.0000000305,342.100960530538,1.00000000040639,0.565945179639287
13300.0000000309,343.750832578721,1.00000000041044,0.56711672453807
13400.0000000312,345.266831156682,1.00000000041169,0.565231689429321
13500.0000000316,346.654855515012,1.00000000039512,0.562778752499507
13600.0000000319,347.916081015155,1.00000000039695,0.563161198601152
13700.0000000323,349.050062082093,1.00000000040102,0.566118333400366
13800.0000000327,350.069351395412,1.00000000040224,0.566561206127068
13900.000000033,350.969679089609,1.00000000039849,0.56355445429307
14000.0000000334,351.753502363914,1.00000000036955,0.560069803239675
14100.0000000338,352.421721807269,1.00000000037067,0.560838509479369
14200.0000000341,352.9754443569,1.00000000038228,0.566597175137222
14300.0000000345,353.433640773435,1.00000000039067,0.568520116612425
14400.0000000349,353.794133744831,1.00000000037644,0.562929855953637
14500.0000000352,354.051405125522,1.00000000035341,0.555680719761544
14600.0000000356,354.203679887391,1.00000000034137,0.555840238347353
14700.0000000359,354.25525564678,1.00000000036839,0.565795764796453
14800.0000000363,354.231205876017,1.00000000039803,0.570761182921378
14900.0000000367,354.135287491246,1.00000000039031,0.564498902529805
15000.000000037,353.957936041368,1.00000000035881,0.553948467850624
15100.0000000374,353.688295066674,1.00000000031152,0.547359417751418
15200.0000000378,353.327174244857,1.00000000036169,0.557899800465126
15300.0000000381,352.901899925111,1.00000000039154,0.570436614801003
15400.0000000385,352.432329499105,1.00000000040928,0.572135446691407
15500.0000000389,351.910930548288,1.00000000036549,0.557692367769236
15600.0000000392,351.324964732113,1.00000000032588,0.543796800057046
15700.0000000396,350.653010672587,1.00000000028756,0.539423232304562
15800.0000000399,349.912874001622,1.00000000035016,0.557071013760176
15900.0000000403,349.132669255528,1.00000000042966,0.574932782403064
16000.0000000407,348.333935034375,1.00000000044641,0.572924122055584
16100.000000041,347.507665021565,1.00000000038041,0.554208724733325
16200.0000000414,346.625931530097,1.00000000030469,0.533835332681669
16300.0000000418,345.674326229024,1.00000000027403,0.527437594402473
16400.0000000418,344.662487480371,1.00000000034032,0.547681868981133
16500.0000000404,343.624320926039,1.0000000004349,0.573601230395203
16600.0000000389,342.586689565598,1.00000000046036,0.577221546879839
16700.0000000375,341.543206183678,1.00000000042212,0.560311403663367
16800.000000036,340.472422645073,1.00000000032086,0.532056489813428
16900.0000000346,339.346258326195,1.00000000026325,0.513996788121213
17000.0000000331,338.162405891306,1.00000000028277,0.522459437586398
17100.0000000317,336.946734063459,1.00000000040475,0.555199134712554
17200.0000000302,335.730363158145,1.0000000004854,0.579135056028654
17300.0000000287,334.53060656001,1.00000000050427,0.575995070998066
17400.0000000273,333.337035740088,1.00000000040807,0.550587779213322
17500.0000000258,332.119954545297,1.00000000030915,0.517928267118642
17600.0000000244,330.859158380334,1.00000000024762,0.499854155323257
17700.0000000229,329.550553297214,1.0000000002752,0.509799150042027
17800.0000000215,328.220221290815,1.00000000040618,0.547849357847325
17900.00000002,326.897889326918,1.00000000049486,0.576982692596154
18000.0000000186,325.598578509109,1.00000000052952,0.579484914243965
18100.0000000171,324.318802148111,1.00000000045648,0.557094813282473
18200.0000000156,323.033601618844,1.0000000003503,0.522119565771382
18300.0000000142,321.721702110187,1.00000000026046,0.494903860489036
18400.0000000127,320.371957342558,1.00000000024784,0.490424545553783
18500.0000000113,318.994084751216,1.00000000032304,0.516858020827398
18600.0000000098,317.614244210424,1.00000000046658,0.556883430048898
18700.0000000084,316.252787601205,1.00000000053185,0.57936179268965
18800.0000000069,314.918225709783,1.00000000051367,0.574912508618503
18900.0000000055,313.603045659691,1.00000000044974,0.549400656805889
19000.000000004,312.286899644264,1.00000000034455,0.514378928955089
19100.0000000026,310.953891067386,1.00000000027344,0.487675531601153
19200.0000000011,309.594056803818,1.00000000024667,0.483993199135828
19299.9999999996,308.215522113678,1.00000000032215,0.504460949237752
19399.9999999982,306.834303457376,1.00000000043167,0.539280173081253
19499.9999999967,305.466167415525,1.00000000050818,0.567979290311999
19599.9999999953,304.122545908805,1.00000000052216,0.574792778093541
19699.9999999938,302.802329641087,1.00000000049854,0.559704934245441
19799.9999999924,301.494373998197,1.0000000004051,0.529577805005543
19899.9999999909,300.185324685525,1.00000000033098,0.498695221595645
19999.9999999895,298.863573829398,1.00000000027876,0.483097508929136
20099.999999988,297.529515769861,1.00000000028534,0.486372179574767
20199.9999999865,296.186442523627,1.00000000031199,0.502821793880262
20299.9999999851,294.844201181596,1.00000000039128,0.528453554958395
20399.9999999836,293.514481042656,1.00000000047624,0.555097589771844
20499.9999999822,292.203473910086,1.00000000051314,0.56630268936451
20599.9999999807,290.912765823735,1.00000000049572,0.556943694801174
20699.9999999793,289.637150114404,1.00000000044103,0.534531828322081
20799.9999999778,288.367462312744,1.00000000036868,0.510274622370507
20899.9999999764,287.098354318138,1.00000000031272,0.493523478380478
20999.9999999749,285.82482130624,1.00000000029194,0.487822561944639
21099.9999999734,284.548969663922,1.00000000030195,0.491823305607018
21199.999999972,283.272373445733,1.00000000035315,0.503833578485362
21299.9999999705,282.000274274518,1.00000000039798,0.522325071256216
21399.9999999691,280.739044291216,1.00000000043831,0.5397000961807
21499.9999999676,279.49186594015,1.00000000048322,0.550550867102192
21599.9999999662,278.259559339311,1.00000000047991,0.548049076808291
21699.9999999647,277.040890651025,1.00000000045623,0.535311982072777
21799.9999999633,275.831273485982,1.00000000040492,0.520457823121673
21899.9999999618,274.628319315475,1.00000000037503,0.506498394786288
21999.9999999603,273.428709312672,1.00000000032757,0.496862902900716
22099.9999999589,272.232271550866,1.00000000032271,0.495174517047169
22199.9999999574,271.039218200314,1.00000000032722,0.498213284414812
22299.999999956,269.850380373359,1.00000000035873,0.504705532668678
22399.9999999545,268.66843079468,1.00000000036516,0.513774694217126
22499.9999999531,267.494837570805,1.00000000040636,0.523054515947221
22599.9999999516,266.331360232822,1.00000000043902,0.531510304241667
22699.9999999502,265.179252384358,1.0000000004573,0.535188741255162
22799.9999999487,264.037542733174,1.00000000045909,0.534011530991802
22899.9999999473,262.905607502882,1.00000000041712,0.526540233637649
22999.9999999458,261.782271934952,1.0000000003959,0.518306052637333
23099.9999999443,260.66636979825,1.00000000036819,0.512492300514516
23199.9999999429,259.558029581253,1.00000000035708,0.509327421997111
23299.9999999414,258.456575212518,1.00000000033303,0.505934752438737
23399.99999994,257.362811675193,1.0000000003387,0.504719920583477
23499.9999999385,256.275878013853,1.00000000033959,0.502651019719294
23599.9999999371,255.196508639574,1.00000000034,0.503627016539855
23699.9999999356,254.125389938643,1.00000000036784,0.50757760318457
23799.9999999342,253.062777659315,1.00000000039178,0.514080928149417
23899.9999999327,252.009122595574,1.00000000042363,0.521233548353639
23999.9999999312,250.964480490848,1.00000000043455,0.526301976794088
24099.9999999298,249.928058707855,1.00000000042764,0.531071791437359
24199.9999999283,248.900274263675,1.00000000038863,0.527172175905339
24299.9999999269,247.880653390104,1.00000000039021,0.522955355368676
24399.9999999254,246.86941838052,1.0000000003753,0.52111338354524
24499.999999924,245.86665074673,1.00000000037754,0.523843665455495
24599.9999999225,244.872604178161,1.00000000038098,0.522253774320626
24699.9999999211,243.887765030849,1.00000000036383,0.516838047861325
24799.9999999196,242.911888736183,1.00000000034292,0.507537548899639
24899.9999999181,241.945809746238,1.00000000031019,0.497679958443474
24999.9999999167,240.98934300519,1.00000000032543,0.492722569567605
25099.9999999152,240.042605366369,1.00000000034424,0.495717422730331
25199.9999999138,239.105254735851,1.00000000038435,0.503150313625559
25299.9999999123,238.176302378738,1.00000000041156,0.513780310332046
25399.9999999109,237.254340592523,1.00000000043767,0.522488200210917
25499.9999999094,236.339156810904,1.00000000044251,0.525090008097053
25599.999999908,235.430666492358,1.00000000040293,0.528579159692994
25699.9999999065,234.53003344801,1.00000000038114,0.525475002915149
25799.9999999051,233.637448966724,1.0000000003628,0.521880093358831
25899.9999999036,232.752674808338,1.00000000039136,0.526433901244583
25999.9999999021,231.875114375911,1.00000000041611,0.536596879226932
26099.9999999007,231.004740074002,1.00000000042222,0.534780607384649
26199.9999998992,230.142655284888,1.00000000040017,0.524759533641888
26299.9999998978,229.289820791132,1.00000000036436,0.512067098814391
26399.9999998963,228.448583558821,1.00000000030648,0.494525355485647
26499.9999998949,227.620073928498,1.00000000028197,0.482080711914145
26599.9999998934,226.804697382799,1.00000000028585,0.478504965425639
26699.999999892,226.001379551814,1.00000000034608,0.485992058074536
26799.9999998905,225.20754650479,1.0000000003981,0.498785233475712
26899.999999889,224.420140125367,1.00000000044316,0.511582054290288
26999.9999998876,223.637088639073,1.00000000044223,0.517317846131464
27099.9999998861,222.857694024615,1.0000000004413,0.518700788572245
27199.9999998847,222.082802298541,1.00000000040392,0.521288883697689
27299.9999998832,221.314464003231,1.00000000035316,0.522791153869463
27399.9999998818,220.553501128038,1.00000000036257,0.523481037504601
27499.9999998803,219.79916192547,1.00000000038952,0.522543795937587
27599.9999998789,219.050168472118,1.00000000041445,0.531986333492926
27699.9999998774,218.305025341973,1.00000000044595,0.543793854154529
27799.9999998759,217.563727534581,1.00000000043308,0.539776269411615
27899.9999998745,216.828448549174,1.00000000040915,0.5265338180903
27999.999999873,216.10170530358,1.0000000003704,0.511474167213215
28099.9999998716,215.386783012408,1.00000000031,0.494481138955873
28199.9999998701,214.687085347232,1.00000000027614,0.478263720698062
28299.9999998687,214.003538932847,1.00000000027057,0.470148723427268
28399.9999998672,213.335332675834,1.00000000031385,0.473421989944084
28499.9999998658,212.679000838678,1.00000000036943,0.484105307253128
28599.9999998643,212.030510392943,1.00000000040847,0.497053045062798
28699.9999998629,211.386118123054,1.00000000045172,0.508059090723609
28799.9999998614,210.743590039017,1.00000000045795,0.512944069814608
28899.9999998599,210.102001725548,1.00000000044986,0.513309774911872
