Time,AGPnorm,Energy,Entropy
0,0,1,-1.0471200384345e-17
99.9999999999986,5.0757096957352e-05,1.00000000000331,0.00190236207374054
199.999999999993,0.00417715880206137,1.00000000000136,0.00296328404585851
300,0.0105342131005741,1.00000000000117,0.00533169821867847
400.000000000022,0.0145696942152946,1.00000000000346,0.00889527948572548
500.000000000045,0.0179567454178966,1.00000000000001,0.011969345253572
600.000000000068,0.0255500542421902,1.00000000000298,0.0166318573830616
700.000000000091,0.0315740666149301,1.00000000000182,0.0210686406035426
800.000000000113,0.0402991917352855,1.00000000000082,0.0261195199181152
900.000000000136,0.0499342377719072,1.0000000000036,0.0319138872108456
1000.00000000016,0.0581041792267347,1.00000000000013,0.0374958567249086
1100.0000000001,0.0686816809099728,1.0000000000026,0.0440969854356141
1200,0.0800803873752669,1.0000000000023,0.0507376830806962
1299.99999999991,0.0919544947593869,1.00000000000052,0.0578971931205613
1399.99999999982,0.104430014901752,1.00000000000356,0.0657229669402478
1499.99999999973,0.116303709702654,1.00000000000041,0.073531972673434
1599.99999999964,0.129048274933543,1.0000000000022,0.0823307489677152
1699.99999999955,0.142944603191357,1.00000000000276,0.0914422580553928
1799.99999999946,0.1566171583614,1.00000000000031,0.101181834700805
1899.99999999937,0.170272168442326,1.0000000000034,0.11186525485644
1999.99999999928,0.184114763845996,1.00000000000083,0.122945785954609
2099.99999999919,0.197817032099836,1.00000000000192,0.13548182934087
2199.99999999909,0.212199045534342,1.00000000000377,0.149190120544586
2299.999999999,0.226086041399756,1.0000000000033,0.164404180710383
2399.99999999891,0.23990135833608,1.00000000001342,0.182011578587222
2499.99999999882,0.252323046429625,1.00000000003043,0.201265497598162
2599.99999999873,0.267946720645921,1.0000000000679,0.222376818063691
2699.99999999864,0.282560399749765,1.00000000012289,0.244347178219645
2799.99999999855,0.297238306531049,1.00000000019059,0.265953376254856
2899.99999999846,0.33008751448585,1.00000000028093,0.287870695431697
2999.99999999837,0.360102341494576,1.0000000003812,0.308726077094166
3099.99999999828,0.429526438792853,1.00000000048283,0.329346669197772
3199.99999999819,0.533612589714924,1.00000000058732,0.349250011562147
3299.99999999809,0.679099518049492,1.00000000067356,0.36809919132944
3399.999999998,0.919740515025938,1.00000000079236,0.386351352918451
3499.99999999791,1.2282464217098,1.00000000089686,0.403349183762155
3599.99999999782,1.66610072311861,1.0000000009718,0.41974443243067
3699.99999999773,2.23798939531603,1.00000000105477,0.435186066914685
3799.99999999764,2.9503744694487,1.00000000113958,0.449328305002867
3899.99999999755,3.85422262120989,1.0000000012048,0.463110608930662
3999.99999999746,4.92599986900641,1.00000000124774,0.475490232672923
4099.99999999738,6.21331046360858,1.00000000125829,0.487312231668761
4199.99999999775,7.70600473813893,1.00000000131337,0.498337237532341
4299.99999999811,9.41244580096529,1.00000000143184,0.507756074181075
4399.99999999848,11.352710223124,1.00000000141967,0.517480275611122
4499.99999999884,13.495252501447,1.00000000143137,0.52590903485174
4599.9999999992,15.8789383362681,1.0000000014631,0.533715609449819
4699.99999999957,18.4621175083848,1.00000000145412,0.541263541363656
4799.99999999993,21.2538390349443,1.00000000143066,0.547558287978835
4900.00000000029,24.2559232311174,1.00000000149685,0.55369715952442
5000.00000000066,27.4160076298995,1.00000000151623,0.559353042182087
5100.00000000102,30.7771728963623,1.00000000147972,0.564057755372059
5200.00000000139,34.277140478546,1.00000000148384,0.569200634989842
5300.00000000175,37.9157561688391,1.0000000014714,0.573082199127997
5400.00000000211,41.700938988529,1.00000000143147,0.577025013148685
5500.00000000248,45.5594784897837,1.00000000143308,0.580672312388686
5600.00000000284,49.5386781008532,1.00000000148626,0.58303031140316
5700.00000000321,53.5786733907109,1.00000000143758,0.58618948021769
5800.00000000357,57.6621994689575,1.00000000139564,0.588740587242738
5900.00000000393,61.8142358908178,1.00000000143307,0.590468660317094
6000.0000000043,65.9543961613249,1.00000000138911,0.592952756525507
6100.00000000466,70.1251044270195,1.00000000142506,0.59380874393377
6200.00000000502,74.2847673882636,1.00000000135617,0.595734762674077
6300.00000000539,78.4014139381018,1.00000000135569,0.596996475156789
6400.00000000575,82.5117096544419,1.0000000012978,0.597443293774139
6500.00000000612,86.5441618582004,1.00000000126135,0.598815891228112
6600.00000000648,90.5293693031487,1.00000000129084,0.598809103583791
6700.00000000684,94.4474501512439,1.00000000125269,0.599851699757643
6800.00000000721,98.2597999039342,1.00000000122081,0.600400675453914
6900.00000000757,102.007259325968,1.00000000121268,0.600080655303404
7000.00000000793,105.633748546809,1.00000000122449,0.600554555235763
7100.0000000083,109.158635972823,1.00000000117327,0.600434627281279
7200.00000000866,112.578091575436,1.00000000121071,0.600336053672531
7300.00000000903,115.855819270614,1.00000000114402,0.600756328232534
7400.00000000939,119.029090602026,1.00000000116127,0.600244098460599
7500.00000000975,122.059355292805,1.00000000109323,0.599953831120386
7600.00000001012,124.957695838707,1.00000000113252,0.600138388342049
7700.00000001048,127.72937015866,1.00000000107155,0.599208086178566
7800.00000001084,130.346111656331,1.000000001069,0.599621691808661
7900.00000001121,132.837682206622,1.00000000105882,0.598405380924413
8000.00000001157,135.183385195078,1.00000000103431,0.598523787551098
8100.00000001194,137.383985831611,1.00000000101954,0.598266360825069
8200.0000000123,139.457160856708,1.00000000100919,0.596880741602089
8300.00000001266,141.372864452533,1.00000000097715,0.597983670702485
8400.00000001303,143.164247726165,1.00000000096391,0.596064787888107
8500.00000001339,144.810654845857,1.00000000097077,0.596230914140387
8600.00000001376,146.320291203055,1.00000000094417,0.595870840910381
8700.00000001412,147.702448398036,1.00000000092506,0.594530536119009
8800.00000001448,148.943185495503,1.00000000090499,0.595783859937508
8900.00000001485,150.062164896937,1.00000000089643,0.59355439823566
9000.00000001521,151.053453455465,1.00000000089024,0.59420288249573
9100.00000001557,151.917396042749,1.00000000087976,0.594210440954103
9200.00000001594,152.669602186356,1.00000000083791,0.592480422849987
9300.0000000163,153.296238714434,1.00000000085006,0.5941303647997
9400.00000001667,153.818888539976,1.00000000085982,0.592700777079586
9500.00000001703,154.230984704117,1.00000000077732,0.590542087214172
9600.00000001739,154.536351407835,1.00000000083385,0.595465041480887
9700.00000001776,154.752845193409,1.0000000008114,0.589202344373107
9800.00000001812,154.864795031993,1.00000000076081,0.589951794508552
9900.00000001848,154.897367959743,1.0000000007989,0.594229473916171
10000.0000000188,154.84823303035,1.00000000075807,0.584653738855672
10100.0000000192,154.712215051153,1.00000000074976,0.58877726806768
10200.0000000196,154.515054027755,1.00000000082224,0.592906436092321
10300.0000000199,154.246211051626,1.00000000075037,0.580972590278083
10400.0000000203,153.909571747584,1.00000000077775,0.586370889473791
10500.0000000207,153.521081934585,1.00000000086171,0.592400525102343
10600.000000021,153.078823657786,1.00000000075745,0.578760871221161
10700.0000000214,152.578898023957,1.00000000077704,0.580077197163051
10800.0000000218,152.034694852992,1.00000000090102,0.591724882685058
10900.0000000221,151.458016884755,1.00000000080278,0.579463229836885
11000.0000000225,150.831593735776,1.00000000073254,0.570762240254451
11100.0000000229,150.168408244994,1.00000000089314,0.588478785097153
11200.0000000232,149.488739624283,1.00000000084901,0.582653214211947
11300.0000000236,148.773648838982,1.00000000075848,0.564772321555286
11400.0000000239,148.026558468062,1.00000000081176,0.578393146761012
11500.0000000243,147.266247311248,1.00000000091005,0.583159878577015
11600.0000000247,146.489653117091,1.00000000081629,0.5734197423879
11700.000000025,145.688681901366,1.00000000075911,0.561482190501562
11800.0000000254,144.866444666649,1.00000000089607,0.581114227601287
11900.0000000258,144.040548199534,1.0000000008963,0.575872524663783
12000.0000000261,143.206815109136,1.0000000008393,0.568186029339512
12100.0000000265,142.354262084954,1.00000000077101,0.559600670447366
12200.0000000269,141.492589222061,1.00000000085575,0.574950391898217
12300.0000000272,140.629784208077,1.00000000090601,0.572930702174081
12400.0000000276,139.765820209931,1.00000000084108,0.563404887993092
12500.0000000279,138.892977691199,1.00000000080628,0.558764009104849
12600.0000000283,138.011252234578,1.00000000082654,0.563609900450537
12700.0000000287,137.133840228242,1.00000000097198,0.57543247649006
12800.000000029,136.259354621266,1.00000000080347,0.554755678954422
12900.0000000294,135.382724531452,1.00000000083503,0.560696704627724
13000.0000000298,134.50393340795,1.00000000080189,0.555322666475534
13100.0000000301,133.62402760285,1.00000000087386,0.567968755852682
13200.0000000305,132.753537250528,1.00000000091464,0.562560611404484
13300.0000000309,131.88508633079,1.00000000080133,0.545239842004978
13400.0000000312,131.018542133894,1.00000000089335,0.561817143712611
13500.0000000316,130.154609153962,1.00000000084834,0.554181524801963
13600.0000000319,129.294002260171,1.00000000091109,0.564198551746481
13700.0000000323,128.442911438734,1.00000000091118,0.555626743074388
13800.0000000327,127.595579134755,1.0000000008123,0.538361407281396
13900.000000033,126.752881751873,1.0000000008909,0.557754568779173
14000.0000000334,125.915893414718,1.00000000089621,0.55947035963453
14100.0000000338,125.083744302612,1.000000000904,0.554397707578314
14200.0000000341,124.260048410888,1.00000000089469,0.554661802387244
14300.0000000345,123.442697767243,1.00000000083755,0.539686753438127
14400.0000000349,122.630871306942,1.00000000081978,0.541521412319188
14500.0000000352,121.826444215768,1.00000000090044,0.561879075691916
14600.0000000356,121.028364170821,1.00000000087279,0.557811422275467
14700.0000000359,120.238135760201,1.000000000878,0.548952482476068
14800.0000000363,119.454909613196,1.00000000087016,0.545818238435246
14900.0000000367,118.678617782777,1.00000000084919,0.540175642091098
15000.000000037,117.909936139305,1.00000000085611,0.540455314464942
15100.0000000374,117.148644817856,1.0000000009153,0.557922830363951
15200.0000000378,116.395861170883,1.00000000087933,0.56116934524723
15300.0000000381,115.650251347937,1.00000000085943,0.548659273930279
15400.0000000385,114.911940731165,1.00000000083242,0.543505353741213
15500.0000000389,114.18153409053,1.00000000083807,0.542576538752673
15600.0000000392,113.458648097892,1.00000000089746,0.545920267468884
15700.0000000396,112.744385924175,1.00000000083786,0.546508281941299
15800.0000000399,112.038392841159,1.0000000008566,0.559175214637427
15900.0000000403,111.340468654778,1.00000000087433,0.558585193901163
16000.0000000407,110.650552172521,1.00000000082688,0.54642735401653
16100.000000041,109.968316696982,1.00000000081136,0.542376910898298
16200.0000000414,109.29442722466,1.00000000081539,0.547475684464387
16300.0000000418,108.62884144323,1.00000000084786,0.551590108924308
16400.0000000418,107.971704030908,1.00000000083482,0.54712973200907
16500.0000000404,107.323297791466,1.00000000083398,0.555224964984806
16600.0000000389,106.683076695496,1.00000000087988,0.560668845113449
16700.0000000375,106.051655806324,1.00000000080777,0.547455998248788
16800.000000036,105.428583106835,1.00000000081403,0.542371794944064
16900.0000000346,104.813593848209,1.00000000089214,0.548576817205376
17000.0000000331,104.20717682152,1.00000000083505,0.548846131246006
17100.0000000317,103.609006925359,1.00000000084151,0.553274320288169
17200.0000000302,103.018928115475,1.00000000084818,0.552309164639827
17300.0000000287,102.436763656097,1.00000000087278,0.553365644489783
17400.0000000273,101.863146346501,1.00000000084671,0.557111389669009
17500.0000000258,101.29891210163,1.00000000077109,0.54770377459739
17600.0000000244,100.743765976752,1.00000000079363,0.538307116089068
17700.0000000229,100.196425675498,1.00000000094315,0.547138917164149
17800.0000000215,99.6564765005278,1.00000000083072,0.54428915721179
17900.00000002,99.1249287660357,1.00000000082088,0.550078338457811
18000.0000000186,98.6005086882809,1.00000000088125,0.559235843834826
18100.0000000171,98.0823347324078,1.00000000090163,0.558838022946347
18200.0000000156,97.5711554753716,1.00000000090005,0.553531295447096
18300.0000000142,97.0683177367486,1.00000000081742,0.54999997779553
18400.0000000127,96.5762940690655,1.00000000076838,0.542599466145095
18500.0000000113,96.0935887365832,1.00000000082219,0.540160177511042
18600.0000000098,95.6184303425267,1.00000000087374,0.54130816318839
18700.0000000084,95.1494884769647,1.00000000086895,0.541842858009147
18800.0000000069,94.688193482174,1.00000000080969,0.542810096595407
18900.0000000055,94.2334475406439,1.00000000085121,0.553249065237241
19000.000000004,93.7826457800796,1.00000000092492,0.565655241563155
19100.0000000026,93.335970319107,1.00000000092464,0.560911012851395
19200.0000000011,92.8957950642663,1.0000000008681,0.548418460633856
19299.9999999996,92.4647357479887,1.00000000077216,0.543137645209893
19399.9999999982,92.0451365281302,1.0000000007812,0.541482842287729
19499.9999999967,91.6341060147506,1.00000000083805,0.542883121846914
19599.9999999953,91.2304798652428,1.00000000084333,0.537344391042157
19699.9999999938,90.8331846369819,1.00000000090336,0.539117683778591
19799.9999999924,90.4416979879068,1.00000000082298,0.536682710249609
19899.9999999909,90.0558281993245,1.00000000084568,0.547504760926402
19999.9999999895,89.6730111254625,1.00000000092278,0.553132995096721
20099.999999988,89.2912146927606,1.00000000096961,0.563474038819149
20199.9999999865,88.912142378538,1.00000000087886,0.559579564364924
20299.9999999851,88.5397410644125,1.00000000081673,0.541022846399375
20399.9999999836,88.1763261721558,1.00000000082612,0.539271565098637
20499.9999999822,87.8233085082293,1.00000000077519,0.543818490397066
20599.9999999807,87.4790733231445,1.00000000081499,0.539297401633804
20699.9999999793,87.1423609156901,1.00000000084299,0.537762367566089
20799.9999999778,86.8117427187974,1.00000000085727,0.534442045184457
20899.9999999764,86.4869520826355,1.00000000084933,0.535054287442637
20999.9999999749,86.1656366301982,1.00000000088594,0.539124767669123
21099.9999999734,85.8481447678106,1.00000000088412,0.54667033999164
21199.999999972,85.5316304678716,1.00000000096869,0.550191551086459
21299.9999999705,85.2144319651872,1.00000000092131,0.552025522184137
21399.9999999691,84.8984652242885,1.00000000088212,0.555682423791283
21499.9999999676,84.5869851149454,1.00000000084894,0.54710804636687
21599.9999999662,84.2831287595975,1.00000000080845,0.537091556878837
21699.9999999647,83.9879804110718,1.00000000079957,0.544476747090697
21799.9999999633,83.7013275275005,1.00000000080365,0.546823296629725
21899.9999999618,83.4233982268565,1.00000000080813,0.540908845983768
21999.9999999603,83.1528417738491,1.00000000083363,0.540016378933262
22099.9999999589,82.8885162416117,1.00000000083729,0.539264936846066
22199.9999999574,82.6283499774515,1.0000000008702,0.540038578080906
22299.999999956,82.3708828212691,1.00000000085957,0.541399545752775
22399.9999999545,82.1154633315247,1.00000000089261,0.548148999905059
22499.9999999531,81.8621615989849,1.00000000087951,0.54910879651868
22599.9999999516,81.6095714420817,1.00000000096931,0.550919760953725
22699.9999999502,81.3558573166083,1.00000000091593,0.550335695207743
22799.9999999487,81.1032560086426,1.00000000087066,0.554237021932129
22899.9999999473,80.8546667189864,1.00000000083448,0.554035758529524
22999.9999999458,80.6118410912335,1.00000000083028,0.54850507750904
23099.9999999443,80.3758756912395,1.00000000084059,0.547415896353749
23199.9999999429,80.1477767309443,1.00000000083905,0.550280567324752
23299.9999999414,79.9274147444381,1.00000000081282,0.548199192898689
23399.99999994,79.7165578311079,1.00000000078398,0.539566696721148
23499.9999999385,79.5128754567162,1.00000000084697,0.544820589985761
23599.9999999371,79.3124661169529,1.0000000008927,0.549531512860968
23699.9999999356,79.1148508952626,1.00000000085423,0.547192326235775
23799.9999999342,78.9194130232597,1.00000000087901,0.549895408880531
23899.9999999327,78.7253043065946,1.00000000088289,0.553706327431841
23999.9999999312,78.5327935446858,1.00000000086457,0.554471682028282
24099.9999999298,78.3421733512526,1.0000000008977,0.554764380851755
24199.9999999283,78.1516095754326,1.00000000094751,0.553363162074035
24299.9999999269,77.9604078918886,1.0000000008683,0.544965457983565
24399.9999999254,77.7707638047734,1.00000000088415,0.551296458488917
24499.999999924,77.5824496768451,1.00000000087981,0.559368812850738
24599.9999999225,77.3964085392347,1.00000000087895,0.560245041773668
24699.9999999211,77.2138461334328,1.00000000088641,0.557619671965313
24799.9999999196,77.0371280815734,1.00000000082467,0.553245689503888
24899.9999999181,76.8687460974875,1.00000000080478,0.547162628635724
24999.9999999167,76.7100203505526,1.0000000007831,0.543821006594825
25099.9999999152,76.5593263340631,1.00000000081163,0.543423296939392
25199.9999999138,76.4143040170046,1.00000000084251,0.549346337581298
25299.9999999123,76.2712403127437,1.00000000090833,0.557500642511755
25399.9999999109,76.1285674139266,1.00000000089617,0.556686490172215
25499.9999999094,75.9858350742241,1.0000000008953,0.559744083049964
25599.999999908,75.8434330386158,1.00000000090994,0.560184119270538
25699.9999999065,75.7006684184487,1.00000000089272,0.563034723112634
25799.9999999051,75.5585727931762,1.00000000087972,0.56292906228681
25899.9999999036,75.4193649474504,1.0000000008537,0.556715759852522
25999.9999999021,75.2827782885747,1.0000000008753,0.555081901762787
26099.9999999007,75.1472134519457,1.00000000086047,0.553315924707611
26199.9999998992,75.0117898165758,1.00000000091254,0.55637138606488
26299.9999998978,74.8742887817697,1.00000000093017,0.568871548446989
26399.9999998963,74.7344503517645,1.00000000093759,0.575922842318006
26499.9999998949,74.5948406373285,1.00000000092098,0.571268712359453
26599.9999998934,74.458426121486,1.00000000086273,0.561292864182367
26699.999999892,74.3284735121602,1.00000000081614,0.55319931534663
26799.9999998905,74.2067109898381,1.00000000076376,0.551772590438426
26899.999999889,74.0935110511275,1.0000000008202,0.549662706672347
26999.9999998876,73.9882486991747,1.00000000082204,0.54875991070309
27099.9999998861,73.8882641873359,1.00000000082497,0.556649590087884
27199.9999998847,73.7912088679776,1.00000000088735,0.565110842148678
27299.9999998832,73.6937560330495,1.00000000091625,0.566684705411815
27399.9999998818,73.5948157940585,1.00000000094426,0.568803833163758
27499.9999998803,73.4942779592373,1.00000000090574,0.570284782137755
27599.9999998789,73.3924739486596,1.0000000008879,0.56965065226506
27699.9999998774,73.2904094589514,1.00000000091571,0.569795498703351
27799.9999998759,73.1883962310859,1.00000000085184,0.568875652840209
27899.9999998745,73.0891050095787,1.00000000085792,0.5655566944143
27999.999999873,72.9931199376037,1.00000000084982,0.568594171507812
28099.9999998716,72.8989042515578,1.00000000086457,0.571325148084587
28199.9999998701,72.805050161422,1.00000000089107,0.572342982115348
28299.9999998687,72.7093971293368,1.00000000092755,0.578091511602026
28399.9999998672,72.6109025619052,1.00000000096134,0.582328821552614
28499.9999998658,72.5100689377188,1.00000000092668,0.583111710915163
28599.9999998643,72.4086668940991,1.00000000088527,0.581763993769964
28699.9999998629,72.3101341687093,1.00000000087991,0.576769407103011
28799.9999998614,72.2160076851414,1.00000000087143,0.572571275877592
28899.9999998599,72.1269040203649,1.00000000085147,0.567948372415953
28999.9999998585,72.0442557185544,1.00000000086651,0.564237168985401
