Time,AGPnorm,Energy,Entropy
0,0,1,-1.09316929442684e-17
99.9999999999986,6.53478859517872e-06,1.00000000000309,0.000335002364146362
199.999999999993,0.000564945528821782,0.999999999999843,0.00052450180006074
300,0.00145014215472406,1.00000000000175,0.000954478874187203
400.000000000022,0.00201859233242599,1.00000000000208,0.0016230122126595
500.000000000045,0.00245302076885283,0.999999999999648,0.00221042491856767
600.000000000068,0.00349378917174998,1.00000000000305,0.00312131396783148
700.000000000091,0.00438753129016297,1.00000000000027,0.00398780799433842
800.000000000113,0.00571964581390355,1.00000000000116,0.00497772979837676
900.000000000136,0.00712181861609571,1.00000000000257,0.00612429924011908
1000.00000000016,0.00829727098758749,0.999999999999473,0.0072371692495846
1100.0000000001,0.00997629378307394,1.00000000000281,0.00855205235788998
1200,0.0117705194899021,1.00000000000082,0.00984873439021462
1299.99999999991,0.0136927039663997,1.00000000000056,0.0112520740101445
1399.99999999982,0.0157178628447236,1.00000000000291,0.0127620218069013
1499.99999999973,0.0177566146419687,0.999999999999516,0.0142545625579865
1599.99999999964,0.0201740902541315,1.00000000000242,0.0159079583031164
1699.99999999955,0.0226294066304009,1.00000000000142,0.0175469383270129
1799.99999999946,0.0250634176924676,1.00000000000003,0.019290890091142
1899.99999999937,0.0276874230637317,1.00000000000308,0.0211118948114557
1999.99999999928,0.0305743495647146,0.999999999999779,0.0229159820322324
2099.99999999919,0.03369476198253,1.00000000000189,0.0248769746123684
2199.99999999909,0.0367046457013791,1.00000000000198,0.0268158648787128
2299.999999999,0.0396555431996798,0.999999999999652,0.0288530485509679
2399.99999999891,0.0428559045984939,1.00000000000307,0.03096518697705
2499.99999999882,0.0464216882935744,1.00000000000022,0.0330532273562535
2599.99999999873,0.0500892024419961,1.00000000000127,0.0353068673025451
2699.99999999864,0.0536055906958661,1.00000000000244,0.0375274998340626
2799.99999999855,0.0571726145695186,0.999999999999475,0.0398311613584394
2899.99999999846,0.0609478409763361,1.0000000000029,0.0422342692881684
2999.99999999837,0.0649649811420997,1.00000000000078,0.0446011600983299
3099.99999999828,0.0689773159084082,1.00000000000064,0.0471408383871007
3199.99999999819,0.0729399748250534,1.00000000000278,0.0496462452962132
3299.99999999809,0.0771768541274718,0.99999999999953,0.0522153523158698
3399.999999998,0.0815040506936181,1.00000000000253,0.0549214971814689
3499.99999999791,0.0858193969014544,1.00000000000134,0.0575763140280973
3599.99999999782,0.0900606097239331,1.0000000000001,0.0604017829817899
3699.99999999773,0.0943976387840657,1.00000000000298,0.0632165391284543
3799.99999999764,0.0991900943878261,0.999999999999802,0.0660758570151398
3899.99999999755,0.103954528717636,1.00000000000198,0.0691084326716507
3999.99999999746,0.108505331067768,1.00000000000185,0.0720756066027328
4099.99999999738,0.113013190033482,0.999999999999741,0.0752039150102035
4199.99999999775,0.117681422919076,1.00000000000305,0.0783738901855682
4299.99999999811,0.12278654742608,1.00000000000025,0.0815652081818196
4399.99999999848,0.127779399341499,1.00000000000132,0.0849636885043678
4499.99999999884,0.132529424695286,1.00000000000224,0.0882946373770372
4599.9999999992,0.137403838848886,0.999999999999588,0.0917762471833113
4699.99999999957,0.142383476417574,1.00000000000296,0.0953687959269129
4799.99999999993,0.147577705969979,1.00000000000078,0.0989629229497305
4900.00000000029,0.152599649286245,1.0000000000007,0.102786649630952
5000.00000000066,0.157503064951185,1.00000000000256,0.106574772345117
5100.00000000102,0.162745136048423,0.999999999999634,0.110509001943792
5200.00000000139,0.167982618858767,1.00000000000261,0.114635539075
5300.00000000175,0.173130975031358,1.00000000000131,0.118749800186692
5400.00000000211,0.178116571544915,1.00000000000024,0.123113341146321
5500.00000000248,0.183151063072205,1.00000000000285,0.127519476191438
5600.00000000284,0.188593863260652,0.999999999999942,0.132085976775232
5700.00000000321,0.19395687641372,1.00000000000212,0.136932507018703
5800.00000000357,0.198998367984792,1.00000000000185,0.141785956156847
5900.00000000393,0.204022774364811,1.00000000000013,0.146926769618211
6000.0000000043,0.209235310135925,1.00000000000328,0.152235909468494
6100.00000000466,0.214635441705299,1.00000000000081,0.157727701325403
6200.00000000502,0.220042058014509,1.00000000000207,0.163601390535467
6300.00000000539,0.22502127553901,1.0000000000031,0.169539080134342
6400.00000000575,0.230198761404665,1.00000000000145,0.175806473171693
6500.00000000612,0.235929746781774,1.00000000000521,0.182356759299703
6600.00000000648,0.24122453474911,1.00000000000407,0.189058341800955
6700.00000000684,0.247173800268974,1.00000000000507,0.196151407706738
6800.00000000721,0.252979771993231,1.00000000000822,0.20330893064403
6900.00000000757,0.259197277821827,1.00000000000758,0.210713799423361
7000.00000000793,0.267632151339373,1.00000000001244,0.218367870433433
7100.0000000083,0.275227985046729,1.00000000001407,0.225974450628651
7200.00000000866,0.285884277377188,1.00000000001567,0.233814379350535
7300.00000000903,0.298893082724383,1.00000000002137,0.241594137400616
7400.00000000939,0.313982361431751,1.00000000002202,0.249412886950469
7500.00000000975,0.336777049214003,1.0000000000283,0.257368343081408
7600.00000001012,0.362188899364603,1.00000000003298,0.26504364168322
7700.00000001048,0.397843909866458,1.00000000003479,0.272788111475445
7800.00000001084,0.444675588374068,1.00000000004306,0.280372506420013
7900.00000001121,0.501545154758276,1.00000000004617,0.287855462108436
8000.00000001157,0.579512664818473,1.00000000005168,0.295376561696261
8100.00000001194,0.672988409462549,1.0000000000571,0.30256049748623
8200.0000000123,0.793126440519127,1.00000000006034,0.30971879540338
8300.00000001266,0.943527984089906,1.00000000006899,0.316750137779815
8400.00000001303,1.12332814572411,1.00000000007202,0.323553649664599
8500.00000001339,1.3489512991057,1.00000000007954,0.330347413075703
8600.00000001376,1.61503946686294,1.00000000008699,0.336857627920564
8700.00000001412,1.93603995675105,1.00000000008917,0.343327578620202
8800.00000001448,2.31760565001166,1.00000000009455,0.349755300605412
8900.00000001485,2.76003711309529,1.00000000009665,0.3558532939779
9000.00000001521,3.28422530950901,1.00000000010518,0.361904459740422
9100.00000001557,3.88353244697103,1.00000000011473,0.367745320468032
9200.00000001594,4.57608127874949,1.0000000001179,0.373491324496674
9300.0000000163,5.36847425145585,1.00000000012169,0.379267243667765
9400.00000001667,6.26082301615241,1.00000000012591,0.384650482688145
9500.00000001703,7.27811726795738,1.00000000012853,0.390053517050004
9600.00000001739,8.40956389786767,1.00000000014318,0.395224651556278
9700.00000001776,9.67734158246211,1.00000000013885,0.400280571254425
9800.00000001812,11.0885623928659,1.00000000014854,0.405348956605939
9900.00000001848,12.6391706469095,1.00000000014944,0.410067353811896
10000.0000000188,14.3593978473397,1.00000000015133,0.414812288175887
10100.0000000192,16.2320827991844,1.00000000016575,0.41937528327345
10200.0000000196,18.2816273398501,1.00000000016285,0.42379095576145
10300.0000000199,20.5169329457867,1.00000000017321,0.428152849447174
10400.0000000203,22.9249512465185,1.00000000016686,0.432336077690839
10500.0000000207,25.5427215674447,1.00000000017476,0.436384907882597
10600.000000021,28.3469983821281,1.00000000018179,0.440441353268807
10700.0000000214,31.3589553193235,1.00000000017744,0.444247348847689
10800.0000000218,34.5930623125132,1.00000000019035,0.447943347947754
10900.0000000221,38.0229482230559,1.00000000017983,0.451684983591148
11000.0000000225,41.6928365123553,1.00000000018598,0.455142156598358
11100.0000000229,45.5767248665524,1.00000000019272,0.458618876309903
11200.0000000232,49.6850069931252,1.00000000019036,0.461876657194449
11300.0000000236,54.0426147799044,1.00000000020108,0.465071942224504
11400.0000000239,58.6078895914118,1.0000000001906,0.46834612405909
11500.0000000243,63.4294771181734,1.00000000019995,0.471232532470966
11600.0000000247,68.4841667891028,1.00000000019423,0.474239417418868
11700.000000025,73.765099922402,1.00000000020761,0.476940711607114
11800.0000000254,79.3104739924474,1.0000000002107,0.479707983822318
11900.0000000258,85.0662954996427,1.00000000019872,0.482500147463729
12000.0000000261,91.0790664673351,1.00000000021006,0.484903147631653
12100.0000000265,97.3342035985762,1.00000000019789,0.487548666885103
12200.0000000269,103.804727368274,1.0000000002166,0.48975559884509
12300.0000000272,110.541165356755,1.00000000021753,0.492034971884394
12400.0000000276,117.484145149625,1.00000000020247,0.49447479528364
12500.0000000279,124.668916273896,1.00000000022211,0.496336881000056
12600.0000000283,132.095201481464,1.00000000020584,0.498601437237818
12700.0000000287,139.716796412834,1.00000000022643,0.500550188042944
12800.000000029,147.592871040032,1.00000000021504,0.502350332512437
12900.0000000294,155.665743891347,1.00000000021337,0.504349977441576
13000.0000000298,163.952140125396,1.00000000022553,0.505964942818364
13100.0000000301,172.470661868254,1.00000000022238,0.507641908840649
13200.0000000305,181.158131978354,1.00000000021421,0.509537935529672
13300.0000000309,190.075881582356,1.00000000022137,0.510887185551879
13400.0000000312,199.176439529144,1.00000000021484,0.512457732166895
13500.0000000316,208.453415598609,1.00000000022205,0.513917189640367
13600.0000000319,217.944238431905,1.00000000021863,0.515150771249653
13700.0000000323,227.575478016602,1.00000000021672,0.516688044930632
13800.0000000327,237.401897328771,1.00000000022264,0.517752817393794
13900.000000033,247.394370406347,1.00000000022478,0.518936786377144
14000.0000000334,257.521410092917,1.00000000021171,0.520274923722815
14100.0000000338,267.835115114557,1.0000000002217,0.521148522927987
14200.0000000341,278.262020199236,1.00000000021588,0.522412776483313
14300.0000000345,288.840999422559,1.00000000021806,0.523254176782548
14400.0000000349,299.564596793692,1.00000000021827,0.524170689996493
14500.0000000352,310.380734011168,1.00000000021005,0.525309460226164
14600.0000000356,321.350427779338,1.00000000021719,0.525927525007828
14700.0000000359,332.406545280597,1.00000000021855,0.526745389660302
14800.0000000363,343.567960944901,1.00000000021916,0.527536102630464
14900.0000000367,354.850035403259,1.00000000021172,0.528122041887117
15000.000000037,366.185667381093,1.00000000021166,0.528943726868295
15100.0000000374,377.635699871349,1.00000000021415,0.529632459518617
15200.0000000378,389.149316161322,1.00000000020809,0.530190193018962
15300.0000000381,400.720567092031,1.00000000021005,0.53069239682126
15400.0000000385,412.383121755139,1.00000000021218,0.531142945586316
15500.0000000389,424.065972299997,1.00000000020189,0.531796373455472
15600.0000000392,435.821396211157,1.00000000020696,0.532072259483911
15700.0000000396,447.616374081672,1.00000000021246,0.532586303624737
15800.0000000399,459.42623977132,1.0000000002137,0.533096744625804
15900.0000000403,471.296582061284,1.00000000020394,0.533122760288982
16000.0000000407,483.158044530293,1.00000000020895,0.533527603027789
16100.000000041,495.048817017021,1.00000000021137,0.533876283363678
16200.0000000414,506.958682501157,1.00000000020068,0.534274691625009
16300.0000000418,518.844588267747,1.00000000020292,0.534722981597213
16400.0000000418,530.757591196686,1.00000000019807,0.534695246012404
16500.0000000404,542.639449923461,1.00000000019971,0.534860092748917
16600.0000000389,554.50919758129,1.00000000019429,0.534824511343562
16700.0000000375,566.375872000295,1.00000000020133,0.535158818762532
16800.000000036,578.187160638643,1.00000000019736,0.535663964082734
16900.0000000346,589.993358951663,1.00000000019531,0.535628135905084
17000.0000000331,601.749129903832,1.00000000019727,0.535618594679545
17100.0000000317,613.455275594303,1.00000000019402,0.535494028906236
17200.0000000302,625.137709464596,1.00000000019702,0.535514500248781
17300.0000000287,636.737908824112,1.00000000019402,0.535457494654078
17400.0000000273,648.30162635897,1.00000000019712,0.535732926759714
17500.0000000258,659.798929897641,1.00000000019138,0.535624197237557
17600.0000000244,671.21564931471,1.00000000019534,0.535931206764705
17700.0000000229,682.585200703533,1.00000000018689,0.535388226141242
17800.0000000215,693.854104656142,1.00000000019209,0.535453261038899
17900.00000002,705.055378999616,1.00000000018886,0.53500205003728
18000.0000000186,716.177296487166,1.00000000018926,0.535139103882224
18100.0000000171,727.19165232298,1.00000000018515,0.535121255429498
18200.0000000156,738.138312724199,1.00000000018992,0.535106611013836
18300.0000000142,748.968241971095,1.0000000001853,0.534969492468327
18400.0000000127,759.704062070239,1.00000000018228,0.534866144670067
18500.0000000113,770.347039559341,1.00000000018974,0.5343730060667
18600.0000000098,780.861987371176,1.00000000017938,0.534247173080447
18700.0000000084,791.288097407568,1.00000000018517,0.533834175327092
18800.0000000069,801.587727117671,1.00000000017822,0.533831877531366
18900.0000000055,811.770460090541,1.00000000018064,0.533804124564454
19000.000000004,821.849603153733,1.00000000017008,0.533654389519851
19100.0000000026,831.785307746931,1.00000000017532,0.533671955378278
19200.0000000011,841.613452969411,1.00000000017294,0.533177528165506
19299.9999999996,851.308481382305,1.00000000017753,0.532829784962444
19399.9999999982,860.867897359106,1.00000000017512,0.532550725579575
19499.9999999967,870.313477386411,1.00000000017275,0.532074923658925
19599.9999999953,879.60572944654,1.00000000017066,0.532118831615484
19699.9999999938,888.775293208541,1.00000000016842,0.531697074115846
19799.9999999924,897.806919434621,1.00000000016233,0.531859489200436
19899.9999999909,906.689183970158,1.00000000016626,0.531636749180263
19999.9999999895,915.447338759466,1.00000000016893,0.531235589154046
20099.999999988,924.048007517958,1.00000000016983,0.530991552917226
20199.9999999865,932.512223622624,1.00000000016371,0.530489755697839
20299.9999999851,940.837586108785,1.00000000016419,0.530212189174544
20399.9999999836,949.002633147684,1.00000000015805,0.529808945744288
20499.9999999822,957.036448668552,1.00000000016193,0.529586291100711
20599.9999999807,964.910695563256,1.00000000015401,0.529444032589275
20699.9999999793,972.638333174625,1.00000000015874,0.529296190329028
20799.9999999778,980.22599300825,1.00000000016016,0.529036328732587
20899.9999999764,987.647910493155,1.00000000016073,0.528828317328877
20999.9999999749,994.932848042032,1.00000000015419,0.528430078523179
21099.9999999734,1002.05951260796,1.00000000015295,0.527916677278725
21199.999999972,1009.03218373062,1.00000000015207,0.527720489051283
21299.9999999705,1015.8640753473,1.0000000001558,0.527220197442346
21399.9999999691,1022.52927880314,1.00000000014744,0.527244093252517
21499.9999999676,1029.05307437476,1.00000000015342,0.526933431178501
21599.9999999662,1035.42155227873,1.00000000014929,0.526580780296187
21699.9999999647,1041.63229723313,1.00000000015212,0.52662872896842
21799.9999999633,1047.70210621147,1.00000000014635,0.525968379652614
21899.9999999618,1053.60763778342,1.00000000014838,0.525790915346654
21999.9999999603,1059.36829901761,1.0000000001475,0.525330453876301
22099.9999999589,1064.97819792291,1.00000000014621,0.524789006706482
22199.9999999574,1070.42975412214,1.00000000014285,0.525089910730518
22299.999999956,1075.7416398901,1.00000000014222,0.524772340950685
22399.9999999545,1080.89377005538,1.00000000014437,0.524891540065921
22499.9999999531,1085.90202979305,1.00000000013709,0.524987174406174
22599.9999999516,1090.76517883876,1.00000000014207,0.524364555658759
22699.9999999502,1095.47259535599,1.00000000014419,0.524085690219944
22799.9999999487,1100.04195144129,1.00000000013747,0.523040226969396
22899.9999999473,1104.45658036264,1.00000000014249,0.522373590535735
22999.9999999458,1108.72717577356,1.00000000013861,0.521797302456833
23099.9999999443,1112.85645353016,1.00000000013667,0.521486741255529
23199.9999999429,1116.8321130164,1.00000000013608,0.52213046754423
23299.9999999414,1120.67290103433,1.00000000013626,0.522694989156644
23399.99999994,1124.36767263355,1.00000000013306,0.523576695876184
23499.9999999385,1127.92332850597,1.00000000013516,0.524241211866936
23599.9999999371,1131.34820462622,1.00000000013046,0.524042036918611
23699.9999999356,1134.62778602416,1.00000000012783,0.523310855953467
23799.9999999342,1137.77756055242,1.00000000013388,0.521405664856686
23899.9999999327,1140.78855112834,1.00000000013036,0.519352659650906
23999.9999999312,1143.65930845814,1.00000000012435,0.517746223419594
24099.9999999298,1146.3982666581,1.00000000012609,0.516416022584921
24199.9999999283,1148.99132920062,1.00000000012632,0.516997723247284
24299.9999999269,1151.45345366453,1.00000000012327,0.51855215876403
24399.9999999254,1153.78417715987,1.00000000012847,0.520938656295097
24499.999999924,1155.98425312338,1.0000000001303,0.523867289417058
24599.9999999225,1158.06936862993,1.00000000012674,0.525831775103416
24699.9999999211,1160.0300884029,1.00000000013289,0.526393249324749
24799.9999999196,1161.87894322684,1.00000000012916,0.525148392593204
24899.9999999181,1163.61446794911,1.00000000012543,0.522021263936305
24999.9999999167,1165.2268467231,1.00000000012361,0.517880959677696
25099.9999999152,1166.72245596953,1.0000000001189,0.513223808436419
25199.9999999138,1168.08524035524,1.00000000011311,0.509887362947783
25299.9999999123,1169.32013242368,1.00000000011348,0.508762335047904
25399.9999999109,1170.42961430119,1.00000000011285,0.510477547931303
25499.9999999094,1171.41098966379,1.00000000011091,0.515275952140125
25599.999999908,1172.28265821563,1.00000000011476,0.520805644006914
25699.9999999065,1173.04702881555,1.00000000012001,0.526276661555222
25799.9999999051,1173.71817025314,1.00000000012834,0.530260679974972
25899.9999999036,1174.3079039914,1.00000000013013,0.531743988807687
25999.9999999021,1174.81147121157,1.00000000012848,0.530244168661439
26099.9999999007,1175.235482858,1.00000000012764,0.525417820109159
26199.9999998992,1175.56766349614,1.00000000011963,0.517891269116923
26299.9999998978,1175.7987451416,1.00000000011153,0.509229701714099
26399.9999998963,1175.92389328346,1.00000000010812,0.501347568400574
26499.9999998949,1175.92658386247,1.00000000009712,0.497194920331304
26599.9999998934,1175.81263227164,1.00000000009189,0.497828716034207
26699.999999892,1175.58265254757,1.00000000009801,0.503122484656405
26799.9999998905,1175.24734656653,1.00000000010813,0.512098731431038
26899.999999889,1174.82839987511,1.00000000011567,0.521697270095571
26999.9999998876,1174.33570306323,1.00000000012706,0.530421462077662
27099.9999998861,1173.79015953785,1.00000000013064,0.536240048874269
27199.9999998847,1173.20015628407,1.00000000014122,0.538458207720383
27299.9999998832,1172.56663116072,1.00000000013386,0.536224773046634
27399.9999998818,1171.89147813443,1.00000000013454,0.529437865105113
27499.9999998803,1171.15894833952,1.00000000012379,0.518978435577571
27599.9999998789,1170.35771044635,1.00000000010854,0.50556447538005
27699.9999998774,1169.47153139767,1.00000000009983,0.492462552652467
27799.9999998759,1168.48268740315,1.00000000008585,0.482551771657706
27899.9999998745,1167.39029841403,1.00000000008342,0.479254941910831
27999.999999873,1166.19046223996,1.00000000008197,0.48367638353412
28099.9999998716,1164.89856745286,1.00000000009377,0.495254399770264
28199.9999998701,1163.53220718948,1.00000000010549,0.508973386659745
28299.9999998687,1162.10893824144,1.00000000012193,0.523632210896556
28399.9999998672,1160.65405755885,1.00000000013102,0.534145799459001
28499.9999998658,1159.17986375973,1.00000000015086,0.54207736243691
28599.9999998643,1157.69921449291,1.00000000014477,0.544449960296734
28699.9999998629,1156.21625100276,1.00000000016268,0.542320079321389
