Time,AGPnorm,Energy,Entropy
0,0,1,-1.30940058343434e-17
99.9999999999986,2.0127994536381e-05,1.00000000000031,0.000878633752041205
199.999999999993,0.00171748909681627,1.00000000000067,0.00138332904176548
300,0.00436180238266631,0.999999999999861,0.00244539203973164
400.000000000022,0.00603143823143879,1.00000000000076,0.00418597129028874
500.000000000045,0.00725406127242182,1.00000000000013,0.00560801018076422
600.000000000068,0.0104527178624365,1.0000000000002,0.00785317694772635
700.000000000091,0.0130546998929897,1.00000000000072,0.0100299097625341
800.000000000113,0.0168237557613095,0.999999999999924,0.0123595653664026
900.000000000136,0.0208783528607262,1.00000000000063,0.0152299826475114
1000.00000000016,0.0241648821736261,1.00000000000022,0.0178717773400485
1100.0000000001,0.0290990758998749,1.00000000000017,0.0210033387725617
1200,0.0342131525459403,1.00000000000074,0.024230687190612
1299.99999999991,0.0394896884154764,0.999999999999961,0.0274898519471665
1399.99999999982,0.0451841408402059,1.0000000000005,0.0311957076038111
1499.99999999973,0.0506754034724585,1.00000000000032,0.0347712915029415
1599.99999999964,0.0572462565650088,1.00000000000019,0.0386822383073612
1699.99999999955,0.0639601138146628,1.00000000000071,0.042799076717162
1799.99999999946,0.0704039751063789,0.99999999999997,0.0468963364645045
1899.99999999937,0.0775112790261852,1.00000000000043,0.051379215121644
1999.99999999928,0.0849268172608378,1.00000000000042,0.0558451965373757
2099.99999999919,0.092755638733841,1.00000000000019,0.0605766550504541
2199.99999999909,0.100452509725998,1.00000000000063,0.065573121051603
2299.999999999,0.107866302084962,0.999999999999998,0.0705594058575639
2399.99999999891,0.116003797480021,1.00000000000046,0.0759259745364602
2499.99999999882,0.124699084438246,1.00000000000048,0.0814044937602918
2599.99999999873,0.133223973021033,1.00000000000011,0.0871223961921508
2699.99999999864,0.14154927724117,1.00000000000052,0.0931637727427727
2799.99999999855,0.149857142893789,1.00000000000008,0.0992768879041333
2899.99999999846,0.158639888872655,1.00000000000056,0.105825673575194
2999.99999999837,0.167808593697608,1.00000000000051,0.112666631276493
3099.99999999828,0.176456181023366,1.00000000000004,0.119771958749914
3199.99999999819,0.185120816618348,1.0000000000005,0.127375641227428
3299.99999999809,0.19404238435044,1.00000000000029,0.135270348493463
3399.999999998,0.203163396922667,1.00000000000079,0.143811747198688
3499.99999999791,0.212076010511977,1.00000000000108,0.152962055743455
3599.99999999782,0.220581186433077,1.00000000000131,0.162652129746485
3699.99999999773,0.229480875704989,1.0000000000033,0.173276867948319
3799.99999999764,0.238100428112843,1.00000000000608,0.184637964578622
3899.99999999755,0.247930738226674,1.00000000001125,0.196852247335519
3999.99999999746,0.256243189797842,1.00000000001894,0.209810087618079
4099.99999999738,0.265003267008181,1.0000000000294,0.223047434503584
4199.99999999775,0.278201749065761,1.00000000004384,0.236786878666776
4299.99999999811,0.288017688187187,1.00000000006157,0.25062471532603
4399.99999999848,0.308415482660928,1.00000000007997,0.264352957260707
4499.99999999884,0.332400649864563,1.0000000001022,0.278015458013162
4599.9999999992,0.363937471772921,1.00000000012806,0.291190782596452
4699.99999999957,0.42296321841651,1.00000000015317,0.304312151985913
4799.99999999993,0.490244964858885,1.00000000017735,0.317111237265064
4900.00000000029,0.59825790884436,1.00000000020396,0.329440835129077
5000.00000000066,0.746720023694701,1.0000000002276,0.341591715674535
5100.00000000102,0.934017643988663,1.00000000026798,0.353251755764041
5200.00000000139,1.20236313694735,1.00000000029813,0.364647352604034
5300.00000000175,1.52866638138807,1.00000000032101,0.375685747470722
5400.00000000211,1.94977620503706,1.00000000033916,0.386194226538509
5500.00000000248,2.48116775286431,1.00000000036824,0.396398952666341
5600.00000000284,3.11012285896212,1.00000000040337,0.40628465499485
5700.00000000321,3.888921812749,1.00000000040496,0.415812958434156
5800.00000000357,4.80016116411351,1.00000000044462,0.424835473728743
5900.00000000393,5.86712179337163,1.00000000045166,0.433542580217219
6000.0000000043,7.11698306532617,1.0000000004786,0.441901989765393
6100.00000000466,8.53035089228387,1.00000000048486,0.449986344341409
6200.00000000502,10.1501130099355,1.00000000052697,0.457489966187281
6300.00000000539,11.9682898038867,1.00000000051702,0.464774133537964
6400.00000000575,13.9892150946664,1.00000000054373,0.471763881490238
6500.00000000612,16.2396930327208,1.00000000052439,0.478482131108085
6600.00000000648,18.7017182853919,1.00000000056173,0.484725973230979
6700.00000000684,21.3974766520503,1.00000000056123,0.490679359977908
6800.00000000721,24.324867556981,1.00000000059614,0.4961600565218
6900.00000000757,27.4767778314457,1.00000000057043,0.501720106262004
7000.00000000793,30.8680630143081,1.00000000059697,0.506742964852759
7100.0000000083,34.4859792705327,1.00000000059278,0.511553000954081
7200.00000000866,38.3341344881325,1.00000000057735,0.516139707051161
7300.00000000903,42.4085321577855,1.00000000063722,0.520273247260001
7400.00000000939,46.7011197368554,1.00000000060424,0.524374153973749
7500.00000000975,51.2107108903742,1.00000000060988,0.528162475024577
7600.00000001012,55.9279233886212,1.00000000060631,0.531677021375459
7700.00000001048,60.8478235069873,1.00000000061253,0.535084361021526
7800.00000001084,65.9574401189991,1.00000000061385,0.53831734064434
7900.00000001121,71.2543796008054,1.00000000063307,0.541027094699126
8000.00000001157,76.7246761658558,1.00000000063831,0.543760566159723
8100.00000001194,82.3579727444805,1.0000000006197,0.546426535823311
8200.0000000123,88.1502180351062,1.00000000061964,0.548832083575186
8300.00000001266,94.0784418997066,1.00000000058931,0.551224052574876
8400.00000001303,100.145016162939,1.00000000062509,0.55298669974156
8500.00000001339,106.332380599245,1.00000000060865,0.555050731009402
8600.00000001376,112.623641396355,1.0000000006234,0.556864979557575
8700.00000001412,119.021582483409,1.00000000060919,0.558371431500163
8800.00000001448,125.496374011586,1.00000000061176,0.559927606099456
8900.00000001485,132.051597349276,1.00000000060732,0.561270485241965
9000.00000001521,138.672746252728,1.00000000059335,0.562592200975217
9100.00000001557,145.335990525249,1.00000000060506,0.563829781978009
9200.00000001594,152.050434741585,1.00000000058642,0.564752503985992
9300.0000000163,158.786031151505,1.00000000058507,0.565647070234171
9400.00000001667,165.542216376466,1.00000000058721,0.566698076468782
9500.00000001703,172.312537570073,1.00000000056937,0.567220051569896
9600.00000001739,179.0682295348,1.00000000059159,0.568148116878007
9700.00000001776,185.82323134252,1.00000000056984,0.568453229468164
9800.00000001812,192.549739737515,1.00000000056781,0.569000342002609
9900.00000001848,199.242882272628,1.00000000055167,0.569884429612108
10000.0000000188,205.904475650535,1.00000000054349,0.569835324539797
10100.0000000192,212.504876410647,1.00000000055217,0.570532585140863
10200.0000000196,219.056487857148,1.00000000054713,0.570486414121644
10300.0000000199,225.541102274368,1.00000000054126,0.570922047613804
10400.0000000203,231.947228031825,1.00000000055264,0.570943594696166
10500.0000000207,238.283322823824,1.0000000005469,0.571033943963091
10600.000000021,244.522815291286,1.00000000053154,0.571116290640547
10700.0000000214,250.674579688935,1.00000000052018,0.570960138586217
10800.0000000218,256.730068506721,1.0000000005276,0.571285170121953
10900.0000000221,262.673401156434,1.00000000051417,0.570840057737763
11000.0000000225,268.516372066429,1.00000000051097,0.571232430489452
11100.0000000229,274.238195281493,1.00000000050958,0.571068987222247
11200.0000000232,279.84235620902,1.00000000050811,0.570450966374878
11300.0000000236,285.328211419026,1.00000000050204,0.571179948479742
11400.0000000239,290.679543270332,1.0000000004844,0.570401614792016
11500.0000000243,295.907217550945,1.00000000047915,0.569882701408235
11600.0000000247,300.996620187249,1.00000000047593,0.570734991124222
11700.000000025,305.95139903124,1.00000000047775,0.569407107833633
11800.0000000254,310.770392217779,1.00000000047152,0.569553236148852
11900.0000000258,315.442073053841,1.00000000046974,0.56967540194026
12000.0000000261,319.977435472738,1.00000000047087,0.568387730046705
12100.0000000265,324.363847324282,1.00000000045796,0.568966718757244
12200.0000000269,328.604844317844,1.00000000045947,0.568488428673616
12300.0000000272,332.704647776932,1.00000000043054,0.56747421813279
12400.0000000276,336.6485108323,1.00000000044777,0.568034964725204
12500.0000000279,340.451594494731,1.00000000043137,0.56707864937468
12600.0000000283,344.104090876029,1.00000000042744,0.566683923333519
12700.0000000287,347.60529521715,1.0000000004169,0.567002020540631
12800.000000029,350.965592134147,1.00000000042912,0.565848196132402
12900.0000000294,354.170190257425,1.00000000041343,0.565706121722932
13000.0000000298,357.232495781627,1.00000000042438,0.56562511010332
13100.0000000301,360.14985023688,1.00000000040369,0.564836712224677
13200.0000000305,362.916741761583,1.00000000040462,0.564668779662251
13300.0000000309,365.545681164173,1.00000000040274,0.564246006380006
13400.0000000312,368.027025753582,1.0000000003845,0.563612040759415
13500.0000000316,370.368430420901,1.00000000038274,0.563669894934603
13600.0000000319,372.572264922164,1.00000000039097,0.564003574583393
13700.0000000323,374.634468340413,1.00000000038376,0.563031110620511
13800.0000000327,376.564611604614,1.00000000036981,0.561255106509285
13900.000000033,378.354942212518,1.00000000037236,0.561621011545686
14000.0000000334,380.0144926852,1.00000000037178,0.563460817117319
14100.0000000338,381.548285547456,1.00000000036374,0.563293972937691
14200.0000000341,382.950545417532,1.00000000036753,0.56103111807905
14300.0000000345,384.230066038171,1.00000000035542,0.558769290408843
14400.0000000349,385.381043817844,1.00000000034893,0.55950625056965
14500.0000000352,386.411538611694,1.00000000035807,0.562726346724497
14600.0000000356,387.329539857595,1.00000000035511,0.563948569850057
14700.0000000359,388.13357662098,1.00000000034935,0.561430443318792
14800.0000000363,388.827195813835,1.00000000034029,0.555949783423767
14900.0000000367,389.403121889319,1.000000000319,0.554725342063391
15000.000000037,389.866555172753,1.0000000003387,0.560651471757277
15100.0000000374,390.233894983272,1.00000000035084,0.566432664141494
15200.0000000378,390.510994068232,1.00000000035924,0.564088823827606
15300.0000000381,390.698002770673,1.00000000033841,0.556484970769311
15400.0000000385,390.784501970969,1.00000000030262,0.548334040634296
15500.0000000389,390.764458241879,1.00000000031643,0.553605638826914
15600.0000000392,390.658676686142,1.00000000032574,0.562475691972274
15700.0000000396,390.481737490303,1.00000000038331,0.570484095356496
15800.0000000399,390.245745630673,1.00000000034084,0.561564679318629
15900.0000000403,389.936804351036,1.0000000003423,0.551074536533873
16000.0000000407,389.539984528436,1.00000000027527,0.541043588169637
16100.000000041,389.052962649578,1.0000000003026,0.54717766402481
16200.0000000414,388.493809935225,1.00000000034134,0.56253355930586
16300.0000000418,387.893243183696,1.00000000039592,0.572653576347956
16400.0000000418,387.260060462303,1.00000000036199,0.564745006490484
16500.0000000404,386.576696688177,1.00000000032437,0.54802684521774
16600.0000000389,385.824474232438,1.0000000002671,0.532479996198034
16700.0000000375,384.989565904135,1.00000000026782,0.533284043232318
16800.000000036,384.092876571004,1.00000000031923,0.553408455057758
16900.0000000346,383.165734487042,1.00000000040079,0.572402173853227
17000.0000000331,382.226819112736,1.00000000040992,0.572700977392785
17100.0000000317,381.27312094648,1.00000000036519,0.55608889564068
17200.0000000302,380.27733562032,1.00000000029377,0.531792535731757
17300.0000000287,379.217214343749,1.00000000023376,0.516538684961902
17400.0000000273,378.09018298695,1.00000000025896,0.525614316345792
17500.0000000258,376.921441018143,1.00000000034805,0.554995363993223
17600.0000000244,375.747205035768,1.0000000004238,0.575251917612159
17700.0000000229,374.581158317977,1.0000000004356,0.5736369687302
17800.0000000215,373.415832616392,1.00000000039071,0.553022780226026
17900.00000002,372.224793471866,1.00000000029651,0.522779218240902
18000.0000000186,370.980589775187,1.00000000022587,0.503051619338267
18100.0000000171,369.681465202432,1.0000000002398,0.507584556965783
18200.0000000156,368.344637266651,1.00000000033045,0.540479637035755
18300.0000000142,367.005172098118,1.00000000043738,0.571460061991692
18400.0000000127,365.685749990596,1.00000000045824,0.578991703321148
18500.0000000113,364.384349620219,1.00000000043459,0.563603318551086
18600.0000000098,363.083419946461,1.0000000003399,0.533109749456761
18700.0000000084,361.754368132942,1.00000000025598,0.502260586516222
18800.0000000069,360.381457872028,1.00000000020355,0.488044314821345
18900.0000000055,358.966995070224,1.00000000025623,0.502373405326636
19000.000000004,357.531822765093,1.00000000034591,0.541302870947389
19100.0000000026,356.10684923754,1.00000000045906,0.57288237341128
19200.0000000011,354.708033106744,1.00000000049434,0.579068114329774
19299.9999999996,353.333356187264,1.00000000045144,0.563614379188641
19399.9999999982,351.968354471045,1.0000000003575,0.533524422678562
19499.9999999967,350.588704996722,1.00000000027095,0.499675678957377
19599.9999999953,349.180219130991,1.00000000021519,0.479769207401685
19699.9999999938,347.737933432155,1.000000000223,0.484486311250527
19799.9999999924,346.275446636974,1.00000000030542,0.515890375889167
19899.9999999909,344.815931323871,1.00000000042834,0.554532301800594
19999.9999999895,343.376099840032,1.0000000004804,0.57492119434766
20099.999999988,341.964095361058,1.00000000048227,0.573596376686423
20199.9999999865,340.575253888652,1.00000000044153,0.553723246199691
20299.9999999851,339.194331163113,1.00000000035962,0.522723621296373
20399.9999999836,337.806140896842,1.00000000026794,0.491100171580429
20499.9999999822,336.397518904516,1.00000000023533,0.475641461720899
20599.9999999807,334.969431272244,1.00000000023987,0.480179148862653
20699.9999999793,333.528528626322,1.00000000030007,0.503125145379221
20799.9999999778,332.088781872942,1.00000000039852,0.536962444571391
20899.9999999764,330.664613366346,1.00000000044603,0.562906091441407
20999.9999999749,329.263293912307,1.00000000049817,0.570473965459434
21099.9999999734,327.885334433853,1.00000000046013,0.55972444072686
21199.999999972,326.52423048493,1.00000000042087,0.536098759956635
21299.9999999705,325.168164336923,1.00000000032825,0.508763135666051
21399.9999999691,323.808706985005,1.00000000027698,0.486667357105907
21499.9999999676,322.439340877302,1.00000000025518,0.477573748170949
21599.9999999662,321.061663332663,1.00000000026359,0.482501489346164
21699.9999999647,319.679726624484,1.00000000030318,0.497894808996774
21799.9999999633,318.300229651748,1.00000000036006,0.521871807492377
21899.9999999618,316.932278315705,1.00000000041628,0.545553763208954
21999.9999999603,315.581272857462,1.000000000469,0.557703649529297
22099.9999999589,314.248468705838,1.00000000046645,0.55486476513122
22199.9999999574,312.932470249063,1.00000000042772,0.540343085503419
22299.999999956,311.627017195534,1.00000000037996,0.521289204027478
22399.9999999545,310.327412162962,1.0000000003333,0.503590465455295
22499.9999999531,309.028810772912,1.00000000029509,0.489963171932931
22599.9999999516,307.729559583875,1.00000000027896,0.484467088429706
22699.9999999502,306.430383813938,1.00000000027772,0.486245404369391
22799.9999999487,305.131939308232,1.00000000030426,0.495274926241438
22899.9999999473,303.838768458543,1.00000000034021,0.509305032152273
22999.9999999458,302.553702044054,1.00000000037591,0.524142620188743
23099.9999999443,301.279759968039,1.00000000041896,0.537392867097078
23199.9999999429,300.019300609211,1.00000000043093,0.540957435869697
23299.9999999414,298.771581812934,1.00000000042685,0.538038846944842
23399.99999994,297.535257382296,1.00000000040017,0.528356884801134
23499.9999999385,296.308512338462,1.00000000037433,0.517988283998883
23599.9999999371,295.088763220547,1.0000000003372,0.508177591397881
23699.9999999356,293.875331771606,1.00000000030887,0.50072762505138
23799.9999999342,292.666796639436,1.00000000029235,0.495620424752658
23899.9999999327,291.464110970436,1.00000000029285,0.494346892628709
23999.9999999312,290.266795240649,1.00000000029083,0.494397412687117
24099.9999999298,289.075496207221,1.00000000031542,0.49833681050413
24199.9999999283,287.891706322156,1.00000000033374,0.505215891972386
24299.9999999269,286.716159388051,1.00000000036999,0.513828909580369
24399.9999999254,285.549955112029,1.00000000039005,0.521830580603829
24499.999999924,284.393796854947,1.00000000039578,0.526077923734083
24599.9999999225,283.247016025773,1.00000000040866,0.529846462354715
24699.9999999211,282.109658968352,1.00000000037627,0.526079071819882
24799.9999999196,280.981023470883,1.00000000035849,0.520746985975262
24899.9999999181,279.860643709741,1.00000000034751,0.515924262755003
24999.9999999167,278.748588950531,1.00000000034326,0.514916204797865
25099.9999999152,277.644661253367,1.00000000033431,0.513500649673215
25199.9999999138,276.549540832591,1.00000000032602,0.509363581476536
25299.9999999123,275.462689184909,1.00000000030157,0.504346428336339
25399.9999999109,274.384623860773,1.000000000296,0.49743489606812
25499.9999999094,273.315020737517,1.00000000029321,0.493385834858922
25599.999999908,272.254034597294,1.0000000002964,0.492555858851967
25699.9999999065,271.202215438978,1.0000000003245,0.498309790890012
25799.9999999051,270.159333927699,1.00000000035685,0.50584776450253
25899.9999999036,269.124709605668,1.00000000038003,0.51634459114423
25999.9999999021,268.098061268794,1.00000000039416,0.521159274243126
26099.9999999007,267.078714251181,1.00000000040015,0.526204952419234
26199.9999998992,266.067002286639,1.00000000037043,0.526026843274737
26299.9999998978,265.063385349509,1.00000000033643,0.521000847042023
26399.9999998963,264.067959203032,1.0000000003426,0.517642206165181
26499.9999998949,263.080916070101,1.00000000034695,0.52084341415791
26599.9999998934,262.101825601103,1.00000000037607,0.527816368632289
26699.999999892,261.131139355038,1.00000000036624,0.526207511507228
26799.9999998905,260.16913089544,1.0000000003413,0.518320019972101
26899.999999889,259.21681391433,1.00000000030832,0.507164099702026
26999.9999998876,258.275080565505,1.00000000028957,0.493726683633508
27099.9999998861,257.344578955647,1.00000000026156,0.480893691735601
27199.9999998847,256.426326142516,1.00000000026444,0.477426237747203
27299.9999998832,255.519561778183,1.00000000030475,0.483470243218476
27399.9999998818,254.622614392855,1.00000000033433,0.495558771214288
27499.9999998803,253.73340532611,1.0000000003815,0.507047564686338
27599.9999998789,252.849878325207,1.0000000004187,0.516463134970128
27699.9999998774,251.970540968666,1.00000000041483,0.521295563879607
27799.9999998759,251.096097559598,1.0000000003901,0.521632863851403
27899.9999998745,250.228032148445,1.00000000033605,0.521549683862205
27999.999999873,249.367723575586,1.00000000033001,0.518681545533538
28099.9999998716,248.515298715846,1.00000000032136,0.515660970175363
28199.9999998701,247.669947983579,1.00000000036876,0.523431589723508
28299.9999998687,246.8302335379,1.00000000039427,0.53621139329801
28399.9999998672,245.995477537323,1.00000000040787,0.537251166396773
28499.9999998658,245.166633504279,1.00000000037258,0.528998552642752
28599.9999998643,244.345387032018,1.00000000035385,0.515148581351671
28699.9999998629,243.534565761812,1.00000000030989,0.500701500441102
28799.9999998614,242.736481150216,1.00000000025993,0.483423313266208
28899.9999998599,241.953521276748,1.00000000023893,0.467740407581162
