Time,AGPnorm,Energy,Entropy
0,0,1,-7.62873140265649e-17
99.9999999999986,0.00139280362707495,0.999999999997158,0.00446958796693874
199.999999999993,0.00958842440992572,0.999999999995161,0.0129029690658888
300,0.0192650445668622,0.999999999997701,0.0237723641769756
400.000000000022,0.0284117916448521,1.0000000000002,0.0377952415576601
500.000000000045,0.0401994423568588,0.999999999998292,0.054844200598162
600.000000000068,0.0556449606285301,0.999999999995381,0.0742982966578462
700.000000000091,0.0706651091880769,0.999999999996557,0.0961311283918724
800.000000000113,0.0859174326390451,0.999999999999909,0.121859223389537
900.000000000136,0.100709789704623,1.00000000000051,0.152706182304434
1000.00000000016,0.117741506509074,1.0000000000091,0.190718244633553
1100.0000000001,0.133986662000928,1.00000000006944,0.2372897234083
1200,0.161517487938707,1.00000000025598,0.289828140663645
1299.99999999991,0.200800214412735,1.00000000052907,0.341464315196392
1399.99999999982,0.299601878160909,1.0000000008038,0.387648012535042
1499.99999999973,0.567500716205187,1.00000000111517,0.426703370985265
1599.99999999964,1.08533739019599,1.00000000140523,0.459422425738874
1699.99999999955,1.89481118818945,1.00000000163583,0.48813248852381
1799.99999999946,3.09029156641355,1.00000000173161,0.511670344372644
1899.99999999937,4.75289740475042,1.00000000179363,0.53014534224849
1999.99999999928,6.847510405577,1.00000000196022,0.544628834498204
2099.99999999919,9.3060028292,1.00000000196305,0.55759829902211
2199.99999999909,12.1255384282539,1.00000000194499,0.567266526709141
2299.999999999,15.28015187802,1.00000000198835,0.573754894693654
2399.99999999891,18.6586947081562,1.0000000018892,0.577882983208323
2499.99999999882,22.1396103082855,1.00000000186486,0.582527556339017
2599.99999999873,25.6791113271325,1.00000000190245,0.584220292902957
2699.99999999864,29.2425826699796,1.00000000175077,0.585088051964774
2799.99999999855,32.749533237363,1.00000000176581,0.584165746144928
2899.99999999846,36.1096486919338,1.00000000166685,0.583890534124022
2999.99999999837,39.2801282062506,1.00000000169105,0.582283606642647
3099.99999999828,42.25623754211,1.00000000152594,0.580534834679656
3199.99999999819,45.010497178407,1.00000000149318,0.579076152469185
3299.99999999809,47.4999885969487,1.0000000014896,0.578057828061629
3399.999999998,49.704569678376,1.00000000143781,0.57542719623459
3499.99999999791,51.6324942790442,1.00000000137153,0.573460391710505
3599.99999999782,53.2936372041712,1.00000000132961,0.571501335149287
3699.99999999773,54.6865955445997,1.00000000125846,0.5681521638738
3799.99999999764,55.8094454992863,1.00000000119044,0.566865206369344
3899.99999999755,56.6710726750461,1.00000000116385,0.569711235361077
3999.99999999746,57.29180899937,1.00000000110769,0.559295613540904
4099.99999999738,57.7071170734081,1.00000000115528,0.569717978347853
4199.99999999775,57.912607500004,1.00000000101881,0.550176719880194
4299.99999999811,57.9413588749113,1.00000000116314,0.575078230620148
4399.99999999848,57.8217470033585,1.00000000093578,0.544456790422395
4499.99999999884,57.5437943370919,1.0000000010829,0.565191520700544
4599.9999999992,57.199481900464,1.00000000112078,0.560446383806978
4699.99999999957,56.7336824717225,1.00000000091796,0.523200237913739
4799.99999999993,56.1891821486822,1.00000000145498,0.581436657722287
4900.00000000029,55.6273323554395,1.00000000110614,0.543377458003162
5000.00000000066,54.9688333022244,1.00000000085081,0.507522017627398
5100.00000000102,54.2841414002798,1.00000000144568,0.582733954709856
5200.00000000139,53.6195693362761,1.0000000011375,0.536322998195074
5300.00000000175,52.8948144114076,1.00000000073778,0.485099693028713
5400.00000000211,52.1364803407905,1.00000000134363,0.561259025891232
5500.00000000248,51.4210797203032,1.00000000146282,0.55943018715442
5600.00000000284,50.7045262124927,1.00000000083948,0.485084063258999
5700.00000000321,49.946825420023,1.00000000097215,0.486624358512391
5800.00000000357,49.1970389739028,1.00000000152554,0.563163955608227
5900.00000000393,48.4877862728818,1.0000000013889,0.539477231803195
6000.0000000043,47.7842050491974,1.00000000081694,0.477352370253317
6100.00000000466,47.0662491936062,1.00000000090145,0.473861061754184
6200.00000000502,46.3526633220412,1.00000000133902,0.527727025143277
6300.00000000539,45.6685495305917,1.00000000151653,0.546841751309296
6400.00000000575,45.006637419931,1.0000000010259,0.498219261993371
6500.00000000612,44.3517034165336,1.00000000088918,0.478855968027242
6600.00000000648,43.7020338280372,1.00000000104342,0.488159849445186
6700.00000000684,43.0636821581887,1.00000000128685,0.514006074748381
6800.00000000721,42.4448531248496,1.00000000132675,0.533518601895437
6900.00000000757,41.8451483231356,1.00000000122886,0.514131936359926
7000.00000000793,41.2611290478665,1.00000000095694,0.484794331297606
7100.0000000083,40.6927511299192,1.00000000106707,0.497724502159319
7200.00000000866,40.1385838487752,1.0000000011105,0.50719949562967
7300.00000000903,39.6001135632564,1.00000000102193,0.499370075549183
7400.00000000939,39.0764370805671,1.00000000128857,0.523437684820163
7500.00000000975,38.5644527073978,1.00000000128522,0.523502702338562
7600.00000001012,38.0698814585046,1.00000000091636,0.495316460954416
7700.00000001048,37.5966874708517,1.00000000097119,0.497682681143075
7800.00000001084,37.1375597826957,1.00000000128902,0.515180912057478
7900.00000001121,36.6913850813504,1.00000000107469,0.514230382064754
8000.00000001157,36.2648581728555,1.00000000091307,0.485266371041163
8100.00000001194,35.8531662925006,1.00000000121966,0.514997600815346
8200.0000000123,35.4467835650497,1.00000000139545,0.533196926057759
8300.00000001266,35.0483936339832,1.00000000116594,0.515846015417533
8400.00000001303,34.6708964406911,1.00000000095333,0.495828978768016
8500.00000001339,34.3137116585788,1.00000000107136,0.504374846029889
8600.00000001376,33.9645695691325,1.00000000130325,0.518463230612679
8700.00000001412,33.6216975750536,1.00000000118652,0.522528241694508
8800.00000001448,33.2951629114254,1.00000000097083,0.498617947333555
8900.00000001485,32.9874358925392,1.00000000111513,0.497137523061348
9000.00000001521,32.6889387562642,1.00000000127009,0.527372320462518
9100.00000001557,32.3911426917854,1.0000000013297,0.536095348461722
9200.00000001594,32.0972942781742,1.00000000114348,0.521691528763717
9300.0000000163,31.8183629256791,1.00000000098003,0.5111258058861
9400.00000001667,31.55741419243,1.00000000108458,0.51837294716033
9500.00000001703,31.3094342584744,1.00000000108375,0.51857023189903
9600.00000001739,31.0679138228535,1.00000000126887,0.524494467636908
9700.00000001776,30.8302631970524,1.0000000012004,0.516028660146133
9800.00000001812,30.5991407471772,1.00000000118823,0.530339622729477
9900.00000001848,30.3787865295993,1.00000000108195,0.526278519813185
10000.0000000188,30.1689399701842,1.00000000112844,0.522611298180248
10100.0000000192,29.9676573186256,1.00000000119838,0.533081829717191
10200.0000000196,29.7724653025677,1.00000000119784,0.541428421887305
10300.0000000199,29.5768999488389,1.0000000012462,0.543088057925706
10400.0000000203,29.3878990132441,1.00000000105905,0.53197763821997
10500.0000000207,29.2151370303053,1.00000000101219,0.521034705882799
10600.000000021,29.0551446584932,1.00000000117047,0.528200993754876
10700.0000000214,28.8971255450334,1.00000000124512,0.537624514982961
10800.0000000218,28.7462543606339,1.0000000010498,0.520940639979837
10900.0000000221,28.6089051108014,1.00000000103509,0.526402836124585
11000.0000000225,28.4793407999979,1.00000000122494,0.523128422339534
11100.0000000229,28.3474027123562,1.00000000141226,0.545555758928538
11200.0000000232,28.2080181448037,1.00000000128505,0.56055522376458
11300.0000000236,28.0672686892478,1.00000000115708,0.560306797787212
11400.0000000239,27.9325522787238,1.00000000105642,0.548010453450347
11500.0000000243,27.8069815952271,1.00000000107349,0.549637799603075
11600.0000000247,27.6892356814398,1.00000000118083,0.551361610424161
11700.000000025,27.5743330489226,1.00000000122605,0.550139210926209
11800.0000000254,27.4592435811663,1.00000000127705,0.549645815802932
11900.0000000258,27.3504666346074,1.00000000115179,0.549782705064349
12000.0000000261,27.2541412220778,1.00000000112669,0.545623659917947
12100.0000000265,27.168118975156,1.00000000111376,0.542288918856386
12200.0000000269,27.0872623561218,1.00000000120018,0.544582988646626
12300.0000000272,27.00224960516,1.00000000125337,0.551372801881637
12400.0000000276,26.9207429721787,1.00000000112539,0.544904656829577
12500.0000000279,26.8508229295017,1.000000001073,0.530172012634493
12600.0000000283,26.790698191357,1.00000000110664,0.548778188648959
12700.0000000287,26.7334614934091,1.00000000116805,0.561329415254555
12800.000000029,26.6747380028187,1.00000000120832,0.551806001789523
12900.0000000294,26.6099801399001,1.00000000126277,0.562383743596595
13000.0000000298,26.5365019075208,1.00000000122838,0.569141254539023
13100.0000000301,26.455353252602,1.00000000127462,0.585553968786727
13200.0000000305,26.3683582448887,1.00000000117807,0.582833556010535
13300.0000000309,26.2813770500623,1.00000000111434,0.58402254619432
13400.0000000312,26.2019380507685,1.00000000109807,0.574918796057385
13500.0000000316,26.1325790094811,1.0000000011508,0.567540385973944
13600.0000000319,26.0713514919101,1.0000000011711,0.557226366114183
13700.0000000323,26.0131672630859,1.00000000123601,0.561466556155206
13800.0000000327,25.9561525054248,1.00000000124019,0.565055577268568
13900.000000033,25.9048306095687,1.00000000118081,0.567885455213874
14000.0000000334,25.8643467211161,1.00000000112094,0.566153733241465
14100.0000000338,25.8305464633549,1.00000000121723,0.557739373492502
14200.0000000341,25.7945936652396,1.00000000128682,0.564489595854243
14300.0000000345,25.7625056310037,1.00000000119741,0.560386506103762
14400.0000000349,25.7367462833583,1.00000000118651,0.55188955833435
14500.0000000352,25.7138528493642,1.00000000117926,0.549789434934883
14600.0000000356,25.6924371461188,1.00000000114053,0.55174839493611
14700.0000000359,25.6734538938026,1.00000000116399,0.561523695525764
14800.0000000363,25.6565516524301,1.00000000121457,0.573578222361717
14900.0000000367,25.6398740113194,1.00000000129238,0.583497086212955
15000.000000037,25.6198618974008,1.00000000120799,0.592207289702024
15100.0000000374,25.5986942619504,1.0000000012169,0.595822358459111
15200.0000000378,25.578467465169,1.00000000117382,0.591634111734578
15300.0000000381,25.5592055465705,1.00000000120947,0.590067595787777
15400.0000000385,25.5353629216888,1.00000000120635,0.589622628899686
15500.0000000389,25.503484480783,1.00000000133132,0.596202027134795
15600.0000000392,25.4601399334735,1.00000000132117,0.59756565021355
15700.0000000396,25.4058296664949,1.0000000013441,0.601595671968293
15800.0000000399,25.3427004407407,1.00000000124721,0.605864522292763
15900.0000000403,25.2778912599673,1.00000000114018,0.611006482722615
16000.0000000407,25.2184303108675,1.00000000116233,0.603661667706547
16100.000000041,25.1677065521144,1.00000000112609,0.594016070350196
16200.0000000414,25.1263957030437,1.00000000116156,0.588607252726102
16300.0000000418,25.0925007894742,1.00000000124676,0.58362706166044
16400.0000000418,25.0639449832349,1.00000000122084,0.583599969090469
16500.0000000404,25.0380245392698,1.00000000121982,0.580710631739397
16600.0000000389,25.0151076591196,1.00000000121132,0.580935464598319
16700.0000000375,24.9983751701215,1.00000000122818,0.585188482651481
16800.000000036,24.9880009598046,1.00000000116993,0.58406994174958
16900.0000000346,24.9833821359929,1.00000000118301,0.58659416754487
17000.0000000331,24.9808197500549,1.00000000117862,0.575732401920991
17100.0000000317,24.9789739999069,1.00000000117598,0.57300830994685
17200.0000000302,24.9794002801886,1.00000000125905,0.567710378816857
17300.0000000287,24.9825067504884,1.00000000118095,0.567299101234111
17400.0000000273,24.9904572628984,1.00000000115949,0.573564797825461
17500.0000000258,25.0017786980893,1.00000000122407,0.571552121934104
17600.0000000244,25.0142000727593,1.00000000128729,0.568955611038806
17700.0000000229,25.0250939198534,1.00000000132691,0.56922321574513
17800.0000000215,25.0339014921083,1.00000000125424,0.562939816799242
17900.00000002,25.0415405375943,1.00000000125412,0.563670033060979
18000.0000000186,25.0481201870133,1.00000000125536,0.578212954794689
18100.0000000171,25.053815713353,1.00000000121171,0.588423534907517
18200.0000000156,25.0610640601659,1.00000000120422,0.590722333107666
18300.0000000142,25.0676218885382,1.00000000128414,0.596662516286795
18400.0000000127,25.0707483863833,1.0000000013414,0.591626395880093
18500.0000000113,25.0694584218199,1.00000000135865,0.600589561330608
18600.0000000098,25.0645070595207,1.00000000131666,0.604879295099461
18700.0000000084,25.0580806800297,1.00000000125101,0.614337349599309
18800.0000000069,25.0502907871708,1.00000000125699,0.620758866187829
18900.0000000055,25.039930866878,1.000000001316,0.618380258188501
19000.000000004,25.0245883895836,1.00000000130398,0.616938951907208
19100.0000000026,25.0042573575466,1.00000000125051,0.61863739671491
19200.0000000011,24.9817042898062,1.00000000122261,0.611966619628052
19299.9999999996,24.9565948563491,1.000000001306,0.610593851030099
19399.9999999982,24.9254310221033,1.00000000135181,0.60705716135273
19499.9999999967,24.8855159136961,1.00000000139659,0.607739305936545
19599.9999999953,24.8376435630853,1.0000000013687,0.60713993271016
19699.9999999938,24.7840183545888,1.00000000136105,0.60482110253144
19799.9999999924,24.7287820932147,1.00000000128042,0.603578435002289
19899.9999999909,24.6753928033533,1.00000000122938,0.598481253358436
19999.9999999895,24.6274256239791,1.00000000115636,0.588708790326834
20099.999999988,24.5866523731986,1.00000000118178,0.587531814192049
20199.9999999865,24.5521649535146,1.00000000128181,0.585315817377122
20299.9999999851,24.5244641578327,1.00000000118707,0.581925463798593
20399.9999999836,24.5015529449471,1.00000000123122,0.58364010172459
20499.9999999822,24.4837356700334,1.00000000133428,0.583051869230344
20599.9999999807,24.4698476622694,1.00000000131937,0.57212215389116
20699.9999999793,24.4603667900923,1.00000000123136,0.56666726673741
20799.9999999778,24.4553937884502,1.00000000127865,0.572292111600374
20899.9999999764,24.4549707418698,1.00000000118436,0.581782275291653
20999.9999999749,24.4603088686892,1.00000000128252,0.583024921936571
21099.9999999734,24.4708848296558,1.00000000124961,0.589353778057051
21199.999999972,24.4834905843797,1.00000000133062,0.583004885892989
21299.9999999705,24.4961556320228,1.00000000137753,0.581090341252044
21399.9999999691,24.5123365009042,1.00000000122236,0.57974387251072
21499.9999999676,24.532007572282,1.00000000132634,0.57063531685552
21599.9999999662,24.5522147103459,1.00000000126685,0.566751493633551
21699.9999999647,24.5758350689567,1.00000000125641,0.56774881787755
21799.9999999633,24.604538684175,1.00000000119207,0.567297983079244
21899.9999999618,24.6355803035371,1.00000000132417,0.571579370882558
21999.9999999603,24.6645242489987,1.00000000132937,0.577453639408878
22099.9999999589,24.6927817875325,1.00000000129432,0.580206011390154
22199.9999999574,24.7202786185497,1.00000000133287,0.577978703465688
22299.999999956,24.7457646052616,1.00000000137585,0.58164723685093
22399.9999999545,24.768343815842,1.0000000013188,0.588774279401575
22499.9999999531,24.7900372998981,1.00000000130072,0.598060947484959
22599.9999999516,24.8140618474559,1.00000000121636,0.603822647527534
22699.9999999502,24.8399583033678,1.00000000126706,0.612164748643257
22799.9999999487,24.8645141846212,1.00000000134508,0.616348135764372
22899.9999999473,24.8842771959452,1.00000000143422,0.623097733108248
22999.9999999458,24.8979634572765,1.00000000135818,0.624497296591079
23099.9999999443,24.9085103400491,1.00000000136147,0.622747640329509
23199.9999999429,24.9193358233676,1.00000000129113,0.628261013126825
23299.9999999414,24.9313865232697,1.00000000128829,0.632155122128008
23399.99999994,24.9449115378073,1.0000000013669,0.62783145790904
23499.9999999385,24.9595466437362,1.00000000127321,0.627204346944022
23599.9999999371,24.9737993634549,1.00000000135033,0.627485630371193
23699.9999999356,24.9815959553422,1.00000000139819,0.630228803342279
23799.9999999342,24.9847639790408,1.00000000136248,0.640249310912545
23899.9999999327,24.9860176499019,1.00000000128934,0.646202614202494
23999.9999999312,24.9856473556838,1.00000000132131,0.6475885713463
24099.9999999298,24.9822552036872,1.00000000137415,0.648932721243366
24199.9999999283,24.9756278616748,1.00000000133075,0.645411154272005
24299.9999999269,24.9703128480121,1.00000000129105,0.641718647724908
24399.9999999254,24.9665530078229,1.00000000137677,0.633505888011842
24499.999999924,24.9597733161483,1.00000000138179,0.639307107626362
24599.9999999225,24.9487865356434,1.00000000133065,0.630478557316285
24699.9999999211,24.9355307904591,1.00000000136963,0.638357567751096
24799.9999999196,24.9178944941726,1.00000000142315,0.640154601202086
24899.9999999181,24.8971478129348,1.0000000013175,0.641328948450377
24999.9999999167,24.8753604562959,1.00000000134349,0.648184308690044
25099.9999999152,24.8518204537949,1.00000000135617,0.645091322478496
25199.9999999138,24.8282640125265,1.00000000129968,0.642695558147335
25299.9999999123,24.8053647118706,1.00000000130812,0.644391229212483
25399.9999999109,24.7793465293451,1.00000000129708,0.650103884501517
25499.9999999094,24.7517942577783,1.00000000126675,0.640178344962198
25599.999999908,24.7211227742717,1.00000000133268,0.644893713056982
25699.9999999065,24.687370522562,1.00000000136307,0.651186009057075
25799.9999999051,24.6502790123008,1.00000000136756,0.65171105300527
25899.9999999036,24.6120222418516,1.0000000013732,0.651182507156862
25999.9999999021,24.5713416448276,1.00000000142413,0.65042830721293
26099.9999999007,24.526427220781,1.00000000150037,0.653537094804338
26199.9999998992,24.4772921896995,1.00000000144518,0.657989754805949
26299.9999998978,24.4262984186535,1.00000000133328,0.656399099420791
26399.9999998963,24.3739552130013,1.00000000136871,0.660253311014766
26499.9999998949,24.3217434099713,1.00000000132092,0.663284439046206
26599.9999998934,24.2718350751985,1.00000000130248,0.662081967774792
26699.999999892,24.226589804839,1.00000000120864,0.650941736894231
26799.9999998905,24.1861548480288,1.00000000122196,0.642332195740509
26899.999999889,24.1511774679125,1.00000000129787,0.643061551440975
26999.9999998876,24.1210715267217,1.00000000127402,0.643389756711942
27099.9999998861,24.0962204347519,1.00000000135555,0.642350776454295
27199.9999998847,24.0752961806934,1.00000000136273,0.647469838224231
27299.9999998832,24.0583306983351,1.00000000136461,0.640714254230064
27399.9999998818,24.0463648679178,1.0000000013379,0.633588430122886
27499.9999998803,24.037319806944,1.00000000139773,0.634855198113619
27599.9999998789,24.0331985583126,1.00000000136452,0.629407415058116
27699.9999998774,24.0327896002878,1.00000000142159,0.626569753772553
27799.9999998759,24.0348219395741,1.00000000131442,0.626087583221784
27899.9999998745,24.0412567726032,1.00000000133243,0.625702318242866
27999.999999873,24.0529575890704,1.00000000142738,0.624577940544994
28099.9999998716,24.0659816396311,1.00000000147077,0.626804198637657
28199.9999998701,24.0834486915753,1.00000000137123,0.617281409928469
28299.9999998687,24.105037381649,1.00000000142087,0.620020907680977
28399.9999998672,24.1251516611463,1.00000000151647,0.611678965398161
28499.9999998658,24.146518738045,1.00000000131998,0.606512437350177
28599.9999998643,24.172405720992,1.00000000134803,0.610530499164435
28699.9999998629,24.1999752273203,1.00000000151787,0.605133248539815
28799.9999998614,24.2292158182886,1.00000000138436,0.594350697663991
28899.9999998599,24.2609449497936,1.000000001353,0.597350123218849
28999.9999998585,24.2958642888738,1.00000000132555,0.597721864310687
