Time,AGPnorm,Energy,Entropy
0,0,1,-7.40906787096632e-17
99.9999999999986,0.00207293268153343,1.00000000000103,0.00631258061626307
199.999999999993,0.0140991403982036,1.00000000000064,0.0181699514298907
300,0.0277858583145994,0.999999999999802,0.0333229358688982
400.000000000022,0.0420200691436015,1.00000000000016,0.0524383742670859
500.000000000045,0.0575257698274502,0.999999999999933,0.0760350917890761
600.000000000068,0.0788616830654142,1.00000000000081,0.104162626209057
700.000000000091,0.0974550061811249,1.00000000000054,0.137753364131123
800.000000000113,0.116742916459093,1.00000000000977,0.179575065811366
900.000000000136,0.134561304326624,1.00000000011018,0.235537394233331
1000.00000000016,0.148845332128078,1.00000000042513,0.299723735559515
1100.0000000001,0.208429725926984,1.00000000094161,0.361360785165969
1200,0.384489963638811,1.00000000147616,0.413122591709465
1299.99999999991,0.738891763360716,1.00000000196853,0.457273529174613
1399.99999999982,1.38459596732321,1.00000000231027,0.492998433548593
1499.99999999973,2.4347482741427,1.00000000261238,0.521658678492822
1599.99999999964,3.91446104413778,1.00000000273545,0.544038335637917
1699.99999999955,5.79214090234206,1.00000000295569,0.56178345317099
1799.99999999946,8.04269920677632,1.00000000280701,0.574903212988828
1899.99999999937,10.592280198125,1.00000000279227,0.584045382788688
1999.99999999928,13.3346757907439,1.00000000282934,0.590574047606232
2099.99999999919,16.1881716561857,1.00000000284559,0.594898814511479
2199.99999999909,19.0809309899002,1.00000000259625,0.596940915311178
2299.999999999,21.9312813951314,1.00000000263558,0.59719640737304
2399.99999999891,24.6488056863488,1.00000000244214,0.596736957705524
2499.99999999882,27.1835310590368,1.00000000227516,0.596181096103389
2599.99999999873,29.5091268374172,1.00000000221649,0.593412099239904
2699.99999999864,31.6016644649748,1.00000000206298,0.590080269847139
2799.99999999855,33.4336626178304,1.00000000199709,0.58764897730283
2899.99999999846,34.9868800446411,1.00000000199318,0.586809969159094
2999.99999999837,36.2677114679421,1.0000000019245,0.585455822574505
3099.99999999828,37.2903900314861,1.00000000180816,0.583637244304434
3199.99999999819,38.0638198566632,1.00000000170229,0.581875619558552
3299.99999999809,38.5991608624836,1.00000000163243,0.578608822493805
3399.999999998,38.9167710198361,1.00000000160923,0.579455961932132
3499.99999999791,39.0444555354623,1.00000000156725,0.572650079943144
3599.99999999782,39.0152423595065,1.00000000156708,0.578604454883614
3699.99999999773,38.8389351585248,1.00000000153051,0.568473765190284
3799.99999999764,38.5631365348342,1.00000000156369,0.570619086833951
3899.99999999755,38.175871316029,1.00000000164079,0.568172414407321
3999.99999999746,37.741892238816,1.00000000154393,0.561274453042923
4099.99999999738,37.2292302487454,1.00000000157274,0.554738913770314
4199.99999999775,36.7044559388663,1.00000000165947,0.557124183841346
4299.99999999811,36.133398730624,1.00000000137096,0.529220273651543
4399.99999999848,35.5499366666161,1.00000000185856,0.574085676513018
4499.99999999884,34.9637444433692,1.00000000132965,0.525908174434406
4599.9999999992,34.3541287951128,1.00000000168,0.541187199353992
4699.99999999957,33.764794941527,1.00000000192423,0.547493451277807
4799.99999999993,33.1744437400442,1.0000000014292,0.515254382964122
4900.00000000029,32.5769380106298,1.000000001656,0.534965322416025
5000.00000000066,32.0013139969673,1.00000000192051,0.53753978165238
5100.00000000102,31.4365345693919,1.0000000014248,0.505007847656802
5200.00000000139,30.8741159261441,1.00000000166626,0.522392751128009
5300.00000000175,30.3255790958029,1.00000000196221,0.541088036037393
5400.00000000211,29.7947425825099,1.00000000162792,0.501330603174975
5500.00000000248,29.2760436870689,1.00000000154369,0.517251556977417
5600.00000000284,28.7683490385294,1.00000000164832,0.530841268266062
5700.00000000321,28.2759296243686,1.00000000182068,0.52523165686654
5800.00000000357,27.7990121043742,1.00000000161407,0.513185453102324
5900.00000000393,27.3394198958484,1.00000000132816,0.503923543744296
6000.0000000043,26.8934514058501,1.00000000178508,0.546940930086061
6100.00000000466,26.4627002301786,1.00000000154153,0.512898911167838
6200.00000000502,26.0478253128941,1.00000000166869,0.518646347880513
6300.00000000539,25.6468935961446,1.00000000164112,0.510259651799635
6400.00000000575,25.2654984925257,1.00000000140844,0.50997989749474
6500.00000000612,24.8959490427669,1.00000000184197,0.548457337984907
6600.00000000648,24.5385491619216,1.00000000149455,0.527744936206931
6700.00000000684,24.1997981956217,1.00000000167121,0.505934304558883
6800.00000000721,23.8730787688473,1.00000000187977,0.525032019554372
6900.00000000757,23.5590084483961,1.00000000161266,0.504738738565993
7000.00000000793,23.2614554669623,1.00000000156807,0.525933327709906
7100.0000000083,22.9713900453791,1.00000000190523,0.54376910061876
7200.00000000866,22.6880886273426,1.00000000160707,0.533931338860175
7300.00000000903,22.4212678029199,1.00000000158359,0.509818559933229
7400.00000000939,22.1681474934434,1.00000000178329,0.523011081125437
7500.00000000975,21.9252393706292,1.00000000173724,0.524246660997844
7600.00000001012,21.6946687465473,1.00000000163746,0.513493239493904
7700.00000001048,21.4748519861988,1.00000000180896,0.538349994319962
7800.00000001084,21.2621540917443,1.00000000158758,0.545884550010558
7900.00000001121,21.0532593774624,1.00000000180581,0.538111033292723
8000.00000001157,20.8503598896568,1.00000000162706,0.548325463853191
8100.00000001194,20.6571450559253,1.00000000166454,0.536470959418933
8200.0000000123,20.4770438873789,1.00000000155703,0.526281222454574
8300.00000001266,20.311271334699,1.00000000172484,0.541816426750787
8400.00000001303,20.1543900572638,1.00000000171349,0.537053128113166
8500.00000001339,20.0065621400349,1.00000000156304,0.538792880983198
8600.00000001376,19.8614417890052,1.00000000185178,0.558541968244094
8700.00000001412,19.7210842182995,1.00000000153652,0.550517380503688
8800.00000001448,19.5927974413512,1.00000000161529,0.548109584018295
8900.00000001485,19.462526414307,1.00000000180309,0.554738187698584
9000.00000001521,19.3269945615535,1.00000000174988,0.569069395460667
9100.00000001557,19.1953802909268,1.00000000150254,0.550687916646857
9200.00000001594,19.0799799447482,1.00000000160855,0.537766929754881
9300.0000000163,18.9768891606233,1.00000000175969,0.559960956940159
9400.00000001667,18.8813294905028,1.00000000166259,0.550431303748039
9500.00000001703,18.7921498095137,1.00000000175411,0.552571549148462
9600.00000001739,18.7080803893671,1.0000000017174,0.560351698780237
9700.00000001776,18.6244309290669,1.00000000184284,0.562258012196314
9800.00000001812,18.5400048249333,1.00000000174368,0.565424329191463
9900.00000001848,18.4637562167495,1.00000000159357,0.554837761386858
10000.0000000188,18.395255534766,1.00000000177948,0.566762516469099
10100.0000000192,18.3207097026262,1.00000000192526,0.573292456624441
10200.0000000196,18.2409766899848,1.00000000182191,0.568375960193202
10300.0000000199,18.158587892359,1.00000000172283,0.576452620275127
10400.0000000203,18.0786919571229,1.00000000166982,0.581668579295603
10500.0000000207,18.0055981439923,1.00000000164614,0.5693123095765
10600.000000021,17.942326249962,1.0000000016911,0.579123687029775
10700.0000000214,17.8867450039231,1.00000000174897,0.573139600473546
10800.0000000218,17.8427586956651,1.00000000162039,0.564058961287216
10900.0000000221,17.8055554635107,1.0000000017305,0.564773405280418
11000.0000000225,17.7689750575331,1.00000000178863,0.58134195926075
11100.0000000229,17.7305892831337,1.00000000182574,0.584932280469429
11200.0000000232,17.6954112012672,1.00000000174707,0.578405556373742
11300.0000000236,17.6613210959825,1.00000000176816,0.585776988085998
11400.0000000239,17.6254803269,1.00000000185311,0.582697999040573
11500.0000000243,17.5910199189824,1.00000000167279,0.581537406983755
11600.0000000247,17.5596493270891,1.00000000174294,0.58641962798814
11700.000000025,17.5273349564432,1.00000000171692,0.585214865791256
11800.0000000254,17.4969516082887,1.00000000189289,0.585233927190993
11900.0000000258,17.459421756327,1.00000000198562,0.593824143509156
12000.0000000261,17.4124749212852,1.00000000192207,0.602579630109613
12100.0000000265,17.3599672796853,1.0000000018229,0.613174296286257
12200.0000000269,17.3094647573774,1.00000000167379,0.600940459125712
12300.0000000272,17.2671415959228,1.00000000171159,0.594604591343143
12400.0000000276,17.2357571300089,1.00000000174459,0.588229097527624
12500.0000000279,17.2150150510914,1.00000000172694,0.579793278157554
12600.0000000283,17.2053673042215,1.00000000173438,0.573982268435288
12700.0000000287,17.2018052873549,1.0000000017589,0.587708302542904
12800.000000029,17.1969372824445,1.00000000190371,0.592226209973108
12900.0000000294,17.1896336617745,1.00000000182622,0.590977121931281
13000.0000000298,17.1842674316925,1.00000000180744,0.593256951061403
13100.0000000301,17.1804405731116,1.00000000180012,0.597191075392937
13200.0000000305,17.1792765578864,1.00000000174432,0.592163265566309
13300.0000000309,17.1769008799856,1.00000000196351,0.59574365297426
13400.0000000312,17.1667749499844,1.00000000194023,0.603806995348832
13500.0000000316,17.1567679775296,1.00000000171887,0.597812033922089
13600.0000000319,17.1524111621621,1.00000000180076,0.59736817626801
13700.0000000323,17.1505396924366,1.00000000183974,0.609442654530466
13800.0000000327,17.1469910477734,1.00000000187004,0.615064160428392
13900.000000033,17.1393745847329,1.00000000187162,0.616119608786912
14000.0000000334,17.1310356242772,1.00000000165722,0.622759703866435
14100.0000000338,17.1214438430187,1.00000000181391,0.619154763637802
14200.0000000341,17.1057216424876,1.00000000196003,0.622539019892243
14300.0000000345,17.0819675243575,1.00000000204683,0.625514697680371
14400.0000000349,17.0500815686822,1.00000000194345,0.618695229788314
14500.0000000352,17.0126402746329,1.00000000176448,0.621710728127337
14600.0000000356,16.9755073046912,1.00000000177887,0.61986965294658
14700.0000000359,16.9439750581122,1.00000000180396,0.616565885661332
14800.0000000363,16.9224715041005,1.00000000175072,0.607116821405013
14900.0000000367,16.9103919128341,1.00000000183195,0.604591930411408
15000.000000037,16.9049691049141,1.00000000182684,0.601316028593685
15100.0000000374,16.9094186814784,1.00000000184953,0.596439092118996
15200.0000000378,16.9222195112767,1.00000000184125,0.591824423807708
15300.0000000381,16.9370825940552,1.00000000197817,0.595686061888711
15400.0000000385,16.9505599942431,1.00000000193445,0.609465605020311
15500.0000000389,16.9655144166945,1.00000000187113,0.609783133745445
15600.0000000392,16.9778240522383,1.00000000194886,0.608159404042093
15700.0000000396,16.994543372421,1.00000000171364,0.598636638152612
15800.0000000399,17.0147941927287,1.00000000198134,0.602387459244362
15900.0000000403,17.0292543033815,1.00000000207716,0.611791014881546
16000.0000000407,17.0380550924182,1.0000000020482,0.620231933971552
16100.000000041,17.0493029215314,1.00000000175639,0.612215654606321
16200.0000000414,17.0612763177979,1.00000000198106,0.612563284978871
16300.0000000418,17.0681823666758,1.00000000194502,0.615091774742546
16400.0000000418,17.0756374803493,1.00000000189101,0.602335143325731
16500.0000000404,17.0824353788631,1.00000000201032,0.600167058126481
16600.0000000389,17.0931693838619,1.00000000184219,0.605148096559543
16700.0000000375,17.1080399894353,1.00000000192191,0.615549595760869
16800.000000036,17.1199876506369,1.00000000196165,0.621828989219222
16900.0000000346,17.1304406044101,1.0000000019197,0.636295857625698
17000.0000000331,17.1404851642427,1.00000000188707,0.638267025840535
17100.0000000317,17.1445831890908,1.00000000216407,0.633677383253794
17200.0000000302,17.1414304272989,1.00000000211378,0.640634622116367
17300.0000000287,17.1376141332838,1.00000000198421,0.638861773580644
17400.0000000273,17.1324156190326,1.00000000205323,0.645773383051185
17500.0000000258,17.1262756176795,1.00000000197369,0.643994195150648
17600.0000000244,17.1211509828751,1.00000000193404,0.646234254315636
17700.0000000229,17.112033392589,1.00000000203571,0.650052104836811
17800.0000000215,17.0955013102973,1.00000000201618,0.644617932491286
17900.00000002,17.0760982832842,1.0000000019594,0.632370439115913
18000.0000000186,17.0529540417119,1.00000000219894,0.636057519764716
18100.0000000171,17.0220602429589,1.00000000223518,0.625321917956672
18200.0000000156,16.9872854982544,1.00000000213606,0.631582824631895
18300.0000000142,16.9556429842105,1.00000000191146,0.632008606885931
18400.0000000127,16.9302729017978,1.00000000185125,0.620830016871687
18500.0000000113,16.9142821224151,1.0000000019614,0.614250890773064
18600.0000000098,16.90812238387,1.00000000208056,0.615053554190252
18700.0000000084,16.9083193371256,1.00000000202075,0.621630979359162
18800.0000000069,16.9152905670955,1.00000000193057,0.612343241024535
18900.0000000055,16.9315995565719,1.0000000019364,0.605778919980836
19000.000000004,16.9564690857649,1.00000000200557,0.604415716412484
19100.0000000026,16.9842223425868,1.00000000207544,0.609123843842439
19200.0000000011,17.0102534246398,1.00000000210279,0.603486679296566
19299.9999999996,17.0372512357993,1.0000000021156,0.613776881338394
19399.9999999982,17.0659494357123,1.0000000021038,0.615205626414066
19499.9999999967,17.094780524096,1.00000000203967,0.622168001029213
19599.9999999953,17.1279514293469,1.00000000187452,0.61937054084074
19699.9999999938,17.1625821748089,1.00000000213697,0.604576688467003
19799.9999999924,17.1925466720217,1.0000000022192,0.610119650781253
19899.9999999909,17.2217902068582,1.0000000020091,0.616019481575789
19999.9999999895,17.2539451822731,1.00000000220564,0.615218142382751
20099.999999988,17.2812807092456,1.0000000021291,0.621512648658221
20199.9999999865,17.301900637139,1.00000000227716,0.627152951819354
20299.9999999851,17.3209560505912,1.00000000211792,0.618494192914694
20399.9999999836,17.3439639034211,1.00000000204576,0.617157845928426
20499.9999999822,17.3705622368584,1.00000000211333,0.620714158303586
20599.9999999807,17.3964209078206,1.00000000226496,0.627945894346199
20699.9999999793,17.4191196084678,1.00000000217343,0.631927028853534
20799.9999999778,17.4421032218208,1.00000000211551,0.634198193096854
20899.9999999764,17.4680180555545,1.0000000020583,0.647668439158157
20999.9999999749,17.4954524307226,1.00000000220163,0.644918408485148
21099.9999999734,17.5194181352836,1.00000000226208,0.643208022002886
21199.999999972,17.5379679000902,1.00000000226413,0.646511392685875
21299.9999999705,17.5552471251822,1.00000000220594,0.642651569446305
21399.9999999691,17.5701240612743,1.00000000229584,0.659843050273922
21499.9999999676,17.5856768909227,1.00000000207795,0.65403375069251
21599.9999999662,17.6058810238834,1.00000000206943,0.651735724948941
21699.9999999647,17.6266951594553,1.00000000229245,0.655804616938746
21799.9999999633,17.6466785011044,1.00000000224857,0.662984320291316
21899.9999999618,17.6675497063142,1.00000000208693,0.664161836967158
21999.9999999603,17.6885297225812,1.00000000219885,0.659815015790967
22099.9999999589,17.7065971353096,1.0000000023075,0.663348354530893
22199.9999999574,17.7204702429351,1.00000000226985,0.657428634401501
22299.999999956,17.7320863701878,1.00000000232342,0.661626441249024
22399.9999999545,17.7412248756784,1.00000000223452,0.651948079240391
22499.9999999531,17.7509944958575,1.00000000205887,0.657448650223174
22599.9999999516,17.7586255985286,1.00000000224536,0.66067573174062
22699.9999999502,17.7664097894933,1.00000000227831,0.659977773566081
22799.9999999487,17.7701338107577,1.00000000234546,0.661028004288367
22899.9999999473,17.771025093817,1.00000000220023,0.665809315122594
22999.9999999458,17.7700975875263,1.00000000231258,0.668175697982771
23099.9999999443,17.7673789963758,1.0000000021934,0.668185342627913
23199.9999999429,17.7634237224085,1.00000000225469,0.660379266571325
23299.9999999414,17.758520971367,1.00000000221171,0.672707753598297
23399.99999994,17.7527606488669,1.00000000221405,0.678467569399242
23499.9999999385,17.7466197705368,1.00000000230172,0.674640863961065
23599.9999999371,17.7388118678324,1.00000000229596,0.665302153495884
23699.9999999356,17.7282115326247,1.00000000232245,0.663452472661124
23799.9999999342,17.7137655791896,1.00000000245502,0.668621774371194
23899.9999999327,17.6956425145618,1.00000000248103,0.67660455277868
23999.9999999312,17.6741127992477,1.0000000022828,0.666678028352796
24099.9999999298,17.652623729767,1.0000000023691,0.66398857773368
24199.9999999283,17.6289456671886,1.00000000239369,0.679442942586831
24299.9999999269,17.6067605655861,1.00000000227577,0.678846124054011
24399.9999999254,17.5866335639103,1.00000000220064,0.675575823368611
24499.999999924,17.567958815739,1.00000000231148,0.669472986668139
24599.9999999225,17.5532379101359,1.00000000229253,0.659149955334191
24699.9999999211,17.5459688165533,1.00000000223047,0.646042361211876
24799.9999999196,17.547248037128,1.00000000242971,0.632334323118599
24899.9999999181,17.5542955737959,1.00000000229259,0.635088471311532
24999.9999999167,17.5665061049371,1.00000000230922,0.63572238125184
25099.9999999152,17.5863418280637,1.00000000210763,0.637253374710229
25199.9999999138,17.6141542828141,1.00000000219061,0.634512416015322
25299.9999999123,17.6482226920608,1.00000000243481,0.635827231699045
25399.9999999109,17.6898521154264,1.00000000224208,0.632688164097847
25499.9999999094,17.7328837008389,1.00000000243957,0.635660538554465
25599.999999908,17.7761466144688,1.00000000239663,0.639006292939925
25699.9999999065,17.8196935399841,1.00000000256175,0.642422003690195
25799.9999999051,17.8613204089189,1.00000000244761,0.640645038417863
25899.9999999036,17.9049676280962,1.00000000212645,0.636881604473437
25999.9999999021,17.9538811349551,1.00000000234239,0.634004629540698
26099.9999999007,18.0035160196569,1.00000000245655,0.637359153475134
26199.9999998992,18.0556722718958,1.00000000229857,0.638256546331192
26299.9999998978,18.1120494100341,1.00000000238531,0.633141032617689
26399.9999998963,18.166331051838,1.00000000246127,0.639577833036606
26499.9999998949,18.2175446257416,1.0000000023332,0.645278585047048
26599.9999998934,18.2683982821628,1.00000000237861,0.635527104976571
26699.999999892,18.3174681107222,1.00000000237965,0.639092792825537
26799.9999998905,18.365888533857,1.00000000252566,0.646971435278204
26899.999999889,18.4106599251776,1.00000000245806,0.648854611669278
26999.9999998876,18.4546333465003,1.00000000241355,0.63808971876232
27099.9999998861,18.4988251238382,1.00000000255883,0.641779628546418
27199.9999998847,18.5415202000777,1.00000000242626,0.637394706738221
27299.9999998832,18.5849719184362,1.00000000241878,0.644496805763097
27399.9999998818,18.6286833659161,1.00000000257412,0.64993900772441
27499.9999998803,18.6712183242993,1.0000000025312,0.653351953611117
27599.9999998789,18.7170041802228,1.00000000244606,0.657503038856759
27699.9999998774,18.7666479271282,1.00000000247288,0.653570135677859
27799.9999998759,18.8180808819119,1.00000000250957,0.658186357926743
27899.9999998745,18.8701024033002,1.00000000241885,0.659418536227001
27999.999999873,18.9204940044206,1.00000000249409,0.663493437346098
28099.9999998716,18.9693933768579,1.00000000255781,0.671174355683861
28199.9999998701,19.0152359054547,1.00000000268833,0.675179789453534
28299.9999998687,19.0587490290254,1.00000000253729,0.668006520055717
28399.9999998672,19.0999238161473,1.00000000264206,0.662253362507247
28499.9999998658,19.1390033517957,1.00000000260865,0.673214983857127
28599.9999998643,19.178902983897,1.00000000264185,0.679215616310127
28699.9999998629,19.217892959596,1.00000000261769,0.6782793879596
28799.9999998614,19.2518523146048,1.00000000267068,0.682157019693919
28899.9999998599,19.2818872906922,1.00000000264164,0.690254752166151
28999.9999998585,19.3140720195515,1.00000000243394,0.677748619732254
