Time,AGPnorm,Energy,Entropy
0,0,1,-1.37146697194575e-17
99.9999999999986,4.40568953401894e-05,1.0000000000015,0.0016370965008684
199.999999999993,0.00358793648395209,1.00000000000068,0.00256085649453151
300,0.0089816549943681,1.00000000000053,0.0045863711546454
400.000000000022,0.0121049239478771,1.00000000000162,0.0077570771612883
500.000000000045,0.0150202992303862,1.00000000000002,0.0104138362423046
600.000000000068,0.0220542523950723,1.00000000000141,0.0144419639960115
700.000000000091,0.0271549220839975,1.00000000000079,0.0183907693497366
800.000000000113,0.0338637206305289,1.0000000000004,0.0227373777928253
900.000000000136,0.0421006143868526,1.00000000000172,0.0278493356364076
1000.00000000016,0.0497002849237174,1.00000000000007,0.0327221993362689
1100.0000000001,0.0593140352848111,1.00000000000128,0.0384179701768309
1200,0.0686394806222171,1.00000000000087,0.0442715356560503
1299.99999999991,0.0783758638219264,1.00000000000027,0.0503830480372066
1399.99999999982,0.0898472219178225,1.00000000000186,0.0571535072837486
1499.99999999973,0.100847945247196,1.00000000000014,0.0639465003674655
1599.99999999964,0.111782839947654,1.00000000000106,0.0713861506117627
1699.99999999955,0.123422704684149,1.00000000000101,0.0791494794781632
1799.99999999946,0.135757707849034,1.00000000000021,0.0872764664850623
1899.99999999937,0.149101395733121,1.00000000000192,0.0961723198954775
1999.99999999928,0.161677172115793,1.00000000000015,0.105364811936164
2099.99999999919,0.173102673470666,1.00000000000083,0.115291687785301
2199.99999999909,0.185907356716489,1.0000000000014,0.125984303423007
2299.999999999,0.199554969979782,1.00000000000048,0.13751035970031
2399.99999999891,0.212968214597751,1.00000000000244,0.150467484164567
2499.99999999882,0.225099841127265,1.00000000000283,0.164604749546452
2599.99999999873,0.237031628474412,1.00000000000909,0.180407137319222
2699.99999999864,0.250197358745709,1.00000000002295,0.198179378247227
2799.99999999855,0.262682515811702,1.00000000004655,0.217230005439119
2899.99999999846,0.27925677074853,1.00000000008834,0.237314798268952
2999.99999999837,0.289517665728649,1.00000000013205,0.257385646750078
3099.99999999828,0.31248668435939,1.00000000020828,0.277228592146921
3199.99999999819,0.348274142010655,1.00000000027306,0.297098382285502
3299.99999999809,0.390257279492546,1.0000000003524,0.316225945332465
3399.999999998,0.478758809297587,1.00000000043775,0.334744807583481
3499.99999999791,0.591599420416468,1.00000000050627,0.352495261276259
3599.99999999782,0.769536929115753,1.0000000006124,0.369653494461606
3699.99999999773,1.03235987940376,1.00000000066589,0.386360991721695
3799.99999999764,1.36802394844008,1.00000000073113,0.402064252633902
3899.99999999755,1.83817935364595,1.00000000080896,0.41685808314453
3999.99999999746,2.42884514733901,1.0000000008385,0.430938027670774
4099.99999999738,3.17027493485942,1.00000000094508,0.444296294608025
4199.99999999775,4.09287114223598,1.00000000098036,0.456885661470255
4299.99999999811,5.18493966058354,1.00000000104468,0.468453918599284
4399.99999999848,6.48473917709096,1.00000000103984,0.47958661227202
4499.99999999884,7.98740134947157,1.0000000011332,0.489777419543853
4599.9999999992,9.70588608811974,1.00000000113061,0.499530909791241
4699.99999999957,11.6499645947361,1.00000000117644,0.508394993220398
4799.99999999993,13.8157543399399,1.00000000121871,0.516213252241225
4900.00000000029,16.2069997839077,1.00000000121631,0.524206829975186
5000.00000000066,18.8127855882333,1.00000000124384,0.53126151229961
5100.00000000102,21.6450097012981,1.00000000121576,0.537855179810773
5200.00000000139,24.6794230042322,1.00000000127368,0.543888175144764
5300.00000000175,27.9167108569179,1.00000000122929,0.549207692872928
5400.00000000211,31.3473657471307,1.00000000123538,0.554561944514945
5500.00000000248,34.9400523708137,1.00000000122766,0.559313493515841
5600.00000000284,38.7164876473006,1.00000000126985,0.563124811203884
5700.00000000321,42.6303273657062,1.00000000125054,0.567476469235742
5800.00000000357,46.677205368285,1.00000000117382,0.571133984157819
5900.00000000393,50.856202753344,1.00000000127241,0.574216508771618
6000.0000000043,55.1158352265187,1.00000000122314,0.577405392139133
6100.00000000466,59.4839023610761,1.00000000123871,0.579326498995189
6200.00000000502,63.914301296001,1.00000000120361,0.582191061802806
6300.00000000539,68.3893457860731,1.00000000123691,0.584299640111276
6400.00000000575,72.9245236182519,1.00000000123163,0.585869313204228
6500.00000000612,77.4600706898578,1.00000000123332,0.587829041666568
6600.00000000648,82.0209629778405,1.00000000115191,0.588969223973869
6700.00000000684,86.5763330709917,1.00000000114539,0.590580120412038
6800.00000000721,91.09554350884,1.00000000117891,0.591706215225921
6900.00000000757,95.6054780525133,1.00000000108834,0.592403021828725
7000.00000000793,100.05199857085,1.00000000112782,0.593387194066891
7100.0000000083,104.451663246313,1.00000000112711,0.593781206551094
7200.00000000866,108.7903419719,1.00000000109131,0.594284086341872
7300.00000000903,113.032527087943,1.00000000109536,0.595128680141658
7400.00000000939,117.209567626407,1.00000000108051,0.594578668020552
7500.00000000975,121.279070901478,1.0000000010532,0.595460936040749
7600.00000001012,125.24886598515,1.00000000103353,0.595183790557761
7700.00000001048,129.118475437313,1.00000000101427,0.59560924764213
7800.00000001084,132.853422293014,1.00000000099078,0.595350550451241
7900.00000001121,136.48550317817,1.00000000101366,0.595147887124338
8000.00000001157,139.983407275337,1.0000000009628,0.595304302561402
8100.00000001194,143.351042903097,1.00000000096796,0.595240087906492
8200.0000000123,146.594300340336,1.00000000098407,0.594037913178002
8300.00000001266,149.68772783096,1.00000000092781,0.594941134785875
8400.00000001303,152.654110068285,1.00000000095309,0.593210852179515
8500.00000001339,155.479226060429,1.00000000094256,0.593851518773976
8600.00000001376,158.156812554445,1.0000000008832,0.592795591846907
8700.00000001412,160.703116167024,1.00000000088196,0.59308437188946
8800.00000001448,163.093403884777,1.00000000086457,0.591894931579103
8900.00000001485,165.351853208596,1.00000000088016,0.592298254132191
9000.00000001521,167.467349335352,1.000000000844,0.590236876908861
9100.00000001557,169.435710849959,1.00000000084225,0.592081790696538
9200.00000001594,171.274486294997,1.0000000008072,0.589300365709271
9300.0000000163,172.96359571557,1.00000000079995,0.590752125970107
9400.00000001667,174.525033229814,1.00000000079773,0.589338272967067
9500.00000001703,175.951030363891,1.00000000078398,0.588606823296009
9600.00000001739,177.240016273768,1.00000000077683,0.589724137179376
9700.00000001776,178.40750158097,1.00000000077547,0.587750812184354
9800.00000001812,179.440633958646,1.00000000074258,0.588022921480088
9900.00000001848,180.35462252672,1.00000000076708,0.588624612256987
10000.0000000188,181.151217884088,1.00000000075242,0.587638218238397
10100.0000000192,181.824171698737,1.00000000070513,0.586910907751466
10200.0000000196,182.390556270327,1.00000000077414,0.589449977786221
10300.0000000199,182.846518555388,1.00000000073155,0.586480450802464
10400.0000000203,183.196054405633,1.00000000068769,0.584357177963714
10500.0000000207,183.446908537038,1.0000000007173,0.589299615327144
10600.000000021,183.60134757899,1.00000000069317,0.585734285444889
10700.0000000214,183.664522126282,1.00000000065536,0.58108269868395
10800.0000000218,183.636738959852,1.000000000703,0.587676906256395
10900.0000000221,183.535373129041,1.00000000069121,0.585414388969678
11000.0000000225,183.356559975694,1.00000000065469,0.57761266471667
11100.0000000229,183.096511809749,1.00000000069246,0.582241281503371
11200.0000000232,182.77899831332,1.00000000071342,0.585495380396506
11300.0000000236,182.400477847847,1.00000000067027,0.577821766429089
11400.0000000239,181.956839339927,1.00000000064413,0.572379138778604
11500.0000000243,181.456121922119,1.00000000070168,0.582951223610425
11600.0000000247,180.91179311444,1.00000000072378,0.582330533793356
11700.000000025,180.325837926723,1.00000000064274,0.570144222095082
11800.0000000254,179.682492307909,1.00000000064098,0.566592669182136
11900.0000000258,179.002166339827,1.00000000075418,0.58468044592337
12000.0000000261,178.301761258217,1.00000000072703,0.577641035642166
12100.0000000265,177.56381000183,1.00000000060778,0.561546006287619
12200.0000000269,176.78333336982,1.00000000065034,0.561377659956998
12300.0000000272,175.978030901453,1.00000000079588,0.585747427723386
12400.0000000276,175.163623616404,1.00000000075319,0.574008973122093
12500.0000000279,174.327238248746,1.00000000062673,0.557328853612648
12600.0000000283,173.453269535511,1.00000000061684,0.552606863831536
12700.0000000287,172.564301640437,1.00000000080087,0.580829293383648
12800.000000029,171.674265710781,1.0000000007887,0.575264202891103
12900.0000000294,170.775879711077,1.0000000006682,0.558159322456909
13000.0000000298,169.853870766322,1.00000000060016,0.544535257294316
13100.0000000301,168.910376590217,1.00000000074163,0.562298248491576
13200.0000000305,167.970122276175,1.00000000082115,0.582199763069489
13300.0000000309,167.035497464836,1.00000000074288,0.559883468061008
13400.0000000312,166.091334305433,1.00000000064347,0.547438748464009
13500.0000000316,165.131995969188,1.00000000064536,0.541853326153324
13600.0000000319,164.163031408632,1.00000000072679,0.562110977592711
13700.0000000323,163.204161366243,1.00000000090835,0.580267681192177
13800.0000000327,162.253898641423,1.00000000072591,0.548693499762731
13900.000000033,161.297871265085,1.00000000065539,0.541715080132512
14000.0000000334,160.334908555329,1.00000000067557,0.542091373187293
14100.0000000338,159.36664944098,1.00000000072303,0.551776865738124
14200.0000000341,158.40799511937,1.00000000088206,0.576035373320674
14300.0000000345,157.461159291901,1.00000000077653,0.550953894355158
14400.0000000349,156.514809597038,1.00000000065091,0.533377415726604
14500.0000000352,155.567605179661,1.00000000070256,0.543371722853245
14600.0000000356,154.61778645806,1.00000000068195,0.543212868860643
14700.0000000359,153.673608431838,1.0000000007982,0.558571066967259
14800.0000000363,152.740182895625,1.00000000085908,0.562998095373055
14900.0000000367,151.815057982819,1.00000000073454,0.536220718113431
15000.000000037,150.893901904263,1.00000000067434,0.530088677763487
15100.0000000374,149.973796526494,1.00000000072038,0.543624185056879
15200.0000000378,149.058175104554,1.00000000069992,0.545287819687463
15300.0000000381,148.148877554006,1.00000000075201,0.548086386119337
15400.0000000385,147.247898327798,1.00000000080905,0.554273195928567
15500.0000000389,146.356377807724,1.00000000074301,0.5376519459722
15600.0000000392,145.470593448887,1.0000000007156,0.527628975943361
15700.0000000396,144.590654873418,1.00000000068777,0.538514380084092
15800.0000000399,143.716150620836,1.00000000073245,0.548537301373543
15900.0000000403,142.848038429547,1.00000000075286,0.542818287024996
16000.0000000407,141.988067019446,1.00000000074801,0.538800421670202
16100.000000041,141.135804606276,1.00000000077837,0.542618323423032
16200.0000000414,140.291588585233,1.00000000078009,0.535962491349169
16300.0000000418,139.455306890828,1.00000000072703,0.527855707274768
16400.0000000418,138.625987510041,1.00000000070192,0.540624462995537
16500.0000000404,137.804537731317,1.00000000075133,0.549911625583444
16600.0000000389,136.9900131278,1.00000000071648,0.540832303595816
16700.0000000375,136.183059186544,1.00000000071165,0.533189522388237
16800.000000036,135.384203476015,1.00000000075488,0.535588627773556
16900.0000000346,134.593050602905,1.00000000075418,0.541197516458609
17000.0000000331,133.810399953283,1.00000000071884,0.535431863863222
17100.0000000317,133.035935592117,1.0000000007177,0.535999220891652
17200.0000000302,132.27013502759,1.00000000072413,0.546957763297969
17300.0000000287,131.51244397014,1.00000000067692,0.545858981693662
17400.0000000273,130.762268264031,1.00000000068196,0.535813802752162
17500.0000000258,130.02036126619,1.00000000071964,0.531084347351293
17600.0000000244,129.286716944342,1.00000000066878,0.53180859754818
17700.0000000229,128.561292062201,1.00000000073508,0.542492270558664
17800.0000000215,127.844194111443,1.00000000071312,0.545845599962707
17900.00000002,127.135135205872,1.00000000071799,0.540165560576617
18000.0000000186,126.434817453671,1.00000000073464,0.543742719185095
18100.0000000171,125.742967309034,1.00000000070333,0.546412413779764
18200.0000000156,125.060190880066,1.00000000066039,0.538599490769369
18300.0000000142,124.386267002945,1.00000000067274,0.528258988129459
18400.0000000127,123.720836548708,1.00000000071253,0.529478612843795
18500.0000000113,123.0640276092,1.00000000072073,0.533083755687904
18600.0000000098,122.41528510366,1.00000000075692,0.542952192538453
18700.0000000084,121.773969151897,1.00000000075729,0.549809683749221
18800.0000000069,121.140295737259,1.00000000070648,0.543698997927236
18900.0000000055,120.514079730492,1.00000000075692,0.546367967769237
19000.000000004,119.89604713715,1.00000000072639,0.546131854249085
19100.0000000026,119.287340112022,1.00000000065069,0.539116669415922
19200.0000000011,118.689225495996,1.00000000060441,0.523789808893475
19299.9999999996,118.101057735423,1.00000000068229,0.522492524994842
19399.9999999982,117.521133144228,1.00000000073445,0.532599005782927
19499.9999999967,116.948225542405,1.0000000007538,0.533765302419916
19599.9999999953,116.382667756738,1.00000000071959,0.53789844409895
19699.9999999938,115.823519922869,1.00000000074749,0.55024527675277
19799.9999999924,115.270059920616,1.00000000075561,0.55107925109633
19899.9999999909,114.722444059633,1.00000000078271,0.54826901094813
19999.9999999895,114.181163185405,1.00000000077058,0.546897732508526
20099.999999988,113.648663865501,1.00000000064465,0.536814969474487
20199.9999999865,113.128424978619,1.00000000059808,0.523528614440593
20299.9999999851,112.619655265051,1.00000000066133,0.51897708752612
20399.9999999836,112.120209657719,1.00000000074749,0.521674671564693
20499.9999999822,111.626377523812,1.00000000079318,0.53066802396891
20599.9999999807,111.13846862884,1.00000000069254,0.5269520460413
20699.9999999793,110.657037304238,1.00000000073062,0.531946915895202
20799.9999999778,110.179997951481,1.00000000078109,0.545872540747111
20899.9999999764,109.705715702623,1.00000000077289,0.555608345610207
20999.9999999749,109.234449194128,1.00000000079417,0.553824739025067
21099.9999999734,108.767781075154,1.000000000822,0.544524088896137
21199.999999972,108.308619411286,1.00000000070021,0.535198512437689
21299.9999999705,107.860409408144,1.00000000063222,0.526073714650923
21399.9999999691,107.42440867907,1.00000000065588,0.522954593296562
21499.9999999676,106.999381907803,1.00000000068166,0.521406198459134
21599.9999999662,106.581907268451,1.00000000072826,0.520030601211074
21699.9999999647,106.170138150217,1.00000000078908,0.524107050481045
21799.9999999633,105.762644724202,1.00000000076011,0.5246843798194
21899.9999999618,105.360306159337,1.00000000071771,0.526377611861791
21999.9999999603,104.961515214142,1.00000000078134,0.53764259700038
22099.9999999589,104.562816175933,1.00000000085066,0.547756070287651
22199.9999999574,104.164291024839,1.00000000080968,0.554729021055598
22299.999999956,103.767710500961,1.00000000076708,0.54930587370305
22399.9999999545,103.376642074292,1.00000000072866,0.534773292193281
22499.9999999531,102.993519783508,1.00000000070474,0.535293933428262
22599.9999999516,102.619950037033,1.00000000066842,0.531912898420139
22699.9999999502,102.257887591481,1.00000000066296,0.527351253859518
22799.9999999487,101.905340419369,1.00000000071256,0.530503032745645
22899.9999999473,101.561238249249,1.00000000070411,0.523231249854505
22999.9999999458,101.224334546635,1.00000000070053,0.520204480702615
23099.9999999443,100.892559491154,1.00000000073851,0.522223784727201
23199.9999999429,100.564987661425,1.0000000007263,0.528091717470005
23299.9999999414,100.239738394659,1.00000000074045,0.533433389090022
23399.99999994,99.9153982730602,1.00000000079677,0.540402588058119
23499.9999999385,99.5899416407739,1.00000000081668,0.543512506087368
23599.9999999371,99.2632477079777,1.00000000079713,0.547776075059511
23699.9999999356,98.9380620248927,1.00000000074938,0.548327991165345
23799.9999999342,98.6170383336559,1.00000000071055,0.544429651827244
23899.9999999327,98.3018983839315,1.0000000007038,0.538051071437472
23999.9999999312,97.9942459148143,1.00000000071692,0.539576561322548
24099.9999999298,97.6942100183685,1.00000000069193,0.541809345880192
24199.9999999283,97.4033506494297,1.00000000069842,0.535752451141499
24299.9999999269,97.1218547076803,1.00000000070031,0.531117696952273
24399.9999999254,96.8493026109288,1.00000000070155,0.528675863444746
24499.999999924,96.5844728891467,1.00000000070245,0.526685873905837
24599.9999999225,96.3257677618565,1.00000000073716,0.525423409276442
24699.9999999211,96.0711220040729,1.00000000075175,0.532346952701486
24799.9999999196,95.8180437663718,1.00000000076111,0.536827063287778
24899.9999999181,95.5659863669819,1.00000000076655,0.541821782838501
24999.9999999167,95.3144534181185,1.00000000076566,0.542893319249477
25099.9999999152,95.061610977646,1.00000000078848,0.542641147958892
25199.9999999138,94.8075931217077,1.00000000080774,0.541092365878602
25299.9999999123,94.5535553719501,1.0000000007588,0.547153016197837
25399.9999999109,94.3020892893005,1.00000000072445,0.547194381768611
25499.9999999094,94.0553177547589,1.00000000070457,0.546276160201382
25599.999999908,93.8125986606732,1.00000000076374,0.548400648554089
25699.9999999065,93.5740659144668,1.00000000073795,0.547942917173309
25799.9999999051,93.3414202840521,1.0000000007262,0.544583013579223
25899.9999999036,93.1159220585154,1.00000000071474,0.540226423248701
25999.9999999021,92.9001428710114,1.00000000063314,0.528370153231357
26099.9999999007,92.6951566281107,1.00000000064296,0.528181679462774
26199.9999998992,92.4983985400034,1.00000000073075,0.53241306274731
26299.9999998978,92.3060410109192,1.00000000077654,0.537283859964798
26399.9999998963,92.1164411639984,1.00000000075551,0.534597938014601
26499.9999998949,91.9302085479343,1.00000000070114,0.535312527575224
26599.9999998934,91.7453486115562,1.0000000007832,0.541331902971691
26699.999999892,91.5601405411166,1.00000000077375,0.548118306283691
26799.9999998905,91.3744361698977,1.00000000073627,0.548827621244918
26899.999999889,91.1882130424533,1.00000000076344,0.544084400274942
26999.9999998876,91.0015965352875,1.00000000077137,0.54095821592375
27099.9999998861,90.8138663309898,1.00000000079496,0.54028551661686
27199.9999998847,90.6266009655472,1.00000000072387,0.543271316125684
27299.9999998832,90.4409837692684,1.00000000073321,0.554208975896486
27399.9999998818,90.2562933383967,1.00000000076479,0.559577638340812
27499.9999998803,90.0727915756719,1.00000000076584,0.556002620854018
27599.9999998789,89.8912059826401,1.00000000076758,0.55382464455725
27699.9999998774,89.712557044806,1.00000000074014,0.547168649201755
27799.9999998759,89.5398540682034,1.0000000007021,0.542258154709417
27899.9999998745,89.3745787818261,1.00000000068907,0.534575820352398
27999.999999873,89.2193186408553,1.00000000064948,0.529886176620176
28099.9999998716,89.0739018036505,1.00000000066958,0.532339865559849
28199.9999998701,88.9355984375052,1.00000000072324,0.537310875988511
28299.9999998687,88.800370233876,1.00000000076157,0.540714569303426
28399.9999998672,88.6666300211999,1.00000000077388,0.541973608844439
28499.9999998658,88.534583284239,1.00000000076866,0.54400969411417
28599.9999998643,88.4041407076205,1.00000000073622,0.548106081918227
28699.9999998629,88.2740332179116,1.00000000075582,0.552325160375689
28799.9999998614,88.1422381676877,1.00000000079087,0.556193627640981
28899.9999998599,88.0085963044691,1.00000000078243,0.55894055679366
28999.9999998585,87.8746203782654,1.00000000078417,0.551321918964513
