Time,AGPnorm,Energy,Entropy
0,0,1,-7.28321897260217e-17
99.9999999999986,0.00043712938062365,0.999999999999283,0.00169931957736944
199.999999999993,0.00300647180056362,0.999999999998764,0.00506888316395763
300,0.00624041958000402,0.999999999999386,0.00946033863590328
400.000000000022,0.00968506637878982,1.00000000000012,0.014965809079707
500.000000000045,0.0136675840486751,0.999999999999516,0.0216870202076675
600.000000000068,0.0192567039649706,0.999999999998818,0.029367869045864
700.000000000091,0.0253639965887689,0.999999999999031,0.0377138826291817
800.000000000113,0.0317637879102472,1.00000000000006,0.0467955764590419
900.000000000136,0.0387746052059808,0.99999999999989,0.0568542660290384
1000.00000000016,0.0465739366466549,0.99999999999887,0.0677468491232138
1100.0000000001,0.0550562467147048,0.999999999998898,0.0795182124988174
1200,0.0630913534746647,0.999999999999701,0.0921265766244658
1299.99999999991,0.0720950630086375,1.00000000000029,0.105935180176188
1399.99999999982,0.0807280384622047,0.999999999999252,0.12101782089103
1499.99999999973,0.0902933916321172,0.999999999999139,0.137551136530933
1599.99999999964,0.0994249144234457,1.00000000000019,0.155897637535695
1699.99999999955,0.10895537461659,1.00000000000334,0.17647027211054
1799.99999999946,0.11793007124419,1.00000000000878,0.199894239580274
1899.99999999937,0.126778072216794,1.00000000001989,0.225957986908066
1999.99999999928,0.140365721295997,1.00000000004692,0.254329061426338
2099.99999999919,0.164407366633499,1.00000000008409,0.283517583343779
2199.99999999909,0.203424395146702,1.00000000013174,0.312696952232343
2299.999999999,0.274143222827699,1.00000000018147,0.340490645786697
2399.99999999891,0.420157719308203,1.0000000002476,0.36608539388177
2499.99999999882,0.686471176224399,1.00000000031286,0.389349904708943
2599.99999999873,1.10607689091837,1.00000000035994,0.410525428449112
2699.99999999864,1.72940928607108,1.00000000038361,0.429698984171793
2799.99999999855,2.62790019079051,1.0000000004445,0.446411757157631
2899.99999999846,3.86018999507788,1.00000000050667,0.461275783587639
2999.99999999837,5.45454805035221,1.00000000054327,0.474528213219415
3099.99999999828,7.44545823135693,1.00000000056165,0.486440112837723
3199.99999999819,9.87742952409122,1.00000000060939,0.496644650254081
3299.99999999809,12.7662603114818,1.0000000006099,0.505469755783726
3399.999999998,16.101467597158,1.00000000066096,0.513121247764377
3499.99999999791,19.8744191282005,1.00000000065792,0.520066415798931
3599.99999999782,24.0884597448008,1.00000000064636,0.525975673646319
3699.99999999773,28.7187177589628,1.00000000066298,0.530629241479036
3799.99999999764,33.7150074074088,1.00000000065923,0.534299511729382
3899.99999999755,39.0369862811238,1.00000000066373,0.538079944656353
3999.99999999746,44.661169820949,1.00000000069494,0.541129278655778
4099.99999999738,50.5498928818436,1.00000000069526,0.542603716825847
4199.99999999775,56.6381279044236,1.00000000068262,0.543947301620087
4299.99999999811,62.8675976460586,1.00000000066341,0.546265795224812
4399.99999999848,69.2060296400616,1.00000000062276,0.546580539734171
4499.99999999884,75.6268611708134,1.00000000063529,0.546471292950597
4599.9999999992,82.0690681664918,1.00000000060907,0.54720313145604
4699.99999999957,88.4765610662286,1.00000000061611,0.546263112226053
4799.99999999993,94.8185289440188,1.0000000006147,0.546386976618468
4900.00000000029,101.076745269895,1.00000000060703,0.54528214297522
5000.00000000066,107.213763017794,1.00000000061221,0.543900212731562
5100.00000000102,113.186543708607,1.00000000057969,0.54389580200351
5200.00000000139,118.967346370346,1.00000000057357,0.542329781762618
5300.00000000175,124.546310928253,1.00000000057426,0.540514508360557
5400.00000000211,129.91173131641,1.00000000054573,0.539830047116534
5500.00000000248,135.037237243327,1.00000000053223,0.538474827641026
5600.00000000284,139.899227068783,1.00000000052479,0.536677771924759
5700.00000000321,144.492857861687,1.00000000052373,0.535600717817559
5800.00000000357,148.819150372926,1.00000000050978,0.534719840455048
5900.00000000393,152.8678694778,1.00000000048112,0.532217626275806
6000.0000000043,156.624325656236,1.00000000046493,0.530312790014739
6100.00000000466,160.086142875592,1.00000000047723,0.530528761323035
6200.00000000502,163.262621100241,1.00000000045003,0.530523901128625
6300.00000000539,166.157115654705,1.00000000043208,0.525831636227092
6400.00000000575,168.7624220089,1.00000000042441,0.521881574160885
6500.00000000612,171.080260458877,1.00000000041783,0.524978834750872
6600.00000000648,173.130392522163,1.00000000042622,0.529231224798486
6700.00000000684,174.924492152925,1.00000000041346,0.524164893679142
6800.00000000721,176.453787867233,1.00000000038439,0.512593531105911
6900.00000000757,177.71097040337,1.0000000003729,0.512662488290361
7000.00000000793,178.723243491911,1.00000000040157,0.526709807250896
7100.0000000083,179.537200707491,1.00000000042686,0.534546417067514
7200.00000000866,180.164544141475,1.0000000003763,0.521997749432562
7300.00000000903,180.568439918056,1.00000000033234,0.497919341799826
7400.00000000939,180.725265475012,1.00000000032046,0.497421008025955
7500.00000000975,180.684791780318,1.0000000003712,0.524579751928203
7600.00000001012,180.53083858077,1.00000000041395,0.545291557986493
7700.00000001048,180.295855677923,1.00000000042357,0.537161057606951
7800.00000001084,179.932853904802,1.00000000034047,0.499280588157345
7900.00000001121,179.370232649427,1.00000000023969,0.468230133346356
8000.00000001157,178.612567486628,1.00000000028304,0.486829660563696
8100.00000001194,177.751460052647,1.00000000041253,0.531268511113371
8200.0000000123,176.877543465663,1.00000000047021,0.556195404505837
8300.00000001266,176.015361534466,1.00000000042979,0.546155087442842
8400.00000001303,175.109202155405,1.00000000033828,0.499441275520795
8500.00000001339,174.072383501331,1.0000000002155,0.443083846383859
8600.00000001376,172.878281575145,1.00000000020494,0.437661284996321
8700.00000001412,171.587470193459,1.00000000033946,0.494202045389487
8800.00000001448,170.291376623455,1.00000000049459,0.543649160736404
8900.00000001485,169.051772404369,1.00000000055575,0.56096786477982
9000.00000001521,167.87144986016,1.00000000049699,0.548055338961384
9100.00000001557,166.698028430063,1.00000000038012,0.494707428420466
9200.00000001594,165.455151642036,1.00000000022233,0.419090171178661
9300.0000000163,164.101512625481,1.00000000014982,0.38819007919551
9400.00000001667,162.666913300153,1.00000000025878,0.434304689569837
9500.00000001703,161.218530880513,1.00000000042512,0.503791070508563
9600.00000001739,159.811988060264,1.00000000053521,0.544597688606982
9700.00000001776,158.475340960923,1.00000000058551,0.556342436547409
9800.00000001812,157.206049787907,1.00000000053048,0.545373939973113
9900.00000001848,155.969131815895,1.00000000043503,0.502174067489253
10000.0000000188,154.713757204538,1.00000000026852,0.427946704448647
10100.0000000192,153.402848481164,1.0000000001768,0.363348146546462
10200.0000000196,152.036862701468,1.00000000017277,0.36219910888115
10300.0000000199,150.646572217197,1.00000000028643,0.421792060678773
10400.0000000203,149.266711996507,1.00000000044171,0.48976316286316
10500.0000000207,147.921923881022,1.0000000005294,0.529064463289695
10600.000000021,146.626750162652,1.00000000057793,0.543122818903611
10700.0000000214,145.385235633416,1.00000000052983,0.543910441372035
10800.0000000218,144.186878698544,1.00000000049626,0.526175443732972
10900.0000000221,143.008970445527,1.000000000395,0.485737853113655
11000.0000000225,141.827029983438,1.0000000002986,0.424575824302255
11100.0000000229,140.627942810629,1.00000000021538,0.368600311633769
11200.0000000232,139.41545733533,1.00000000019043,0.352573561898014
11300.0000000236,138.203738097105,1.00000000022725,0.379705562150237
11400.0000000239,137.004901438946,1.00000000035808,0.434455937559784
11500.0000000243,135.823800715876,1.00000000043797,0.487729189949523
11600.0000000247,134.662675238506,1.00000000049518,0.514285889055702
11700.000000025,133.525398706868,1.00000000052528,0.521613285743924
11800.0000000254,132.415630618346,1.00000000053065,0.527180817259333
11900.0000000258,131.33377195523,1.00000000048977,0.533112252329419
12000.0000000261,130.275103736582,1.00000000042614,0.520558551067594
12100.0000000265,129.231003785956,1.00000000038335,0.483288503061955
12200.0000000269,128.194895985923,1.00000000031778,0.43599791216286
12300.0000000272,127.167672670897,1.00000000025991,0.396038057139236
12400.0000000276,126.156457425855,1.0000000002417,0.374747390055984
12500.0000000279,125.16872607773,1.00000000025659,0.379929746497768
12600.0000000283,124.206984419857,1.00000000029532,0.407414383392629
12700.0000000287,123.26804171369,1.00000000034102,0.438838793321073
12800.000000029,122.345780744233,1.00000000038021,0.473515987369031
12900.0000000294,121.43504035468,1.00000000040857,0.500294668906928
13000.0000000298,120.534235720012,1.0000000004168,0.503639761882035
13100.0000000301,119.642745490102,1.00000000041448,0.497152685364827
13200.0000000305,118.758684807986,1.00000000046294,0.503440760083659
13300.0000000309,117.880761119752,1.00000000050715,0.521821828093175
13400.0000000312,117.010747914538,1.00000000052405,0.536780455659648
13500.0000000316,116.151642824498,1.00000000046999,0.528588071846342
13600.0000000319,115.306175457212,1.00000000037689,0.495752195928991
13700.0000000323,114.478664735867,1.00000000027283,0.448539329763009
13800.0000000327,113.677137888264,1.00000000022266,0.408949386868712
13900.000000033,112.909133223795,1.00000000023197,0.385908393169666
14000.0000000334,112.175968780741,1.00000000029073,0.385657092935845
14100.0000000338,111.474209603486,1.00000000033774,0.399675094022872
14200.0000000341,110.798706809278,1.00000000036326,0.428373932943894
14300.0000000345,110.142342726826,1.00000000037247,0.453786774074233
14400.0000000349,109.496996784937,1.00000000040618,0.471212004555242
14500.0000000352,108.856785433456,1.000000000399,0.485710679971455
14600.0000000356,108.220350783133,1.00000000039662,0.496771795189244
14700.0000000359,107.591215948268,1.00000000036175,0.496873579600733
14800.0000000363,106.973643840535,1.00000000033201,0.48728917502709
14900.0000000367,106.365953087167,1.00000000035148,0.479395365712757
15000.000000037,105.75892478933,1.00000000041774,0.486741099505573
15100.0000000374,105.142848825666,1.00000000052601,0.50339342988044
15200.0000000378,104.51422236342,1.00000000052116,0.522648383980339
15300.0000000381,103.87742280955,1.00000000050982,0.53575447183239
15400.0000000385,103.240060311363,1.00000000048592,0.531683736311001
15500.0000000389,102.610031531889,1.00000000037736,0.510497661216061
15600.0000000392,101.995593331653,1.00000000030803,0.476418322058795
15700.0000000396,101.407821752257,1.00000000026168,0.440259094513727
15800.0000000399,100.857959174613,1.00000000022613,0.41173269206068
15900.0000000403,100.353240211608,1.00000000022449,0.393507128467858
16000.0000000407,99.8920902025987,1.00000000025049,0.388864022299432
16100.000000041,99.4656893268759,1.00000000030733,0.40291476680463
16200.0000000414,99.0614677060419,1.00000000037898,0.42608768587798
16300.0000000418,98.670500566073,1.00000000042631,0.446967505443903
16400.0000000418,98.2868744858454,1.00000000041565,0.463705929247525
16500.0000000404,97.9063913484414,1.0000000004282,0.476728369614207
16600.0000000389,97.5266348497277,1.0000000004017,0.485197207139055
16700.0000000375,97.1442547928216,1.00000000040224,0.494881845137846
16800.000000036,96.7585273740875,1.00000000039037,0.504801099543731
16900.0000000346,96.3693028818646,1.0000000003736,0.511046508109096
17000.0000000331,95.9811372927021,1.00000000035598,0.514086432915709
17100.0000000317,95.5985139537243,1.00000000032809,0.512164686805399
17200.0000000302,95.2234769562723,1.00000000034369,0.50531619025042
17300.0000000287,94.8522515715361,1.00000000036229,0.500531835599003
17400.0000000273,94.4779268881341,1.00000000040261,0.494422219012884
17500.0000000258,94.0947457843007,1.00000000044759,0.492713399975518
17600.0000000244,93.6986814731316,1.00000000047468,0.500801846316457
17700.0000000229,93.2880877078243,1.00000000050368,0.514584469737603
17800.0000000215,92.8636886855293,1.00000000048976,0.52968266316137
17900.00000002,92.4291161162195,1.00000000048031,0.53896085042275
18000.0000000186,91.9926267798652,1.00000000043851,0.535504273431311
18100.0000000171,91.5634716344094,1.00000000037269,0.51740625569974
18200.0000000156,91.1534485540325,1.00000000030724,0.488039232931349
18300.0000000142,90.7738270683539,1.00000000027274,0.456484167131878
18400.0000000127,90.4324693129215,1.00000000025549,0.433847841372488
18500.0000000113,90.1337053506916,1.00000000025304,0.422128728005122
18600.0000000098,89.8769098661564,1.00000000027421,0.417742386381218
18700.0000000084,89.6588863302599,1.00000000029029,0.417906038144318
18800.0000000069,89.4723995286048,1.00000000031834,0.419754129022288
18900.0000000055,89.3073996891516,1.00000000038617,0.42876255623489
19000.000000004,89.1520419522712,1.00000000040465,0.449699996902336
19100.0000000026,88.9955303121377,1.00000000043025,0.469030259386456
19200.0000000011,88.8351641152523,1.00000000040021,0.482703061630008
19299.9999999996,88.6752075718375,1.00000000038027,0.488051758808603
19399.9999999982,88.5229351817585,1.0000000003253,0.487401237052291
19499.9999999967,88.3847445069242,1.0000000003239,0.485195282127239
19599.9999999953,88.2587809571087,1.00000000033653,0.487438249308034
19699.9999999938,88.1357418287326,1.00000000037123,0.498193383102134
19799.9999999924,88.0040304908539,1.00000000040936,0.511088865320278
19899.9999999909,87.8525766388851,1.00000000046746,0.522529367872224
19999.9999999895,87.6756360827894,1.00000000047525,0.530532058147244
20099.999999988,87.4744388270956,1.00000000044836,0.535015967522059
20199.9999999865,87.2547732608542,1.00000000041401,0.538334348451337
20299.9999999851,87.0245121260212,1.00000000036987,0.540233958974407
20399.9999999836,86.7919814796231,1.00000000033818,0.535597155198656
20499.9999999822,86.5634522945021,1.00000000032983,0.523952607348218
20599.9999999807,86.3413210158583,1.00000000031476,0.514046498090693
20699.9999999793,86.1264466569452,1.00000000031663,0.509398425992093
20799.9999999778,85.9161579727612,1.00000000033864,0.505321379585861
20899.9999999764,85.7047728699328,1.0000000003841,0.502091377202612
20999.9999999749,85.4864154719909,1.00000000042045,0.504264430662203
21099.9999999734,85.2558596629157,1.00000000047568,0.511525962676493
21199.999999972,85.0095114119225,1.00000000049839,0.521524748241693
21299.9999999705,84.7456696956124,1.00000000050824,0.533293971871197
21399.9999999691,84.4670607621783,1.00000000049881,0.543034467400146
21499.9999999676,84.1788563913412,1.00000000046245,0.546658790019782
21599.9999999662,83.8882235841683,1.00000000044057,0.542048788466244
21699.9999999647,83.6037908108911,1.0000000003733,0.532279936323923
21799.9999999633,83.3345086554839,1.00000000035223,0.511266201548323
21899.9999999618,83.0889632367774,1.00000000029882,0.486110864634998
21999.9999999603,82.8745584924019,1.00000000025737,0.467107276436924
22099.9999999589,82.697321810703,1.00000000025216,0.449142244598204
22199.9999999574,82.5608924125878,1.00000000023753,0.439401085196267
22299.999999956,82.4654620864428,1.00000000027006,0.434429162804366
22399.9999999545,82.4071372672004,1.0000000002903,0.431555245902417
22499.9999999531,82.3781075559843,1.00000000033603,0.430311037197634
22599.9999999516,82.3686544429613,1.00000000036634,0.434877781435537
22699.9999999502,82.3714346128286,1.00000000037261,0.441577279944319
22799.9999999487,82.3809929974953,1.00000000038229,0.446135305795923
22899.9999999473,82.3950027981084,1.00000000038111,0.450044074959821
22999.9999999458,82.4126761146854,1.00000000036639,0.457387242469838
23099.9999999443,82.4325803894638,1.00000000037727,0.472053092579574
23199.9999999429,82.4523651316051,1.00000000038599,0.485434088612803
23299.9999999414,82.4691392585534,1.00000000037814,0.493799119489246
23399.99999994,82.4800487313651,1.00000000039417,0.50227034304089
23499.9999999385,82.48332639558,1.00000000040066,0.513790399458837
23599.9999999371,82.479529163312,1.00000000040159,0.524510192715917
23699.9999999356,82.4717378299635,1.00000000037862,0.529911286143444
23799.9999999342,82.4639475822581,1.0000000003582,0.530219526753837
23899.9999999327,82.4580422140821,1.00000000036245,0.529849217891985
23999.9999999312,82.4534501160728,1.00000000035611,0.530881655897304
24099.9999999298,82.4468270927605,1.00000000036665,0.534946796986449
24199.9999999283,82.4345473923742,1.00000000038305,0.539746758424919
24299.9999999269,82.412368563486,1.0000000004085,0.539506139172562
24399.9999999254,82.3767599446194,1.00000000040545,0.538004599197757
24499.999999924,82.326435978294,1.00000000039071,0.535339673154391
24599.9999999225,82.2602586436054,1.00000000040976,0.531963991247609
24699.9999999211,82.1770274031688,1.00000000041494,0.528756403918094
24799.9999999196,82.07638628155,1.00000000045033,0.525032852666047
24899.9999999181,81.9591667137275,1.00000000043038,0.527641752368971
24999.9999999167,81.8284753021829,1.00000000040276,0.535629213702851
25099.9999999152,81.6889478486444,1.00000000038487,0.53983528972624
25199.9999999138,81.5446679311794,1.00000000037449,0.540407812871057
25299.9999999123,81.398711171131,1.00000000037062,0.54077838847875
25399.9999999109,81.2532173103909,1.00000000037153,0.540806596597147
25499.9999999094,81.1099852453697,1.00000000034173,0.539157551198775
25599.999999908,80.9706362780042,1.00000000033593,0.537758950090726
25699.9999999065,80.8355348616118,1.00000000031956,0.538010747195805
25799.9999999051,80.7033604391433,1.00000000033588,0.539423692564228
25899.9999999036,80.5721435187584,1.00000000035161,0.537836521082048
25999.9999999021,80.4399946351352,1.00000000035426,0.536304374431968
26099.9999999007,80.3051635250791,1.00000000037241,0.535899220725533
26199.9999998992,80.1654655286207,1.00000000040219,0.535534025879288
26299.9999998978,80.0184774209898,1.00000000040919,0.534560321171738
26399.9999998963,79.8622404892004,1.00000000044428,0.531651128861453
26499.9999998949,79.6955969594853,1.00000000046691,0.528905843214398
26599.9999998934,79.5177172243031,1.00000000048457,0.530932207232383
26699.999999892,79.3284647554965,1.00000000049744,0.536292409457624
26799.9999998905,79.1292664199197,1.00000000049426,0.541270420647166
26899.999999889,78.9237052421974,1.00000000045228,0.544375856773394
26999.9999998876,78.7167244486139,1.00000000040616,0.543779804741038
27099.9999998861,78.514240454104,1.00000000035501,0.540068047580803
27199.9999998847,78.3224459834605,1.00000000034113,0.528705935275375
27299.9999998832,78.147597801294,1.00000000031331,0.513153848727959
27399.9999998818,77.9954792631999,1.00000000029467,0.498277962615961
27499.9999998803,77.8712298567048,1.00000000026413,0.484511420880336
27599.9999998789,77.7786681205975,1.00000000025609,0.472515835022372
27699.9999998774,77.7203628706699,1.00000000026768,0.463933255903505
27799.9999998759,77.6970345698446,1.00000000025179,0.453915744708353
27899.9999998745,77.7075132597494,1.00000000029268,0.447148923550252
27999.999999873,77.7480738503712,1.00000000028661,0.446230523667303
28099.9999998716,77.8125141213846,1.00000000034749,0.448316625971745
28199.9999998701,77.8944531248175,1.00000000035624,0.454946464761583
28299.9999998687,77.9885049269936,1.00000000036814,0.459201837877712
28399.9999998672,78.0912357693636,1.00000000038421,0.46089427726263
28499.9999998658,78.2015203902659,1.00000000038353,0.460397059540936
28599.9999998643,78.3166171681722,1.00000000037446,0.460803141035411
28699.9999998629,78.4327603719988,1.00000000038057,0.466690448777397
28799.9999998614,78.5486287555095,1.0000000003737,0.474836759460772
28899.9999998599,78.6650270397796,1.00000000036276,0.483499219810558
28999.9999998585,78.7828727623032,1.00000000036243,0.492040687457893
