Time,AGPnorm,Energy,Entropy
0,0,1,6.67380521628108e-18
99.9999999999986,0.00583886098392652,1.00000000000023,0.017178388967051
199.999999999993,0.0160015857989291,1.00000000000064,0.0503542942088942
300,0.0325674714807362,0.999999999999954,0.0988797261366653
400.000000000022,0.0497464085493151,1.00000000000648,0.164671574677618
500.000000000045,0.0665651463462346,1.00000000011243,0.259340245707596
600.000000000068,0.128420166165252,1.0000000006709,0.374376410099536
700.000000000091,0.395956919684724,1.00000000138315,0.467038164456517
800.000000000113,1.25787423351138,1.00000000198703,0.524752852219817
900.000000000136,2.92882866038204,1.00000000220167,0.556474479752807
1000.00000000016,5.3627317091188,1.0000000023263,0.571286686981078
1100.0000000001,8.38748416095379,1.00000000222659,0.575154108538191
1200,11.6296064151282,1.0000000021768,0.572322954453335
1299.99999999991,14.8412332280647,1.0000000020896,0.56761470069596
1399.99999999982,17.7539099937999,1.00000000198465,0.560945241453675
1499.99999999973,20.2216143594457,1.00000000177045,0.548958564345267
1599.99999999964,22.1730148232127,1.00000000161933,0.544491280643238
1699.99999999955,23.5701158528992,1.00000000157036,0.53799745552642
1799.99999999946,24.4946948227416,1.00000000148641,0.52449854930649
1899.99999999937,24.9224986417158,1.00000000143273,0.544506612193877
1999.99999999928,25.0520426949281,1.0000000011269,0.503394098102149
2099.99999999919,24.7968408062313,1.00000000136712,0.532515357051142
2199.99999999909,24.4758890101615,1.00000000144344,0.538180864968673
2299.999999999,23.915119839652,1.0000000008402,0.425156813119874
2399.99999999891,23.2880733292042,1.00000000193369,0.579305961801144
2499.99999999882,22.7317803639319,1.00000000130967,0.485941179599654
2599.99999999873,22.0392285895563,1.0000000007359,0.379933315066578
2699.99999999864,21.32821181749,1.00000000190618,0.551429962970617
2799.99999999855,20.7227552276908,1.00000000172821,0.557537039339405
2899.99999999846,20.1283297821226,1.00000000082902,0.381186023101711
2999.99999999837,19.5065815926216,1.00000000097419,0.395032666181332
3099.99999999828,18.8920426784296,1.00000000167205,0.529158503150174
3199.99999999819,18.3242360423572,1.00000000186586,0.553534079928133
3299.99999999809,17.8119209833093,1.00000000145323,0.527651962328003
3399.999999998,17.324570261141,1.00000000073997,0.360977605266219
3499.99999999791,16.8892042565228,1.00000000103551,0.398335878042472
3599.99999999782,16.4657594660539,1.00000000166529,0.516289602182295
3699.99999999773,16.0462551390596,1.00000000128187,0.520486486206926
3799.99999999764,15.6390216815281,1.00000000169004,0.523169133511465
3899.99999999755,15.2398657493987,1.00000000182875,0.579439637280868
3999.99999999746,14.8730795415219,1.00000000101694,0.472271582825896
4099.99999999738,14.5822253387391,1.00000000063747,0.3531544163679
4199.99999999775,14.3861249752146,1.00000000109587,0.400549507454465
4299.99999999811,14.1988415571556,1.00000000149254,0.498924533978746
4399.99999999848,13.978407856362,1.00000000166179,0.543242233222909
4499.99999999884,13.7413995810752,1.00000000132918,0.540065499750248
4599.9999999992,13.5175947991855,1.0000000011696,0.523571763911773
4699.99999999957,13.2836462842466,1.0000000015176,0.525809219135575
4799.99999999993,13.0292635365715,1.0000000018055,0.558093770084972
4900.00000000029,12.7707127568922,1.00000000164126,0.579700792567114
5000.00000000066,12.5385767998565,1.00000000103915,0.485336535617534
5100.00000000102,12.3955282009937,1.00000000066429,0.380124671025001
5200.00000000139,12.3778798588874,1.00000000093816,0.376633554238238
5300.00000000175,12.4210584830033,1.00000000139399,0.444890553581889
5400.00000000211,12.4305655609816,1.00000000167205,0.51891399622646
5500.00000000248,12.4016605486369,1.00000000138018,0.545046498901257
5600.00000000284,12.3600398752756,1.00000000135981,0.544140712677992
5700.00000000321,12.290080309004,1.00000000154393,0.557612033661998
5800.00000000357,12.1893841104511,1.00000000142355,0.545729032626632
5900.00000000393,12.0784036836423,1.0000000014201,0.550462546168207
6000.0000000043,11.9630836062723,1.00000000137118,0.556677413859914
6100.00000000466,11.8543771917567,1.00000000123179,0.551719441371299
6200.00000000502,11.7370196382631,1.00000000141297,0.560070252582277
6300.00000000539,11.5991146070159,1.00000000160812,0.564043310245569
6400.00000000575,11.4435834797611,1.000000001848,0.571126486438055
6500.00000000612,11.2775523808757,1.00000000187234,0.58668398477055
6600.00000000648,11.1154100549399,1.0000000012915,0.550571971298965
6700.00000000684,10.9884923259323,1.00000000091434,0.466836540835794
6800.00000000721,10.9546864954695,1.00000000069254,0.394403165412674
6900.00000000757,11.0493434962024,1.00000000091959,0.388091581199009
7000.00000000793,11.2384170773789,1.00000000122863,0.417448674988653
7100.0000000083,11.4405505534167,1.00000000162798,0.47069968867398
7200.00000000866,11.6105214487509,1.00000000151661,0.509912764949835
7300.00000000903,11.7471495536964,1.00000000155975,0.549078886366785
7400.00000000939,11.8471474222522,1.00000000145655,0.555569252006269
7500.00000000975,11.916733016823,1.00000000151514,0.571025288834102
7600.00000001012,11.9525668620753,1.00000000158457,0.587788552889126
7700.00000001048,11.9505801130857,1.00000000149625,0.590043888145387
7800.00000001084,11.9272689760105,1.0000000013937,0.56706594418146
7900.00000001121,11.8942669351553,1.00000000145377,0.558758047427438
8000.00000001157,11.8554739043592,1.00000000149629,0.558038706511736
8100.00000001194,11.8063492609599,1.00000000150521,0.54567066910306
8200.0000000123,11.7549468170582,1.0000000014437,0.553780947304284
8300.00000001266,11.7033273335396,1.00000000138879,0.56229770444387
8400.00000001303,11.655788552196,1.00000000139559,0.557505677150592
8500.00000001339,11.6080336878952,1.0000000014281,0.563076878695878
8600.00000001376,11.5592882237473,1.00000000146087,0.570092200298401
8700.00000001412,11.5040060518457,1.00000000154573,0.568931603224158
8800.00000001448,11.4407958684664,1.00000000152072,0.564961866261838
8900.00000001485,11.3666137606523,1.00000000165062,0.580379818479758
9000.00000001521,11.2839293862438,1.0000000014114,0.605680251194375
9100.00000001557,11.1980657815652,1.00000000130724,0.595214638772376
9200.00000001594,11.1146658463695,1.00000000133368,0.597537971764501
9300.0000000163,11.026381313701,1.00000000142325,0.596593914908325
9400.00000001667,10.9311080093302,1.00000000159836,0.59185911773064
9500.00000001703,10.8310386715432,1.00000000181894,0.596720462239741
9600.00000001739,10.7311613523417,1.00000000191768,0.589135291363253
9700.00000001776,10.6351069472624,1.00000000209917,0.587049272272206
9800.00000001812,10.5382138252625,1.00000000182188,0.583605787207871
9900.00000001848,10.4359943032815,1.00000000135957,0.557017815750692
10000.0000000188,10.337429277493,1.0000000010647,0.505004576704192
10100.0000000192,10.274804499669,1.00000000085608,0.451786021548506
10200.0000000196,10.2890737285182,1.0000000007711,0.408691384861463
10300.0000000199,10.4152051560715,1.00000000089163,0.395729086575985
10400.0000000203,10.6496411737145,1.00000000099936,0.408450741799687
10500.0000000207,10.9575800066653,1.00000000144143,0.431889703129729
10600.000000021,11.2853372451133,1.00000000147019,0.462629500142328
10700.0000000214,11.6046345327945,1.00000000168761,0.49344080779573
10800.0000000218,11.892226784056,1.00000000165425,0.51634589861324
10900.0000000221,12.1536828571373,1.00000000165187,0.538154221208818
11000.0000000225,12.3822512738658,1.00000000153051,0.562812735244585
11100.0000000229,12.581998918125,1.00000000159246,0.577455782548706
11200.0000000232,12.7511365666046,1.00000000167641,0.585624301850153
11300.0000000236,12.8902277507732,1.00000000152985,0.599655880131324
11400.0000000239,13.0020313692832,1.00000000162476,0.612758992480973
11500.0000000243,13.0836637665482,1.00000000167628,0.618454602704899
11600.0000000247,13.1342077020562,1.00000000173174,0.617826860422729
11700.000000025,13.1643028315373,1.00000000157486,0.621830809239723
11800.0000000254,13.1816987153045,1.0000000016604,0.619071384221313
11900.0000000258,13.1866866654117,1.00000000144639,0.61196835279563
12000.0000000261,13.1859088918306,1.00000000161887,0.607841707451274
12100.0000000265,13.1714824948927,1.00000000162164,0.606591646325189
12200.0000000269,13.1447627341144,1.00000000154478,0.596280808058856
12300.0000000272,13.1170370906679,1.00000000159671,0.599727774944151
12400.0000000276,13.0777873631849,1.00000000160475,0.606310718712131
12500.0000000279,13.0318338937054,1.00000000152634,0.609216820770173
12600.0000000283,12.9800613938191,1.00000000162946,0.617082408393561
12700.0000000287,12.9234550085794,1.0000000016138,0.624108861723823
12800.000000029,12.8622247538665,1.00000000158524,0.62454276075488
12900.0000000294,12.8014653278643,1.00000000146465,0.617107315981758
13000.0000000298,12.7464739754663,1.00000000148086,0.600567201831376
13100.0000000301,12.698116265604,1.00000000138512,0.588252037516056
13200.0000000305,12.6555599151041,1.00000000162992,0.590050199122827
13300.0000000309,12.6133653301737,1.00000000154373,0.597411634450799
13400.0000000312,12.5742249877476,1.00000000161635,0.599983638684794
13500.0000000316,12.5345720775921,1.00000000154738,0.597881232188643
13600.0000000319,12.4946906784686,1.00000000159476,0.603424223547163
13700.0000000323,12.4588217896965,1.00000000142006,0.598846453220463
13800.0000000327,12.4232042593038,1.0000000016744,0.595495630045823
13900.000000033,12.3851063266851,1.00000000165545,0.594017138418899
14000.0000000334,12.3516204157767,1.00000000137702,0.590836257797648
14100.0000000338,12.3258804190227,1.0000000014482,0.577505201575635
14200.0000000341,12.303097106751,1.00000000150262,0.563992059519085
14300.0000000345,12.2773305898476,1.00000000168669,0.573650033420991
14400.0000000349,12.2513738661534,1.00000000151784,0.579620076247858
14500.0000000352,12.2264610297068,1.00000000147254,0.594694703693896
14600.0000000356,12.2006737948243,1.00000000170031,0.618210170646767
14700.0000000359,12.1751844233075,1.00000000147835,0.619460979815457
14800.0000000363,12.1509542773309,1.00000000170797,0.605838591822268
14900.0000000367,12.1230398792263,1.0000000017301,0.594139911248096
15000.000000037,12.0952616274473,1.00000000153611,0.613788193883405
15100.0000000374,12.0699053775834,1.00000000158023,0.613365216465767
15200.0000000378,12.0405907181896,1.00000000166979,0.61976772173949
15300.0000000381,12.0066532623792,1.00000000165952,0.625990426860663
15400.0000000385,11.9729334385597,1.00000000147088,0.623644976823381
15500.0000000389,11.9380135040358,1.00000000174637,0.637369429914013
15600.0000000392,11.8984529293053,1.0000000017211,0.627858269967036
15700.0000000396,11.8565602026711,1.00000000163833,0.615599080018318
15800.0000000399,11.8115098762392,1.00000000169721,0.614998952656103
15900.0000000403,11.7677645923829,1.00000000148117,0.627455152862176
16000.0000000407,11.7305908532728,1.00000000148611,0.623246912857726
16100.000000041,11.6949458630122,1.00000000167103,0.628680926479167
16200.0000000414,11.6543382308006,1.00000000180325,0.629967270242007
16300.0000000418,11.6090110144465,1.00000000164259,0.632513990956075
16400.0000000418,11.5663229189995,1.00000000147284,0.62643193294728
16500.0000000404,11.5225143156032,1.00000000177557,0.634957265862111
16600.0000000389,11.4755372199276,1.00000000165137,0.626441627322499
16700.0000000375,11.4305886973415,1.0000000014805,0.624991695616018
16800.000000036,11.3861256854217,1.00000000168107,0.624897164336829
16900.0000000346,11.340760294447,1.00000000165338,0.625415327420609
17000.0000000331,11.2953401747223,1.00000000158572,0.636164307295437
17100.0000000317,11.2481503627661,1.00000000167239,0.636974699212649
17200.0000000302,11.1980505873092,1.00000000177147,0.63719130291568
17300.0000000287,11.1451513831972,1.00000000162023,0.631609884246079
17400.0000000273,11.0904149427857,1.00000000180846,0.642640841634381
17500.0000000258,11.0338068874534,1.00000000164696,0.641879236278335
17600.0000000244,10.9780515957941,1.00000000163287,0.637773287682894
17700.0000000229,10.9214083361458,1.00000000180781,0.654899754463927
17800.0000000215,10.8621281906178,1.00000000174212,0.640976800929611
17900.00000002,10.8024184565641,1.00000000169126,0.646481355660817
18000.0000000186,10.7431224458161,1.00000000157419,0.631625281801018
18100.0000000171,10.6844042099154,1.00000000158596,0.649798646408134
18200.0000000156,10.6261439679732,1.00000000153807,0.648941389346987
18300.0000000142,10.5685196799451,1.00000000144357,0.636803760460983
18400.0000000127,10.5116950478982,1.00000000156863,0.641963614469749
18500.0000000113,10.4565175793826,1.00000000161274,0.646888620192616
18600.0000000098,10.4035153910074,1.00000000164506,0.646031161510563
18700.0000000084,10.3547466104267,1.00000000175796,0.645469070021744
18800.0000000069,10.3121600841958,1.0000000017827,0.650870096337557
18900.0000000055,10.2772892693296,1.0000000019692,0.650955735526729
19000.000000004,10.256433439225,1.00000000198661,0.648235610619055
19100.0000000026,10.2458053062815,1.00000000209141,0.644990365608607
19200.0000000011,10.2594462245302,1.00000000208458,0.648195668560867
19299.9999999996,10.2817687191304,1.00000000217739,0.653714428444016
19399.9999999982,10.3301362801543,1.00000000240894,0.648484049513912
19499.9999999967,10.3767570004981,1.00000000217509,0.644643706896311
19599.9999999953,10.434800527895,1.00000000199183,0.630182182573961
19699.9999999938,10.4726396240151,1.00000000188671,0.619679773541676
19799.9999999924,10.4925410529362,1.00000000168288,0.602989700695747
19899.9999999909,10.4832515842648,1.00000000150092,0.57580760790855
19999.9999999895,10.4491600422282,1.00000000140367,0.544166117204978
20099.999999988,10.4048254750286,1.00000000103795,0.516067732028546
20199.9999999865,10.3656663649293,1.00000000110831,0.486674143353994
20299.9999999851,10.3573150357258,1.00000000103132,0.459141732265118
20399.9999999836,10.4035250459799,1.0000000010892,0.437866123337724
20499.9999999822,10.5282449144872,1.0000000010608,0.426952261716131
20599.9999999807,10.7389364549046,1.0000000010466,0.424732205695263
20699.9999999793,11.0592598346339,1.00000000120705,0.430144826062346
20799.9999999778,11.4494940038237,1.000000001466,0.434837188664389
20899.9999999764,11.9359273117347,1.00000000149104,0.446227991543219
20999.9999999749,12.4442903148723,1.00000000160946,0.453829510611877
21099.9999999734,13.0079859284332,1.00000000168535,0.467539596343147
21199.999999972,13.5606492621967,1.00000000184248,0.476941634168051
21299.9999999705,14.1226308255725,1.00000000176433,0.487180007380317
21399.9999999691,14.6686879517259,1.00000000189791,0.501106011414893
21499.9999999676,15.1901260104994,1.00000000186754,0.510929150687343
21599.9999999662,15.7046569340721,1.00000000178766,0.522981702167801
21699.9999999647,16.1813270899831,1.00000000182281,0.534065753513922
21799.9999999633,16.6578996484893,1.00000000176472,0.544340423086633
21899.9999999618,17.1012001996604,1.00000000188779,0.553364613846056
21999.9999999603,17.5258368877504,1.0000000018582,0.557701474616058
22099.9999999589,17.9320566070153,1.00000000172528,0.573942818447456
22199.9999999574,18.3136539978803,1.0000000017684,0.579044735845293
22299.999999956,18.6784403293984,1.00000000193057,0.600625138236947
22399.9999999545,19.0110629632389,1.00000000175655,0.609735952739476
22499.9999999531,19.3378480904554,1.00000000193054,0.622886996121736
22599.9999999516,19.6239473077932,1.00000000196528,0.622036127955364
22699.9999999502,19.8894775009063,1.00000000221083,0.621597671349665
22799.9999999487,20.12839056993,1.00000000185427,0.643824011523626
22899.9999999473,20.3451490869748,1.00000000188265,0.635358401299813
22999.9999999458,20.5418240969875,1.00000000188473,0.635891913687448
23099.9999999443,20.7096893497144,1.00000000182239,0.633895351340629
23199.9999999429,20.8631367813621,1.00000000199059,0.646821762531083
23299.9999999414,20.9900060633496,1.00000000161788,0.645301141190505
23399.99999994,21.1068232626783,1.00000000209365,0.644706707928042
23499.9999999385,21.2039569197611,1.00000000192455,0.656862129698601
23599.9999999371,21.2864205917191,1.00000000179021,0.646951230464438
23699.9999999356,21.3543789980926,1.0000000018065,0.65445013405235
23799.9999999342,21.4075999756496,1.00000000185357,0.643705659772417
23899.9999999327,21.4602430215828,1.00000000169234,0.658368656044965
23999.9999999312,21.50961874082,1.00000000171873,0.650336570655432
24099.9999999298,21.5554306776618,1.00000000200763,0.658762588898874
24199.9999999283,21.5788347974351,1.0000000020068,0.655138309570384
24299.9999999269,21.5862369327291,1.00000000188387,0.655347603643914
24399.9999999254,21.586779418504,1.00000000183012,0.643825989443448
24499.999999924,21.591742668196,1.00000000180765,0.627804947620326
24599.9999999225,21.6023690580748,1.00000000175677,0.636740969423742
24699.9999999211,21.608895491054,1.00000000192372,0.638410379039158
24799.9999999196,21.6137905427741,1.00000000195172,0.633654883072567
24899.9999999181,21.6080653511313,1.00000000199289,0.637760439861332
24999.9999999167,21.5943768898872,1.00000000195993,0.641497502310495
25099.9999999152,21.5732875889092,1.00000000175351,0.64158697458336
25199.9999999138,21.5530552113553,1.00000000168145,0.620270090676926
25299.9999999123,21.5387221681736,1.00000000163092,0.608555340660562
25399.9999999109,21.5237211268879,1.00000000191453,0.629717850335448
25499.9999999094,21.499394202352,1.00000000195359,0.628418715162214
25599.999999908,21.466217923692,1.00000000185863,0.631465692006261
25699.9999999065,21.4346005048226,1.0000000017033,0.624094728441587
25799.9999999051,21.4090683155584,1.0000000017337,0.629078330391803
25899.9999999036,21.3844085819725,1.00000000179154,0.645787843496063
25999.9999999021,21.3530851564758,1.00000000186428,0.653279041925535
26099.9999999007,21.3168602491509,1.0000000020439,0.642760089431474
26199.9999998992,21.2822071357874,1.00000000173743,0.631902091804865
26299.9999998978,21.2492565207353,1.0000000016075,0.618719069626979
26399.9999998963,21.2179045326816,1.00000000184437,0.623161147368874
26499.9999998949,21.1826137402279,1.00000000178512,0.637388466606615
26599.9999998934,21.1510486769149,1.00000000167178,0.612084551569703
26699.999999892,21.1292590714783,1.00000000165125,0.605632109923881
26799.9999998905,21.1109361906631,1.0000000017653,0.63897039727018
26899.999999889,21.0871293604335,1.00000000209906,0.638381619748237
26999.9999998876,21.0556360862023,1.00000000221272,0.632851906229826
27099.9999998861,21.0238320697493,1.0000000016684,0.626022494683629
27199.9999998847,20.9990892261622,1.00000000179314,0.640526205353491
27299.9999998832,20.972333242093,1.00000000235736,0.658196840731974
27399.9999998818,20.9380686023868,1.00000000197357,0.646005118006685
27499.9999998803,20.8999429886596,1.00000000194485,0.637067462476199
27599.9999998789,20.8638873136879,1.00000000174523,0.636511433126191
27699.9999998774,20.8279503564892,1.00000000200932,0.638743474741713
27799.9999998759,20.7936076697406,1.00000000169313,0.625338100256769
27899.9999998745,20.7598261217929,1.00000000203379,0.639538525330815
27999.999999873,20.7232992366384,1.00000000192074,0.63089581010413
28099.9999998716,20.6879614991347,1.00000000169047,0.631578556809037
28199.9999998701,20.6532897046651,1.00000000190683,0.639059962829834
28299.9999998687,20.6197094855864,1.00000000172381,0.629219854052495
28399.9999998672,20.5839490581686,1.00000000179233,0.633236123932578
28499.9999998658,20.5452894707635,1.00000000186393,0.635829355092074
28599.9999998643,20.5036134027512,1.00000000163421,0.632361966309075
28699.9999998629,20.4609054854136,1.00000000215192,0.635741325917711
28799.9999998614,20.4176465432338,1.00000000191946,0.628023785346509
28899.9999998599,20.3761081221138,1.00000000189663,0.614774515771267
28999.9999998585,20.3370678242002,1.00000000203301,0.618240250110286
29099.999999857,20.2957476378332,1.00000000188095,0.644880286524372
