Time,AGPnorm,Energy,Entropy
0,0,1,-7.4250850034854e-17
99.9999999999986,0.000501203703516787,0.999999999999701,0.00187009962540647
199.999999999993,0.00331235556023,0.999999999997699,0.00558061445843482
300,0.00703148106829434,0.999999999997476,0.0103215922276599
400.000000000022,0.0107683887324046,0.999999999999373,0.0162705555178876
500.000000000045,0.0151270482939805,1.00000000000003,0.0236200622391576
600.000000000068,0.0211850789165353,0.999999999998459,0.0320245713693209
700.000000000091,0.0280749759150453,0.999999999997318,0.0410702193382539
800.000000000113,0.0350993457995553,0.999999999998655,0.0508937940620093
900.000000000136,0.0425102776745778,0.999999999999977,0.0618746322203759
1000.00000000016,0.0511884815476029,0.999999999999107,0.073901615456331
1100.0000000001,0.0600898495429727,0.999999999997623,0.0868274331799816
1200,0.0691888400402849,0.999999999998136,0.100707241231053
1299.99999999991,0.0784257002943693,0.999999999999563,0.116026285818852
1399.99999999982,0.0879582682222363,0.999999999999866,0.133073098262376
1499.99999999973,0.0976051521070625,0.999999999998923,0.151999168040002
1599.99999999964,0.107820822609465,1.00000000000039,0.173139438127428
1699.99999999955,0.117993185942798,1.00000000000764,0.19726513370015
1799.99999999946,0.127315159595784,1.00000000002374,0.224617475445954
1899.99999999937,0.137363169336373,1.00000000005232,0.254618492009987
1999.99999999928,0.15987739409762,1.00000000009137,0.285618979049194
2099.99999999919,0.207261595764981,1.00000000014718,0.316029376673558
2199.99999999909,0.286739279088859,1.0000000002213,0.344937692878667
2299.999999999,0.431993472702649,1.0000000003044,0.371895813072658
2399.99999999891,0.709943446115267,1.00000000034602,0.396081738798912
2499.99999999882,1.17741761870858,1.00000000041397,0.417466758032183
2599.99999999873,1.86289418636055,1.00000000048419,0.436720206099578
2699.99999999864,2.81904508753666,1.00000000056014,0.454091022918737
2799.99999999855,4.13066992600643,1.00000000057102,0.469325332487447
2899.99999999846,5.85021538178191,1.00000000059935,0.48237101656161
2999.99999999837,7.97947526393702,1.00000000069164,0.493885559873459
3099.99999999828,10.529763338645,1.00000000067339,0.504355727022394
3199.99999999819,13.5411814922763,1.00000000071482,0.513083816112876
3299.99999999809,17.0227119078548,1.00000000070507,0.520398660185735
3399.999999998,20.9335241306319,1.00000000072346,0.526611169471341
3499.99999999791,25.2370065595028,1.0000000007543,0.532183179249444
3599.99999999782,29.9202056340011,1.00000000074476,0.537154128878165
3699.99999999773,34.9643667579656,1.000000000769,0.540552642684482
3799.99999999764,40.3055080079948,1.00000000070658,0.543222942392974
3899.99999999755,45.880516056693,1.00000000070277,0.545966728288022
3999.99999999746,51.6530497450715,1.0000000007183,0.548526419592454
4099.99999999738,57.5912463363785,1.00000000074386,0.548555893293217
4199.99999999775,63.6392024053032,1.00000000075036,0.549411754253417
4299.99999999811,69.7299324355251,1.00000000074116,0.550571193900368
4399.99999999848,75.8217496880192,1.00000000069536,0.550348732455422
4499.99999999884,81.8905231747239,1.0000000006885,0.549854231893338
4599.9999999992,87.8959283920319,1.0000000006876,0.548844110429596
4699.99999999957,93.7846448969976,1.00000000062381,0.549358836232664
4799.99999999993,99.5236064526247,1.00000000063854,0.547656889085055
4900.00000000029,105.095829730221,1.00000000062111,0.546584498211199
5000.00000000066,110.477613908855,1.0000000006212,0.545654690773109
5100.00000000102,115.640290014176,1.00000000058822,0.543761622256231
5200.00000000139,120.558737558073,1.00000000056985,0.542973364096695
5300.00000000175,125.225123531144,1.00000000056571,0.541843831003537
5400.00000000211,129.633568365669,1.00000000056801,0.540332104201346
5500.00000000248,133.773345386743,1.00000000053299,0.537681368177691
5600.00000000284,137.631643490262,1.00000000053054,0.537359010658575
5700.00000000321,141.202554334996,1.00000000052158,0.536384540675621
5800.00000000357,144.488009058847,1.00000000048711,0.5332401287349
5900.00000000393,147.487340585684,1.00000000050599,0.530786535119535
6000.0000000043,150.202860870782,1.00000000050015,0.532960102679309
6100.00000000466,152.635486243365,1.00000000047696,0.531665626867067
6200.00000000502,154.787202710995,1.00000000046032,0.524804592147723
6300.00000000539,156.661275070629,1.00000000043094,0.522629583064012
6400.00000000575,158.273124857788,1.00000000045818,0.531083603896413
6500.00000000612,159.643775992292,1.00000000043862,0.533529215005149
6600.00000000648,160.772014623628,1.0000000004183,0.520485146964643
6700.00000000684,161.642341462579,1.00000000038778,0.508584618243377
6800.00000000721,162.26897471176,1.00000000040999,0.521444471091738
6900.00000000757,162.70854639042,1.00000000045503,0.54043266428916
7000.00000000793,162.996435552307,1.00000000044803,0.535470084475063
7100.0000000083,163.102649465841,1.00000000036787,0.506112058094684
7200.00000000866,162.982157564621,1.00000000030364,0.489930666786675
7300.00000000903,162.665265682408,1.00000000037505,0.517607654963187
7400.00000000939,162.246325311361,1.00000000049152,0.549510345094844
7500.00000000975,161.780471611791,1.00000000050386,0.54890008690034
7600.00000001012,161.230979434616,1.00000000039665,0.510008882947679
7700.00000001048,160.516169005629,1.00000000025306,0.464980536069257
7800.00000001084,159.620583103495,1.0000000002939,0.478130532992068
7900.00000001121,158.629529178341,1.00000000045127,0.531676399512743
8000.00000001157,157.641974007413,1.00000000055581,0.560877624598693
8100.00000001194,156.688282537546,1.00000000054107,0.552221127417221
8200.0000000123,155.712898542831,1.00000000038581,0.501051886365954
8300.00000001266,154.626613191734,1.00000000022761,0.435354106994227
8400.00000001303,153.4004229653,1.00000000021437,0.434660686737821
8500.00000001339,152.099154094975,1.00000000040752,0.499918754907898
8600.00000001376,150.813269940044,1.0000000005684,0.549437417222841
8700.00000001412,149.594090119843,1.00000000062558,0.564524059082576
8800.00000001448,148.434190591865,1.00000000053831,0.543421734081938
8900.00000001485,147.274935531152,1.00000000034588,0.478330688993533
9000.00000001521,146.046525095165,1.00000000021168,0.402072509692056
9100.00000001557,144.728781437694,1.00000000018252,0.388098321193777
9200.00000001594,143.361195189081,1.000000000335,0.452480394656419
9300.0000000163,142.002258502284,1.00000000050905,0.521352682918806
9400.00000001667,140.6952302836,1.00000000061772,0.551397988660086
9500.00000001703,139.45736303393,1.00000000062588,0.554205420860284
9600.00000001739,138.273847277716,1.00000000054543,0.533723624182825
9700.00000001776,137.105064419188,1.00000000040821,0.474914164727212
9800.00000001812,135.906791714932,1.00000000026329,0.396605682492189
9900.00000001848,134.66193944081,1.00000000018712,0.359152459020108
10000.0000000188,133.388517101926,1.00000000024206,0.388849369059975
10100.0000000192,132.115139046599,1.00000000041315,0.459051122488348
10200.0000000196,130.864136421012,1.00000000051689,0.51536929243643
10300.0000000199,129.65141346962,1.00000000061703,0.537712302965388
10400.0000000203,128.48541795067,1.00000000060796,0.542830231611936
10500.0000000207,127.361967724077,1.00000000056739,0.534763837610188
10600.000000021,126.264526276965,1.00000000046315,0.503397133271007
10700.0000000214,125.17241064473,1.00000000037478,0.450138997624086
10800.0000000218,124.072992595107,1.00000000027558,0.39443655323948
10900.0000000221,122.968610481412,1.00000000023548,0.366029312623206
11000.0000000225,121.869994447078,1.00000000025075,0.383002862722067
11100.0000000229,120.785402748326,1.00000000035759,0.426114882523374
11200.0000000232,119.717468912353,1.00000000042891,0.47983780951871
11300.0000000236,118.666733232427,1.00000000050242,0.510891287431616
11400.0000000239,117.634380206589,1.00000000053281,0.518420235113704
11500.0000000243,116.62253602113,1.00000000056603,0.52361910821535
11600.0000000247,115.63291754887,1.00000000057643,0.534439622464518
11700.000000025,114.664059517963,1.00000000047165,0.525841712220837
11800.0000000254,113.710756928491,1.00000000038883,0.489648448215915
11900.0000000258,112.769012985426,1.00000000031094,0.443350768817001
12000.0000000261,111.84115593152,1.00000000027143,0.406100947623585
12100.0000000265,110.93393478031,1.00000000027755,0.389159655892483
12200.0000000269,110.0525984802,1.00000000033133,0.39636860569666
12300.0000000272,109.197614613088,1.00000000035062,0.424954121900854
12400.0000000276,108.364256198879,1.0000000003811,0.451339333573775
12500.0000000279,107.545951265302,1.00000000042332,0.479628031104086
12600.0000000283,106.738699134348,1.00000000042188,0.500810830125226
12700.0000000287,105.942038498606,1.00000000041231,0.500716123899315
12800.000000029,105.154514735806,1.00000000045733,0.495552396859827
12900.0000000294,104.37164951926,1.00000000052464,0.506112515738445
13000.0000000298,103.590683632571,1.00000000058512,0.52673715110487
13100.0000000301,102.814403228508,1.0000000005741,0.539039211976524
13200.0000000305,102.047266513621,1.00000000049213,0.524565191554783
13300.0000000309,101.294309921812,1.00000000037086,0.486109507588148
13400.0000000312,100.563465575246,1.00000000027245,0.439992057497393
13500.0000000316,99.864227633442,1.00000000023972,0.406592782904186
13600.0000000319,99.2011720956384,1.00000000028146,0.395085125887589
13700.0000000323,98.5711570793474,1.0000000003474,0.40222065388456
13800.0000000327,97.966848435545,1.00000000038556,0.421600208469117
13900.000000033,97.3815569706446,1.00000000042312,0.451483922894433
14000.0000000334,96.8081625316554,1.00000000043954,0.471622236759118
14100.0000000338,96.241325178591,1.00000000044813,0.485519734830157
14200.0000000341,95.6793015077938,1.00000000044468,0.494125124162523
14300.0000000345,95.1241879857057,1.00000000039499,0.49758777502313
14400.0000000349,94.5807595791953,1.00000000036592,0.494476847582239
14500.0000000352,94.0495939101695,1.00000000036322,0.487337015407238
14600.0000000356,93.5225703455318,1.00000000044199,0.489263584825892
14700.0000000359,92.9886003307825,1.00000000054513,0.50066736727588
14800.0000000363,92.4404678675693,1.00000000060271,0.516629129955765
14900.0000000367,91.8803519915789,1.00000000059059,0.532991040214486
15000.000000037,91.3158731846116,1.00000000053515,0.535096653516451
15100.0000000374,90.7555885337373,1.00000000045209,0.518872621566293
15200.0000000378,90.2087309442304,1.00000000037561,0.488467708267445
15300.0000000381,89.6862631736324,1.0000000003117,0.453060583603919
15400.0000000385,89.1991440156209,1.00000000026634,0.426976523773466
15500.0000000389,88.7542054039617,1.0000000002515,0.409957224030478
15600.0000000392,88.3508905281321,1.00000000032156,0.403907634700294
15700.0000000396,87.9808152475288,1.00000000034593,0.413267732670598
15800.0000000399,87.6313631517856,1.00000000042468,0.437105471590586
15900.0000000403,87.2925727798832,1.00000000045352,0.45715621326602
16000.0000000407,86.9600402330389,1.00000000044162,0.469669512157138
16100.000000041,86.6316474174658,1.00000000043474,0.480354870442396
16200.0000000414,86.3062217671029,1.00000000042348,0.487316540856545
16300.0000000418,85.9803671394703,1.00000000044396,0.49697377710181
16400.0000000418,85.6519527908548,1.00000000043441,0.508296713968843
16500.0000000404,85.3192171737021,1.0000000004411,0.516574778879658
16600.0000000389,84.9855311173688,1.00000000040092,0.52220545638711
16700.0000000375,84.6551168906054,1.00000000039179,0.52285926014342
16800.000000036,84.3303221694329,1.00000000038569,0.51552664250242
16900.0000000346,84.0085051606995,1.0000000003923,0.50957611740772
17000.0000000331,83.684663742453,1.0000000004237,0.500576739232456
17100.0000000317,83.3541101786362,1.00000000046579,0.495856637027145
17200.0000000302,83.0127919861753,1.00000000050697,0.503885897959946
17300.0000000287,82.6579318512141,1.00000000053911,0.519011354122611
17400.0000000273,82.288897274518,1.00000000054748,0.534248026443581
17500.0000000258,81.9101838778586,1.00000000050591,0.541178680633096
17600.0000000244,81.5306248865359,1.00000000046184,0.533731824664876
17700.0000000229,81.1616341987128,1.00000000041106,0.51179954249376
17800.0000000215,80.8160200865964,1.00000000033956,0.481863960815314
17900.00000002,80.5042229475759,1.00000000029295,0.453180515967612
18000.0000000186,80.2317578554333,1.00000000029177,0.436938693220009
18100.0000000171,79.9988494328825,1.00000000031078,0.429705881456521
18200.0000000156,79.8020678326376,1.0000000003311,0.430005076586324
18300.0000000142,79.6349529934741,1.00000000036646,0.433666761442863
18400.0000000127,79.4884978360228,1.00000000037694,0.436317463676015
18500.0000000113,79.3532819816025,1.00000000043002,0.44816746984389
18600.0000000098,79.2203505193627,1.00000000044648,0.467034175841918
18700.0000000084,79.0845454178031,1.00000000047984,0.481925435388935
18800.0000000069,78.9480438135943,1.00000000041358,0.489795918194939
18900.0000000055,78.8186570551295,1.00000000039437,0.49072490270336
19000.000000004,78.7028527118265,1.00000000034121,0.488276694513204
19100.0000000026,78.6020876595499,1.00000000034778,0.489938085123189
19200.0000000011,78.5090201261883,1.00000000039716,0.498486723669345
19299.9999999996,78.4102869305103,1.0000000004522,0.511504063761832
19399.9999999982,78.2943611896007,1.00000000051559,0.521251626146611
19499.9999999967,78.1534586257732,1.00000000051001,0.5286716111696
19599.9999999953,77.9868306537226,1.00000000051692,0.532671243108828
19699.9999999938,77.7996383999968,1.00000000051517,0.537007773760129
19799.9999999924,77.6002581792372,1.00000000045639,0.541783744844381
19899.9999999909,77.3965476573066,1.0000000003869,0.53946947664864
19999.9999999895,77.195442893821,1.00000000038871,0.529670092073459
20099.999999988,77.0019004079109,1.00000000035264,0.517580842237511
20199.9999999865,76.8166745273358,1.0000000003403,0.511360501645165
20299.9999999851,76.637534490745,1.000000000384,0.509725512071813
20399.9999999836,76.4586412646087,1.0000000004314,0.505959544363317
20499.9999999822,76.2734969122106,1.00000000044571,0.506577703174169
20599.9999999807,76.0773550167204,1.00000000048445,0.512193895919908
20699.9999999793,75.8670855964664,1.00000000055092,0.520518961203338
20799.9999999778,75.6411577162657,1.00000000057025,0.5297746786865
20899.9999999764,75.4007326926035,1.00000000054811,0.539751910357293
20999.9999999749,75.1509698347955,1.00000000051426,0.545147140390354
21099.9999999734,74.8995555269026,1.00000000047912,0.542170130303985
21199.999999972,74.6557383536685,1.00000000039694,0.531024631978197
21299.9999999705,74.4287598842111,1.00000000035232,0.509201223629259
21399.9999999691,74.2272245868655,1.00000000030716,0.485570475436323
21499.9999999676,74.0574801423834,1.00000000029986,0.468366803695803
21599.9999999662,73.9234390440414,1.00000000030653,0.452850498051351
21699.9999999647,73.8261340395527,1.0000000003224,0.446863005725735
21799.9999999633,73.7636015680353,1.00000000032271,0.44600610022982
21899.9999999618,73.7311633253152,1.00000000035664,0.44299687929914
21999.9999999603,73.7208444188872,1.00000000038384,0.441637196864631
22099.9999999589,73.7229225335612,1.00000000040894,0.444902444184216
22199.9999999574,73.7298949458988,1.00000000045058,0.452351665682503
22299.999999956,73.7400452014395,1.00000000044132,0.456396695430129
22399.9999999545,73.7551819293096,1.00000000040351,0.456455739326099
22499.9999999531,73.7774513194023,1.00000000039952,0.461877025603107
22599.9999999516,73.8061351610453,1.00000000039018,0.47532726114228
22699.9999999502,73.8377023114069,1.0000000004078,0.488992076085925
22799.9999999487,73.8674272191788,1.00000000041887,0.49881702211842
22899.9999999473,73.8909375656808,1.00000000045759,0.510747681562754
22999.9999999458,73.906366482657,1.00000000047021,0.524439912045082
23099.9999999443,73.9148808430627,1.00000000042096,0.534505155496159
23199.9999999429,73.919869708737,1.00000000042561,0.537267731961336
23299.9999999414,73.9240713712876,1.00000000041329,0.53680959638266
23399.99999994,73.9274159593235,1.00000000039356,0.536316719663869
23499.9999999385,73.9275089199912,1.00000000040659,0.5401554809243
23599.9999999371,73.9227110174662,1.00000000041784,0.546235929639404
23699.9999999356,73.9105161410367,1.00000000041942,0.545151444911464
23799.9999999342,73.8876696415162,1.00000000040783,0.541497359683244
23899.9999999327,73.8519970858441,1.00000000042495,0.538161188130907
23999.9999999312,73.8016325821769,1.00000000045359,0.537220618465706
24099.9999999298,73.7353387094219,1.00000000048267,0.537151358763076
24199.9999999283,73.6527335954331,1.00000000049926,0.532536639252414
24299.9999999269,73.5545992347139,1.00000000047655,0.527961728697453
24399.9999999254,73.4435541415959,1.00000000045912,0.533755101450661
24499.999999924,73.3235397527128,1.00000000045933,0.541848557338899
24599.9999999225,73.1977042798052,1.00000000045171,0.545757625174843
24699.9999999211,73.0685235295385,1.00000000044562,0.548990248879671
24799.9999999196,72.9380595723436,1.00000000041585,0.549807111016925
24899.9999999181,72.8081758445878,1.00000000038886,0.547253194588179
24999.9999999167,72.6815329133017,1.00000000035896,0.544219299089851
25099.9999999152,72.5600718486441,1.0000000003418,0.543399788514799
25199.9999999138,72.4434779600147,1.00000000036795,0.545158232893671
25299.9999999123,72.3297687541431,1.00000000038417,0.543421930302515
25399.9999999109,72.2162075028164,1.00000000040659,0.541876930911089
25499.9999999094,72.1006616468057,1.0000000004222,0.543214644319587
25599.999999908,71.9806131369645,1.00000000042487,0.542977111788955
25699.9999999065,71.8538071279523,1.00000000046533,0.540297842112304
25799.9999999051,71.718461231534,1.00000000048261,0.536200439776748
25899.9999999036,71.5735358116408,1.00000000049365,0.532575397874063
25999.9999999021,71.4183758960908,1.00000000053095,0.53327451772273
26099.9999999007,71.2527061681663,1.00000000054322,0.537694211852843
26199.9999998992,71.0781610933357,1.00000000054474,0.542567282532154
26299.9999998978,70.8984995490075,1.00000000048094,0.545205871277031
26399.9999998963,70.7191279214422,1.00000000042885,0.543447123660328
26499.9999998949,70.5466814094942,1.00000000039801,0.537591886160396
26599.9999998934,70.3877102772817,1.00000000034419,0.524304532274776
26699.999999892,70.24815672104,1.00000000032939,0.509690502663306
26799.9999998905,70.1327582139587,1.00000000031708,0.496991925957536
26899.999999889,70.0454397527411,1.00000000030904,0.486064401457967
26999.9999998876,69.9890178737395,1.00000000028254,0.476000414793672
27099.9999998861,69.9636411244114,1.00000000031415,0.468198920037057
27199.9999998847,69.967994517277,1.00000000030498,0.461331827280051
27299.9999998832,69.9994774627302,1.0000000003612,0.457615321181905
27399.9999998818,70.0526351013799,1.00000000035017,0.457865620556305
27499.9999998803,70.1206516805717,1.00000000040699,0.462259336368182
27599.9999998789,70.1979071585815,1.00000000044234,0.467875970217987
27699.9999998774,70.281577301869,1.00000000041211,0.47126117557902
27799.9999998759,70.3717860294969,1.00000000041661,0.469280043484529
27899.9999998745,70.4693412662577,1.00000000041018,0.467197526494452
27999.999999873,70.5719906376176,1.00000000040831,0.469141157369575
28099.9999998716,70.6765607426158,1.0000000004201,0.475648549884153
28199.9999998701,70.7825643497769,1.00000000041288,0.483735585969415
28299.9999998687,70.8914359623314,1.0000000003713,0.491974267104858
28399.9999998672,71.0033592063876,1.00000000039923,0.500724884106652
28499.9999998658,71.1172555593853,1.00000000044591,0.50954053311831
28599.9999998643,71.2310345770739,1.00000000043097,0.517133798157239
28699.9999998629,71.3424183176791,1.00000000041643,0.523791921248424
28799.9999998614,71.4489564168481,1.00000000041178,0.530665978801675
28899.9999998599,71.549367697394,1.00000000042817,0.537713865709521
28999.9999998585,71.6430010063617,1.00000000043393,0.544612922407639
