Time,AGPnorm,Energy,Entropy
0,0,1,-1.34143484847249e-17
99.9999999999986,3.78894401548723e-05,1.00000000000302,0.00149585827582551
199.999999999993,0.00312755821786258,1.00000000000147,0.00232386515986366
300,0.00792411004675429,1.00000000000093,0.0041824857994657
400.000000000022,0.0109742663529932,1.00000000000334,0.00701114556097819
500.000000000045,0.0134933991171228,1.00000000000007,0.00941379612471208
600.000000000068,0.0192489426638471,1.00000000000265,0.0131403961603574
700.000000000091,0.0238325427464581,1.00000000000193,0.016648324458634
800.000000000113,0.0305789439757394,1.00000000000061,0.0206285814885547
900.000000000136,0.0379152678172917,1.00000000000341,0.0252492694039125
1000.00000000016,0.0440793456616591,1.00000000000026,0.0296209203772782
1100.0000000001,0.052436619408813,1.00000000000225,0.0348570745736157
1200,0.0613357283525431,1.00000000000239,0.0400660067869565
1299.99999999991,0.0707513787224349,1.00000000000036,0.0456366998149279
1399.99999999982,0.0805244922817554,1.0000000000033,0.05174661740614
1499.99999999973,0.0898787981949353,1.00000000000058,0.0577355911374274
1599.99999999964,0.1003198504811,1.00000000000187,0.0644869024220102
1699.99999999955,0.111610266238965,1.00000000000277,0.0713854024144022
1799.99999999946,0.122754114906904,1.00000000000021,0.0786218272115824
1899.99999999937,0.134075876058305,1.00000000000307,0.0864813445442669
1999.99999999928,0.145621141178474,1.00000000000099,0.0943879585334325
2099.99999999919,0.157377333019584,1.00000000000149,0.103159129227919
2199.99999999909,0.169575201969803,1.00000000000307,0.112352613476035
2299.999999999,0.181446396546238,1.00000000000026,0.12203603240957
2399.99999999891,0.19325386573313,1.00000000000289,0.132768423326024
2499.99999999882,0.205563083093419,1.00000000000176,0.144066916573761
2599.99999999873,0.217751144264364,1.00000000000226,0.156797422889806
2699.99999999864,0.229797573429488,1.00000000000692,0.17092318694452
2799.99999999855,0.241285891411004,1.00000000001135,0.186298869965867
2899.99999999846,0.254139756878823,1.00000000002722,0.203555426689621
2999.99999999837,0.264262336101757,1.00000000004933,0.221645483600408
3099.99999999828,0.279164734104624,1.00000000008854,0.240462394614645
3199.99999999819,0.296048653864136,1.00000000013147,0.259630977163262
3299.99999999809,0.312493253523471,1.00000000018495,0.278073939667894
3399.999999998,0.352947633363076,1.00000000023819,0.296726969265587
3499.99999999791,0.396045923904388,1.00000000030663,0.314515720262741
3599.99999999782,0.47685495303272,1.00000000037821,0.331895975067366
3699.99999999773,0.601078717817118,1.00000000044301,0.348942857750912
3799.99999999764,0.76308490394402,1.00000000049624,0.365011500860855
3899.99999999755,1.01909786513118,1.00000000055662,0.380764092518397
3999.99999999746,1.34357678156266,1.0000000006326,0.395574908849415
4099.99999999738,1.78334093055431,1.00000000069905,0.409653110298163
4199.99999999775,2.35570072579851,1.00000000075769,0.423278394223
4299.99999999811,3.05170694402811,1.0000000007802,0.435965308046312
4399.99999999848,3.93084068489504,1.00000000084153,0.448153683763633
4499.99999999884,4.96848211646836,1.00000000091139,0.459507504517998
4599.9999999992,6.20331234758017,1.00000000088913,0.47025425647518
4699.99999999957,7.64486604325188,1.00000000096947,0.480465724555177
4799.99999999993,9.2829057513571,1.00000000102788,0.489538674639439
4900.00000000029,11.158927573634,1.00000000099674,0.498627395991972
5000.00000000066,13.2402135674933,1.00000000105525,0.506845913536266
5100.00000000102,15.5579614264667,1.00000000108305,0.514330982996467
5200.00000000139,18.1008649143412,1.00000000108542,0.521736313258524
5300.00000000175,20.854511061102,1.00000000108994,0.528180717822374
5400.00000000211,23.8474300942107,1.00000000114609,0.534234513160614
5500.00000000248,27.0297711333315,1.00000000111871,0.540137226082194
5600.00000000284,30.4316223009994,1.00000000109788,0.545132309810199
5700.00000000321,34.0260195712553,1.00000000113676,0.550196854384502
5800.00000000357,37.7877205273903,1.00000000114311,0.554599205622004
5900.00000000393,41.7462641174524,1.00000000112519,0.558640712296375
6000.0000000043,45.8361645375244,1.00000000113316,0.562755721617565
6100.00000000466,50.0842334438716,1.00000000112586,0.565699915396757
6200.00000000502,54.465291405774,1.00000000112615,0.569107748317941
6300.00000000539,58.9374995758969,1.00000000110453,0.572146598317896
6400.00000000575,63.5394137207301,1.00000000111523,0.574362234743652
6500.00000000612,68.1998145319466,1.00000000111915,0.577115806408534
6600.00000000648,72.9374525304809,1.00000000108781,0.579077994739305
6700.00000000684,77.7398182812064,1.00000000113249,0.580867522796424
6800.00000000721,82.5525808945787,1.00000000107477,0.5830622379972
6900.00000000757,87.4189923520566,1.00000000106355,0.584114742540533
7000.00000000793,92.2765449465952,1.00000000110167,0.585717885371227
7100.0000000083,97.1302790947716,1.00000000102085,0.586846797842451
7200.00000000866,101.985423216711,1.00000000100708,0.587741147364084
7300.00000000903,106.782182425237,1.00000000101706,0.589051066419656
7400.00000000939,111.563194072709,1.00000000104305,0.58919560831923
7500.00000000975,116.280271890357,1.00000000103283,0.589990584329325
7600.00000001012,120.92824488483,1.0000000009793,0.5904954312186
7700.00000001048,125.523653736569,1.00000000092727,0.590906148698694
7800.00000001084,130.011779479295,1.0000000009468,0.591610433366551
7900.00000001121,134.427301815164,1.00000000095019,0.591113625606112
8000.00000001157,138.741570218654,1.00000000093599,0.591679837264138
8100.00000001194,142.938671589338,1.00000000090712,0.591909397060327
8200.0000000123,147.045668744517,1.00000000095596,0.591251439496265
8300.00000001266,151.014238879925,1.00000000091283,0.591397046306947
8400.00000001303,154.874691875077,1.00000000089862,0.591548056671576
8500.00000001339,158.607509577435,1.00000000088154,0.590734251707043
8600.00000001376,162.2000838263,1.00000000086907,0.591544887756166
8700.00000001412,165.674455640987,1.00000000087143,0.58961555345516
8800.00000001448,168.998593728987,1.00000000085517,0.591078334170585
8900.00000001485,172.190134891308,1.00000000083941,0.589009651590602
9000.00000001521,175.245534584916,1.00000000081642,0.589882430176603
9100.00000001557,178.146772947665,1.00000000078366,0.588837394204151
9200.00000001594,180.91896961375,1.00000000078443,0.589001047444435
9300.0000000163,183.538037084669,1.00000000077897,0.587940239307711
9400.00000001667,186.015805093587,1.00000000076189,0.588261117668663
9500.00000001703,188.357991959647,1.00000000076061,0.58678094792917
9600.00000001739,190.544151045198,1.00000000077004,0.58709054696616
9700.00000001776,192.603097350736,1.00000000073286,0.586802308595914
9800.00000001812,194.512667585517,1.00000000071645,0.585262149262117
9900.00000001848,196.284982171696,1.00000000069461,0.586924433130644
10000.0000000188,197.927634550727,1.00000000067997,0.584446452438627
10100.0000000192,199.423360581224,1.00000000072342,0.585202816083569
10200.0000000196,200.798522954865,1.00000000071548,0.585619802071846
10300.0000000199,202.039099494477,1.00000000066977,0.583414642915218
10400.0000000203,203.150688496213,1.00000000069931,0.584644722415633
10500.0000000207,204.146129412402,1.0000000006838,0.584580768686846
10600.000000021,205.011518810246,1.0000000006473,0.582477924611214
10700.0000000214,205.763753757812,1.00000000065388,0.582837970168315
10800.0000000218,206.400306808213,1.00000000064393,0.584595518223704
10900.0000000221,206.925765495956,1.00000000062817,0.58181049340891
11000.0000000225,207.345847056651,1.0000000006119,0.580530920969104
11100.0000000229,207.656934493471,1.0000000006416,0.584349000495167
11200.0000000232,207.877879392159,1.00000000063314,0.58175030824083
11300.0000000236,208.001210098592,1.00000000058851,0.578304100218454
11400.0000000239,208.029238682241,1.00000000061046,0.5805069181944
11500.0000000243,207.978377013611,1.00000000062651,0.582711619709724
11600.0000000247,207.84506212205,1.00000000060667,0.579352464074607
11700.000000025,207.634853031998,1.00000000058931,0.573240281286666
11800.0000000254,207.345840411616,1.00000000060602,0.578633734191494
11900.0000000258,206.99432314224,1.00000000063983,0.582156461390871
12000.0000000261,206.589755631223,1.00000000061482,0.573930659458491
12100.0000000265,206.112968292625,1.00000000055167,0.565209631731172
12200.0000000269,205.577802322132,1.00000000065151,0.57838369866225
12300.0000000272,205.003167171302,1.0000000006355,0.58098187201711
12400.0000000276,204.385394773981,1.00000000060423,0.569220924030151
12500.0000000279,203.713579250962,1.00000000053465,0.558904594091213
12600.0000000283,202.990506523079,1.00000000063804,0.575012370875188
12700.0000000287,202.245407113336,1.00000000068914,0.581218988523061
12800.000000029,201.476984094915,1.00000000061608,0.566731993343429
12900.0000000294,200.666085763128,1.0000000005291,0.554637495240214
13000.0000000298,199.814117225733,1.00000000057668,0.560140074546291
13100.0000000301,198.940709495734,1.00000000072778,0.583986221866594
13200.0000000305,198.062659784711,1.00000000066556,0.570261323430695
13300.0000000309,197.163733593508,1.00000000060072,0.55481585270338
13400.0000000312,196.229234645313,1.0000000005356,0.544510265742907
13500.0000000316,195.270001559399,1.00000000063989,0.565441840688129
13600.0000000319,194.310124552656,1.00000000081142,0.585331112730116
13700.0000000323,193.352135711088,1.00000000063956,0.559171798246595
13800.0000000327,192.379046974073,1.00000000055314,0.545644980045531
13900.000000033,191.378209853153,1.00000000052869,0.537376001832216
14000.0000000334,190.362865603882,1.0000000006747,0.563956891594371
14100.0000000338,189.355587205635,1.00000000083509,0.584609676538376
14200.0000000341,188.356292259812,1.00000000067495,0.555029072507784
14300.0000000345,187.349999360042,1.0000000005789,0.539332825421002
14400.0000000349,186.324196270214,1.00000000054098,0.533198909434332
14500.0000000352,185.287387075795,1.00000000063907,0.547631542232644
14600.0000000356,184.256060784099,1.00000000082209,0.581840463953752
14700.0000000359,183.23993478722,1.00000000074594,0.563937736939431
14800.0000000363,182.22668392518,1.00000000061372,0.535565907148441
14900.0000000367,181.204925490577,1.00000000054576,0.531696823748723
15000.000000037,180.174425347722,1.00000000057969,0.53558176494335
15100.0000000374,179.141676106843,1.00000000068316,0.553144488169368
15200.0000000378,178.120749689476,1.00000000085135,0.57674243431882
15300.0000000381,177.114401558106,1.00000000070818,0.553063263047918
15400.0000000385,176.109909232863,1.00000000059861,0.525702726841936
15500.0000000389,175.104123611581,1.00000000056309,0.530291318386907
15600.0000000392,174.094802399007,1.0000000005989,0.53819907235318
15700.0000000396,173.087767717732,1.00000000068421,0.54464460509438
15800.0000000399,172.090623398228,1.00000000078114,0.562958444265397
15900.0000000403,171.104614702036,1.00000000079021,0.557548256261197
16000.0000000407,170.127539988644,1.00000000064457,0.528631786741643
16100.000000041,169.152703856024,1.00000000059754,0.522564128375006
16200.0000000414,168.180096694239,1.00000000061689,0.537828292465169
16300.0000000418,167.211551089484,1.00000000063913,0.54129156591001
16400.0000000418,166.248395218938,1.00000000067547,0.541553774970178
16500.0000000404,165.294893789782,1.00000000069469,0.549933289933788
16600.0000000389,164.351274439137,1.00000000069835,0.545926458969629
16700.0000000375,163.415052991407,1.00000000063701,0.529443048641666
16800.000000036,162.485476124502,1.00000000060025,0.523601277550112
16900.0000000346,161.560865165215,1.00000000061055,0.536403165036818
17000.0000000331,160.643119286239,1.00000000064104,0.543935720995544
17100.0000000317,159.731977950099,1.00000000065835,0.537291149957821
17200.0000000302,158.828297675324,1.00000000064028,0.532872167233416
17300.0000000287,157.933515917737,1.00000000067125,0.538771118104063
17400.0000000273,157.046896893025,1.00000000067864,0.539500346313831
17500.0000000258,156.168489451695,1.00000000063878,0.529872732780911
17600.0000000244,155.297940468706,1.00000000062325,0.527707648945683
17700.0000000229,154.435138233111,1.00000000061259,0.539682957511003
17800.0000000215,153.580257474451,1.00000000063798,0.543612223752511
17900.00000002,152.732497537041,1.0000000006234,0.533283302175229
18000.0000000186,151.892777860583,1.00000000066735,0.526426883990971
18100.0000000171,151.06141038536,1.00000000065215,0.528960922952232
18200.0000000156,150.238026988817,1.00000000066248,0.540726488653904
18300.0000000142,149.42327750282,1.0000000006865,0.541259197545726
18400.0000000127,148.61671463765,1.00000000067575,0.534696513569184
18500.0000000113,147.81897490726,1.00000000062482,0.53511491017227
18600.0000000098,147.029736072314,1.00000000065303,0.545172594950791
18700.0000000084,146.249032045046,1.00000000060671,0.538584312128458
18800.0000000069,145.476816883833,1.00000000063077,0.53016513090942
18900.0000000055,144.712872284552,1.00000000063984,0.523964753915287
19000.000000004,143.957593409338,1.00000000061966,0.52726782348326
19100.0000000026,143.211068257055,1.0000000006293,0.535410369742665
19200.0000000011,142.472297063397,1.00000000067925,0.547976749520445
19299.9999999996,141.74173228679,1.00000000064861,0.54302975849936
19399.9999999982,141.019262338851,1.00000000064132,0.538564410452926
19499.9999999967,140.305273692057,1.00000000064978,0.543850630460522
19599.9999999953,139.599941383496,1.00000000064413,0.544938449933659
19699.9999999938,138.904327023363,1.00000000058226,0.532221575588719
19799.9999999924,138.218582638,1.00000000057134,0.522195249797134
19899.9999999909,137.542038711346,1.0000000006164,0.520385729049906
19999.9999999895,136.873793976485,1.00000000066906,0.528357019976516
20099.999999988,136.213760292103,1.0000000006517,0.529527891815541
20199.9999999865,135.561254297871,1.00000000066922,0.542418273655487
20299.9999999851,134.915845183712,1.00000000064765,0.548810836217282
20399.9999999836,134.277400787133,1.00000000066354,0.54450933735895
20499.9999999822,133.645818140955,1.00000000068602,0.545601257635045
20599.9999999807,133.021230833431,1.00000000066659,0.546689879131937
20699.9999999793,132.405725322824,1.000000000622,0.536539548757589
20799.9999999778,131.801477752801,1.00000000054754,0.526160439058612
20899.9999999764,131.208484618076,1.00000000055815,0.514659838380645
20999.9999999749,130.625093282503,1.00000000067698,0.518287663471225
21099.9999999734,130.04887510825,1.00000000067257,0.525080297259453
21199.999999972,129.479684866317,1.00000000064804,0.523766720373099
21299.9999999705,128.917113007007,1.00000000065136,0.529689083731497
21399.9999999691,128.360337326912,1.00000000065794,0.541800007695556
21499.9999999676,127.808508212538,1.00000000068824,0.552604723325848
21599.9999999662,127.261434223006,1.00000000070176,0.54846297821388
21699.9999999647,126.71912115054,1.00000000072088,0.547337863238977
21799.9999999633,126.182705210511,1.00000000066699,0.54095264638321
21899.9999999618,125.655577885005,1.00000000056548,0.529174228474384
21999.9999999603,125.14089080143,1.00000000054766,0.52251712012701
22099.9999999589,124.638038351137,1.00000000055968,0.517662521880633
22199.9999999574,124.145002452905,1.00000000062783,0.512818747683413
22299.999999956,123.659022852413,1.00000000065653,0.516041108134002
22399.9999999545,123.17906012738,1.00000000066816,0.520331695010526
22499.9999999531,122.704824254274,1.00000000065142,0.519390407204875
22599.9999999516,122.235889053921,1.00000000063726,0.524627309339951
22699.9999999502,121.769759248567,1.00000000071869,0.541731910355007
22799.9999999487,121.305218921185,1.00000000071342,0.553301218408041
22899.9999999473,120.842990746746,1.00000000069987,0.551890319998615
22999.9999999458,120.384547203051,1.00000000070217,0.542802321863023
23099.9999999443,119.931465834547,1.00000000065051,0.539681545455465
23199.9999999429,119.485999901824,1.00000000062479,0.531446929402113
23299.9999999414,119.051419408461,1.00000000056677,0.523774564265124
23399.99999994,118.628167484167,1.00000000059526,0.524452677488894
23499.9999999385,118.215390692955,1.00000000059031,0.520942149610274
23599.9999999371,117.811281683239,1.00000000060334,0.512553312043118
23699.9999999356,117.414949505351,1.00000000063721,0.510953048649962
23799.9999999342,117.024728989194,1.0000000006564,0.515630303380874
23899.9999999327,116.639079632571,1.00000000066786,0.520831914831815
23999.9999999312,116.256275609056,1.00000000069862,0.527728914160522
24099.9999999298,115.874135659418,1.00000000068945,0.533794074651352
24199.9999999283,115.491495984386,1.00000000076388,0.542589191110879
24299.9999999269,115.108762965182,1.00000000070829,0.551555877979148
24399.9999999254,114.727471951728,1.00000000070906,0.549842255405449
24499.999999924,114.350143144153,1.0000000006309,0.541537930130248
24599.9999999225,113.9786207207,1.00000000063909,0.535809546919426
24699.9999999211,113.613970049034,1.00000000064061,0.535016944519618
24799.9999999196,113.257512855428,1.00000000062931,0.533501976212497
24899.9999999181,112.909182536901,1.00000000061909,0.532252736777992
24999.9999999167,112.570307989199,1.00000000059505,0.52845651761387
25099.9999999152,112.240915445764,1.00000000059203,0.522257221258037
25199.9999999138,111.92094186365,1.00000000061499,0.513661063744263
25299.9999999123,111.609224280167,1.0000000006105,0.513942295019015
25399.9999999109,111.303577882716,1.00000000065311,0.519146579141783
25499.9999999094,111.00168212538,1.00000000066263,0.52685077994052
25599.999999908,110.700936683647,1.00000000069556,0.533867468022373
25699.9999999065,110.400390302854,1.00000000066601,0.536301661522473
25799.9999999051,110.098867879647,1.00000000074562,0.541760187464975
25899.9999999036,109.794512546963,1.00000000069689,0.544757667120924
25999.9999999021,109.489957742793,1.00000000065657,0.547853130415717
26099.9999999007,109.187745399846,1.00000000062732,0.548639301139793
26199.9999998992,108.890593252456,1.00000000061088,0.543394224749783
26299.9999998978,108.599200055322,1.00000000061176,0.543389381945687
26399.9999998963,108.312462025827,1.00000000067611,0.543680302600219
26499.9999998949,108.030299176385,1.00000000067865,0.542912603989761
26599.9999998934,107.753335038304,1.00000000062765,0.537532374812928
26699.999999892,107.484311583816,1.00000000056251,0.533568204810124
26799.9999998905,107.225653339423,1.00000000056924,0.52766510190791
26899.999999889,106.976698168235,1.00000000059355,0.524987921472061
26999.9999998876,106.736340387519,1.00000000063349,0.522064355746951
27099.9999998861,106.502310316425,1.00000000063342,0.521647795020125
27199.9999998847,106.27421883789,1.00000000059815,0.523835949312521
27299.9999998832,106.051219477332,1.00000000065413,0.528798316461039
27399.9999998818,105.830032337211,1.0000000006774,0.53677716200174
27499.9999998803,105.608029512814,1.0000000007001,0.544196654161826
27599.9999998789,105.384866005473,1.00000000065477,0.541613534170647
27699.9999998774,105.159973682506,1.00000000073875,0.541922265424018
27799.9999998759,104.932916340652,1.00000000072164,0.543370502594277
27899.9999998745,104.704391626874,1.00000000069105,0.543851691475482
27999.999999873,104.47714519644,1.0000000006362,0.544225550785402
28099.9999998716,104.253623739743,1.00000000063382,0.546150544792791
28199.9999998701,104.033570393456,1.0000000006282,0.548140858797565
28299.9999998687,103.816469545572,1.00000000067417,0.547146817966148
28399.9999998672,103.601623042499,1.00000000069162,0.544971320021157
28499.9999998658,103.388071640647,1.00000000070232,0.544462507710011
28599.9999998643,103.177641449873,1.00000000063114,0.538286018496537
28699.9999998629,102.97342746385,1.00000000062564,0.534800701597494
28799.9999998614,102.778262708307,1.00000000058275,0.528447134089416
28899.9999998599,102.593132796732,1.00000000057769,0.525961559065799
28999.9999998585,102.417139899289,1.00000000061348,0.524410477020273
