Time,AGPnorm,Energy,Entropy
0,0,1,-1.34543913160226e-17
99.9999999999986,3.02033921534848e-05,0.999999999998403,0.00120810892682561
199.999999999993,0.00263188993467729,0.999999999998808,0.00194912732832386
300,0.00656781121390773,0.999999999999846,0.00340247264955285
400.000000000022,0.00885164151741957,0.999999999997873,0.00585685011804844
500.000000000045,0.0106991888354988,0.999999999999786,0.00790484999266842
600.000000000068,0.0157781568939199,0.999999999998864,0.0108932513350621
700.000000000091,0.0196855723242586,0.999999999998341,0.0140314095109769
800.000000000113,0.0246135053979999,1.00000000000007,0.0172425856616498
900.000000000136,0.0306769052508718,0.999999999997965,0.0211820142567113
1000.00000000016,0.0360380222468651,0.999999999999422,0.024967336324054
1100.0000000001,0.0433174012883357,0.999999999999376,0.0291604667879491
1200,0.0504023169536916,0.999999999997955,0.0337633988760633
1299.99999999991,0.0573538872718795,1.00000000000007,0.0383119762913574
1399.99999999982,0.0660381449152432,0.999999999998307,0.0433799709233376
1499.99999999973,0.0745649213886337,0.999999999998987,0.048572982335829
1599.99999999964,0.0833993022052578,0.999999999999762,0.0539469835874638
1699.99999999955,0.0923584405679923,0.999999999997735,0.0598163524616618
1799.99999999946,0.101251406734676,0.999999999999915,0.065708834241515
1899.99999999937,0.111758580076031,0.999999999998844,0.0720054830107158
1999.99999999928,0.122261018135215,0.999999999998487,0.0786932584608813
2099.99999999919,0.131897159867572,0.999999999999908,0.0854814657292786
2199.99999999909,0.142109112020001,0.99999999999778,0.0928216779397384
2299.999999999,0.152653044165428,0.99999999999971,0.100435776103879
2399.99999999891,0.163944992879118,0.999999999999394,0.10848284413497
2499.99999999882,0.174930725367947,0.999999999998021,0.117190276286348
2599.99999999873,0.184846548983823,0.999999999999909,0.126153393626122
2699.99999999864,0.195826219500739,0.999999999998237,0.135955515560926
2799.99999999855,0.207307274487923,0.999999999999816,0.14658421064193
2899.99999999846,0.218502279585516,1.00000000000091,0.158048402274918
2999.99999999837,0.228684925530956,1.00000000000104,0.170849998061244
3099.99999999828,0.238818607441931,1.00000000000785,0.184594103951444
3199.99999999819,0.250510042135315,1.00000000001586,0.19975285069376
3299.99999999809,0.260624933818724,1.00000000003123,0.216093293173316
3399.999999998,0.274650787907894,1.00000000005561,0.232728656691659
3499.99999999791,0.285455002549935,1.00000000008791,0.249785209506725
3599.99999999782,0.301833972774572,1.00000000012034,0.266629649071676
3699.99999999773,0.332897936031231,1.00000000016171,0.283363043502345
3799.99999999764,0.363512321298778,1.0000000002016,0.300017318991994
3899.99999999755,0.426087951794807,1.00000000026046,0.315752539733928
3999.99999999746,0.512721485678348,1.00000000030459,0.33130206026238
4099.99999999738,0.632698350371521,1.00000000036248,0.346425025382507
4199.99999999775,0.824537923924612,1.00000000041426,0.360809865776763
4299.99999999811,1.06415742288431,1.00000000044148,0.375116550726159
4399.99999999848,1.39599739544142,1.00000000049467,0.388314141774649
4499.99999999884,1.83609691717983,1.00000000056318,0.400996162349468
4599.9999999992,2.37306115916639,1.00000000060419,0.413727539234848
4699.99999999957,3.06515249515011,1.00000000062805,0.425307373359838
4799.99999999993,3.89790288903397,1.00000000065482,0.436598436551679
4900.00000000029,4.88754916445752,1.00000000069463,0.447167133578783
5000.00000000066,6.07757138471714,1.00000000073818,0.457022495998636
5100.00000000102,7.43908058865648,1.00000000074964,0.467003925958208
5200.00000000139,9.01216630590702,1.00000000078606,0.47570969654902
5300.00000000175,10.8076477664973,1.0000000008457,0.483925569628061
5400.00000000211,12.7986699354417,1.00000000084244,0.492346557632355
5500.00000000248,15.034810273223,1.00000000084604,0.499621371534772
5600.00000000284,17.4929119266586,1.00000000086613,0.506771248782796
5700.00000000321,20.1676704548866,1.00000000089465,0.513245359779149
5800.00000000357,23.0935643369066,1.00000000085733,0.519253627387634
5900.00000000393,26.2197699948183,1.00000000091555,0.525378508292206
6000.0000000043,29.5743301525393,1.00000000091892,0.530511275655162
6100.00000000466,33.1579718932274,1.00000000088549,0.535497584776431
6200.00000000502,36.9219184068011,1.00000000091699,0.540313589113921
6300.00000000539,40.9080645371657,1.00000000093049,0.544242810697155
6400.00000000575,45.0707010001021,1.00000000093066,0.548616426535252
6500.00000000612,49.4014636932632,1.00000000094241,0.55219187090589
6600.00000000648,53.9255966218484,1.00000000093583,0.555285447747791
6700.00000000684,58.5738288145258,1.00000000090906,0.558978634001258
6800.00000000721,63.3762684253023,1.00000000093417,0.561626638571829
6900.00000000757,68.3106379943365,1.00000000091517,0.564404777709844
7000.00000000793,73.3360588287687,1.00000000092047,0.566901587808331
7100.0000000083,78.4906193398007,1.00000000090177,0.568776980417076
7200.00000000866,83.709462494705,1.0000000009023,0.571351390381887
7300.00000000903,88.9994463260257,1.00000000090547,0.573221261355964
7400.00000000939,94.3651587221148,1.00000000087793,0.574556059658661
7500.00000000975,99.7487062674526,1.00000000087875,0.576275338367974
7600.00000001012,105.186050199235,1.00000000087452,0.577312880360439
7700.00000001048,110.631597954672,1.00000000086266,0.578872118258184
7800.00000001084,116.070360110319,1.00000000087879,0.579841542909945
7900.00000001121,121.526481874263,1.00000000085509,0.580244645834047
8000.00000001157,126.939802916416,1.00000000083993,0.581671177157593
8100.00000001194,132.335812808794,1.00000000083477,0.582347237157574
8200.0000000123,137.691902534271,1.00000000081099,0.582853220216581
8300.00000001266,142.979722179482,1.00000000082923,0.583478091763622
8400.00000001303,148.230647676211,1.00000000078597,0.583470537853596
8500.00000001339,153.39404195196,1.00000000080029,0.584528235005889
8600.00000001376,158.483322986686,1.00000000078831,0.584058876912483
8700.00000001412,163.493937966438,1.00000000079994,0.58450438351947
8800.00000001448,168.392647719235,1.00000000075424,0.584459177163514
8900.00000001485,173.209253592255,1.00000000078557,0.584534687740451
9000.00000001521,177.909774550003,1.00000000076955,0.584186083751879
9100.00000001557,182.4932890622,1.00000000074654,0.584672497441168
9200.00000001594,186.971720185463,1.00000000071301,0.583971435026601
9300.0000000163,191.308469051907,1.0000000006936,0.584127284346682
9400.00000001667,195.535098871138,1.00000000071483,0.584225287037221
9500.00000001703,199.624655189217,1.00000000070158,0.582887660065043
9600.00000001739,203.574212973672,1.00000000069342,0.58398615517927
9700.00000001776,207.398936414545,1.00000000069188,0.582156330429534
9800.00000001812,211.070449143447,1.00000000067071,0.582990365012501
9900.00000001848,214.611603033015,1.00000000064843,0.582224101650658
10000.0000000188,218.007556103419,1.00000000067629,0.581577869594875
10100.0000000192,221.252385435474,1.00000000064475,0.582026634679377
10200.0000000196,224.363389029427,1.00000000066106,0.581114261575382
10300.0000000199,227.320742726984,1.00000000065031,0.581289834191938
10400.0000000203,230.138075083069,1.0000000006149,0.580344283734475
10500.0000000207,232.812103644507,1.00000000063701,0.580680820340479
10600.000000021,235.334880749702,1.00000000060673,0.579568839051601
10700.0000000214,237.72189980148,1.00000000060634,0.578797212436664
10800.0000000218,239.961348139119,1.00000000059196,0.579615691526178
10900.0000000221,242.061289140357,1.00000000056513,0.577667442939522
11000.0000000225,244.022364788612,1.00000000059282,0.578268958250925
11100.0000000229,245.840220501114,1.00000000059321,0.577969473963059
11200.0000000232,247.528658759983,1.00000000057117,0.576121740536653
11300.0000000236,249.077445423042,1.00000000055486,0.578257862186492
11400.0000000239,250.496826718183,1.00000000056703,0.576761991136279
11500.0000000243,251.787347666482,1.00000000053836,0.574551984479636
11600.0000000247,252.943451494974,1.00000000055521,0.577733385868368
11700.000000025,253.98520731228,1.00000000053031,0.576382424676495
11800.0000000254,254.90129656656,1.00000000052161,0.573267174348714
11900.0000000258,255.694917066142,1.00000000052308,0.574796693132588
12000.0000000261,256.378022847545,1.00000000052118,0.576589691742621
12100.0000000265,256.946007527956,1.00000000052425,0.576161540781633
12200.0000000269,257.411198613775,1.00000000049278,0.57214049469072
12300.0000000272,257.76494951321,1.00000000047815,0.570811111074835
12400.0000000276,258.014269824446,1.00000000050854,0.57752493761947
12500.0000000279,258.179019520546,1.00000000051474,0.576950452995223
12600.0000000283,258.249343264803,1.00000000047801,0.5677527030482
12700.0000000287,258.22318768717,1.00000000045068,0.565982285805301
12800.000000029,258.108357710864,1.00000000049896,0.576750467680322
12900.0000000294,257.923071539539,1.00000000052531,0.578242432922584
13000.0000000298,257.672163600952,1.00000000048331,0.567462779321259
13100.0000000301,257.335580758308,1.00000000043334,0.559175718640107
13200.0000000305,256.921806073745,1.00000000044955,0.568050332773559
13300.0000000309,256.451448039366,1.000000000549,0.579804047101054
13400.0000000312,255.936026314605,1.00000000052065,0.572930697186
13500.0000000316,255.366750816241,1.0000000004539,0.55771601099406
13600.0000000319,254.722546223854,1.00000000040672,0.551629264252002
13700.0000000323,254.022362781372,1.00000000050168,0.571994714330604
13800.0000000327,253.295029583492,1.00000000057941,0.581331245237089
13900.000000033,252.541819311272,1.00000000052954,0.56791942526723
14000.0000000334,251.74541775457,1.00000000041526,0.546462639780255
14100.0000000338,250.88484514307,1.00000000040363,0.54323852642458
14200.0000000341,249.985662160746,1.00000000056658,0.572986625302903
14300.0000000345,249.076846901808,1.00000000060022,0.581926912381338
14400.0000000349,248.160177178005,1.00000000057094,0.566560180636881
14500.0000000352,247.214359561519,1.00000000041816,0.540144678028221
14600.0000000356,246.21620064499,1.00000000036778,0.530161067438345
14700.0000000359,245.183358244633,1.00000000052128,0.561955208161474
14800.0000000363,244.147702114088,1.00000000061998,0.582176457352168
14900.0000000367,243.119235048033,1.00000000062194,0.57460026497705
15000.000000037,242.085156799584,1.00000000045878,0.543277814312519
15100.0000000374,241.014853797878,1.00000000039252,0.522573373342941
15200.0000000378,239.907525915079,1.00000000042085,0.529962866632833
15300.0000000381,238.787859908096,1.00000000059769,0.569835886609568
15400.0000000385,237.679018441013,1.00000000067953,0.584256292292632
15500.0000000389,236.586353921063,1.00000000061365,0.562104232385013
15600.0000000392,235.487163965705,1.00000000045941,0.532575265608749
15700.0000000396,234.361323595192,1.00000000035887,0.513590625792149
15800.0000000399,233.20840860025,1.00000000044584,0.523162414499746
15900.0000000403,232.046928552205,1.00000000058319,0.563298312953246
16000.0000000407,230.903006430803,1.00000000071103,0.5843252875843
16100.000000041,229.778249263491,1.00000000064761,0.563587314130021
16200.0000000414,228.656282289956,1.00000000049058,0.531358454612711
16300.0000000418,227.521762343314,1.00000000040366,0.512788155619899
16400.0000000418,226.365644317416,1.00000000042101,0.512215488307634
16500.0000000404,225.200848090191,1.00000000048772,0.53671932337965
16600.0000000389,224.043468076092,1.00000000063893,0.572281167328578
16700.0000000375,222.905211644879,1.00000000070743,0.577216160250648
16800.000000036,221.784177014087,1.00000000058388,0.547071275298908
16900.0000000346,220.663827998034,1.0000000004621,0.519278002520966
17000.0000000331,219.536755724361,1.00000000042844,0.510820853676673
17100.0000000317,218.399172018377,1.00000000043055,0.513472720260478
17200.0000000302,217.257271359115,1.00000000050185,0.530405275777021
17300.0000000287,216.1240574032,1.00000000061654,0.55902521165218
17400.0000000273,215.006810727179,1.00000000065379,0.569167318174678
17500.0000000258,213.905067208252,1.00000000060085,0.549556899534144
17600.0000000244,212.811924423199,1.00000000052417,0.52299381357836
17700.0000000229,211.718461928081,1.00000000044993,0.51168215578861
17800.0000000215,210.623515840084,1.00000000043798,0.513896706162809
17900.00000002,209.526231897174,1.00000000045878,0.52044892165596
18000.0000000186,208.433032015718,1.00000000055139,0.531950174367299
18100.0000000171,207.349439864702,1.00000000057491,0.547865161117477
18200.0000000156,206.27813695978,1.00000000063564,0.556420466593317
18300.0000000142,205.219955617447,1.00000000060848,0.542652538166233
18400.0000000127,204.170348872699,1.00000000054251,0.522690627120831
18500.0000000113,203.125511712604,1.00000000047598,0.513277271127346
18600.0000000098,202.084198566723,1.00000000046189,0.518832862126648
18700.0000000084,201.045665744382,1.00000000049519,0.521925085233852
18800.0000000069,200.012811778543,1.0000000005197,0.523826106897492
18900.0000000055,198.986283984064,1.00000000053104,0.527456281610568
19000.000000004,197.968887576207,1.00000000057607,0.539726559938177
19100.0000000026,196.962395850554,1.00000000060691,0.543236359917916
19200.0000000011,195.965645485344,1.00000000058014,0.536322966748874
19299.9999999996,194.977649548202,1.00000000053081,0.525014412507887
19399.9999999982,193.9970402009,1.00000000048446,0.520044620686526
19499.9999999967,193.023281717198,1.00000000050102,0.524088636357608
19599.9999999953,192.056377356069,1.00000000049037,0.525584916191902
19699.9999999938,191.095348185243,1.00000000048115,0.522155410983989
19799.9999999924,190.141720075488,1.00000000049755,0.519878730371513
19899.9999999909,189.196035159848,1.00000000051693,0.522002114823164
19999.9999999895,188.258800981467,1.0000000005549,0.532547192063181
20099.999999988,187.330867394734,1.00000000053784,0.538923844181631
20199.9999999865,186.411473240419,1.00000000055246,0.537696162574707
20299.9999999851,185.500623112559,1.00000000051124,0.530941663406136
20399.9999999836,184.598243844324,1.00000000050592,0.528497823435284
20499.9999999822,183.704295803232,1.00000000051273,0.5323369501098
20599.9999999807,182.818920827746,1.00000000047238,0.530488220242888
20699.9999999793,181.94133563978,1.00000000046012,0.520474580236507
20799.9999999778,181.072105462981,1.00000000045542,0.514595859925877
20899.9999999764,180.211317988846,1.00000000051531,0.515180484669933
20999.9999999749,179.359026935896,1.00000000051799,0.522388959877084
21099.9999999734,178.515317636834,1.00000000058934,0.530111513564624
21199.999999972,177.679551146451,1.00000000056696,0.539811703245621
21299.9999999705,176.851561597578,1.00000000051527,0.541448807674337
21399.9999999691,176.031763934312,1.00000000051577,0.535444668793106
21499.9999999676,175.219819397873,1.00000000055014,0.538297728787886
21599.9999999662,174.416232226406,1.00000000052678,0.540402273336933
21699.9999999647,173.621395870064,1.00000000051487,0.534688990999594
21799.9999999633,172.836226514095,1.00000000046314,0.523411884523218
21899.9999999618,172.061293693273,1.00000000042383,0.508928257939096
21999.9999999603,171.296595594991,1.0000000004469,0.505309533130952
22099.9999999589,170.541522604993,1.00000000051471,0.512015023326499
22199.9999999574,169.794904444899,1.00000000054794,0.522810757836298
22299.999999956,169.055221815145,1.00000000055133,0.529398327486657
22399.9999999545,168.322288413246,1.00000000053894,0.537431124690395
22499.9999999531,167.595868449957,1.00000000052365,0.542030795804055
22599.9999999516,166.876624050911,1.0000000005102,0.539045258708343
22699.9999999502,166.164154775223,1.00000000053466,0.539608821626805
22799.9999999487,165.458016015367,1.00000000058325,0.548308330649116
22899.9999999473,164.758492126995,1.00000000056068,0.544453633895923
22999.9999999458,164.067901720734,1.00000000048037,0.528106551185527
23099.9999999443,163.389032681082,1.00000000042166,0.512469886519183
23199.9999999429,162.723192050218,1.00000000038239,0.497479200184199
23299.9999999414,162.070133943064,1.00000000046199,0.497097341956686
23399.99999994,161.426800071835,1.00000000052359,0.508594754848881
23499.9999999385,160.790582904126,1.0000000005637,0.520372192911458
23599.9999999371,160.159257966744,1.00000000057264,0.523475837026987
23699.9999999356,159.532925639405,1.00000000054011,0.52373577466987
23799.9999999342,158.911807414363,1.00000000053218,0.534591100133684
23899.9999999327,158.295919710759,1.00000000051827,0.541691543288397
23999.9999999312,157.685036661675,1.00000000053802,0.541639872091958
24099.9999999298,157.077871529725,1.00000000058522,0.547353625814118
24199.9999999283,156.474241230447,1.00000000059827,0.550251028725863
24299.9999999269,155.875796642801,1.00000000055574,0.541874810889369
24399.9999999254,155.285573770617,1.00000000049341,0.525250061701153
24499.999999924,154.707604111441,1.00000000041213,0.508321901434676
24599.9999999225,154.144412809162,1.00000000040529,0.498716163916697
24699.9999999211,153.595449729578,1.00000000041981,0.494194058038656
24799.9999999196,153.058299970667,1.00000000049075,0.497903052513905
24899.9999999181,152.528395333729,1.00000000055973,0.508826513091617
24999.9999999167,152.003137650836,1.00000000055707,0.51662026092011
25099.9999999152,151.481204381866,1.00000000057206,0.517061546342654
25199.9999999138,150.962840102184,1.00000000055268,0.516381196292218
25299.9999999123,150.447628955177,1.00000000054795,0.525688261527577
25399.9999999109,149.934676092099,1.00000000053841,0.539952006206011
25499.9999999094,149.423646902936,1.00000000055434,0.544818240887732
25599.999999908,148.914211656692,1.00000000054278,0.544332814982979
25699.9999999065,148.406911009317,1.00000000056185,0.543175667527343
25799.9999999051,147.902629615391,1.00000000055288,0.543078411828765
25899.9999999036,147.403316773395,1.00000000054096,0.534095033695285
25999.9999999021,146.912531850059,1.00000000047892,0.519074636003667
26099.9999999007,146.43388615692,1.00000000045572,0.507300664230206
26199.9999998992,145.968930866687,1.00000000042994,0.504336550524024
26299.9999998978,145.517693538192,1.00000000044887,0.502254540548036
26399.9999998963,145.077626673301,1.0000000004695,0.49990998493426
26499.9999998949,144.647532184229,1.00000000050658,0.50019014810291
26599.9999998934,144.224079417614,1.00000000054163,0.506581367027519
26699.999999892,143.804621014211,1.00000000056116,0.511967810915616
26799.9999998905,143.38775846186,1.00000000055155,0.5177844472844
26899.999999889,142.971556260506,1.00000000057325,0.521336087421374
26999.9999998876,142.555395264804,1.00000000056038,0.525925292187988
27099.9999998861,142.139034918121,1.00000000056818,0.533588006597836
27199.9999998847,141.721891517878,1.00000000058604,0.541671279180779
27299.9999998832,141.304918361135,1.00000000054626,0.544186457386758
27399.9999998818,140.888591090499,1.00000000055118,0.54057470000114
27499.9999998803,140.474936320474,1.00000000052102,0.534537165072591
27599.9999998789,140.06562419395,1.0000000005394,0.533779543516516
27699.9999998774,139.661381560533,1.00000000053202,0.531155024419871
27799.9999998759,139.264072367242,1.00000000050009,0.525759002047276
27899.9999998745,138.875055048644,1.00000000049033,0.519496515858016
27999.999999873,138.495918089969,1.00000000046538,0.513904243162731
28099.9999998716,138.128876690519,1.00000000045251,0.510572641865587
28199.9999998701,137.773341115101,1.00000000046089,0.50886914667759
28299.9999998687,137.429379014981,1.00000000047476,0.503506547313568
28399.9999998672,137.094895430724,1.00000000047825,0.504048336300955
28499.9999998658,136.768276161277,1.00000000049983,0.508994274815371
28599.9999998643,136.44653653066,1.00000000052353,0.515777328213097
28699.9999998629,136.126835660244,1.00000000051782,0.521545188803222
28799.9999998614,135.806959548136,1.00000000056563,0.531017845829744
28899.9999998599,135.485136723175,1.00000000055723,0.533979843464784
