Time,AGPnorm,Energy,Entropy
0,0,1,-7.17567536854551e-17
99.9999999999986,0.00221543657624461,0.999999999999694,0.00664383865469874
199.999999999993,0.0152467970590564,0.999999999998589,0.0191652588559794
300,0.0303058409000681,0.999999999998896,0.0350874042688482
400.000000000022,0.0441640480498763,1.00000000000014,0.0555264854492455
500.000000000045,0.0618244840882764,0.999999999999335,0.0808442539720358
600.000000000068,0.0835830320458134,0.999999999998637,0.110940241084552
700.000000000091,0.103886138671309,0.999999999999977,0.147401873086296
800.000000000113,0.123031628673488,1.00000000002186,0.194410981416902
900.000000000136,0.141111321874017,1.00000000019657,0.256688784844042
1000.00000000016,0.159417974280398,1.00000000067792,0.323486786826747
1100.0000000001,0.251993975604645,1.00000000122677,0.383576236706463
1200,0.494099502695062,1.00000000172563,0.43418877278786
1299.99999999991,0.954395663766386,1.00000000227843,0.476319300982707
1399.99999999982,1.76240220568738,1.00000000252729,0.510230368937372
1499.99999999973,3.00606259711201,1.00000000283409,0.535758576309099
1599.99999999964,4.66058550803056,1.00000000307976,0.556267715433188
1699.99999999955,6.68225854913248,1.00000000294541,0.572610810572585
1799.99999999946,9.04169242830704,1.00000000293419,0.583463924179577
1899.99999999937,11.6519542227188,1.00000000293114,0.590349524217752
1999.99999999928,14.3832859468511,1.00000000281085,0.596284605908872
2099.99999999919,17.1514915642125,1.00000000288463,0.59919296329202
2199.99999999909,19.899838959133,1.00000000278053,0.600009989865842
2299.999999999,22.5547495689555,1.00000000259642,0.59902366337847
2399.99999999891,25.0337164355083,1.00000000255203,0.597551007778812
2499.99999999882,27.2862663217924,1.00000000241743,0.596862672662268
2599.99999999873,29.3009299823399,1.00000000225445,0.594901583850379
2699.99999999864,31.0664950633983,1.00000000210493,0.591372167638788
2799.99999999855,32.5668285043455,1.00000000204738,0.58788352071241
2899.99999999846,33.7913935843599,1.00000000201919,0.586351982853089
2999.99999999837,34.7485676459428,1.00000000185325,0.584320942949658
3099.99999999828,35.462669527509,1.00000000180219,0.581921839769439
3199.99999999819,35.9492601608553,1.00000000183149,0.585535874992194
3299.99999999809,36.220045744348,1.00000000168833,0.581603107879668
3399.999999998,36.3082358486718,1.00000000160932,0.574683897130945
3499.99999999791,36.2336427878226,1.00000000176868,0.585067902684791
3599.99999999782,36.0278317376811,1.00000000150973,0.561575603501791
3699.99999999773,35.7301247236628,1.00000000176786,0.573580790561318
3799.99999999764,35.3379247016219,1.00000000154157,0.555365627686378
3899.99999999755,34.8921924823274,1.00000000188362,0.567179804068931
3999.99999999746,34.3875136175059,1.00000000152621,0.543282046553174
4099.99999999738,33.8583248397002,1.00000000214752,0.570452880964237
4199.99999999775,33.3081373883996,1.0000000015596,0.534564509246154
4299.99999999811,32.7321106978046,1.00000000200683,0.571636289996524
4399.99999999848,32.1660785709259,1.00000000168503,0.534541491252738
4499.99999999884,31.5792698907884,1.00000000168655,0.52557715980727
4599.9999999992,31.0063079664925,1.00000000208862,0.558089248902726
4699.99999999957,30.4432013219568,1.00000000163098,0.521691970311932
4799.99999999993,29.8748121734664,1.00000000173617,0.526695622858783
4900.00000000029,29.3231427071654,1.00000000220002,0.546460981390425
5000.00000000066,28.7850651764706,1.00000000170126,0.506490375859341
5100.00000000102,28.2531365245601,1.0000000018141,0.531492016423306
5200.00000000139,27.7349998541497,1.00000000200176,0.53137478287937
5300.00000000175,27.2336738406899,1.00000000174648,0.511030117218104
5400.00000000211,26.7465314687152,1.00000000161047,0.518945046564837
5500.00000000248,26.2713082044548,1.00000000182718,0.537494180097035
5600.00000000284,25.8125799882239,1.00000000177005,0.520939019192529
5700.00000000321,25.3689986711347,1.0000000017815,0.506460909414528
5800.00000000357,24.9431046247529,1.00000000159814,0.516544097046745
5900.00000000393,24.5306870695518,1.00000000190628,0.551142586817798
6000.0000000043,24.1338517641479,1.00000000171618,0.521806357805403
6100.00000000466,23.7543933038223,1.0000000019017,0.513008713005405
6200.00000000502,23.3888112795783,1.00000000174915,0.508605401277481
6300.00000000539,23.0406562972476,1.00000000172582,0.524996150585134
6400.00000000575,22.703582456313,1.00000000199305,0.55617764159091
6500.00000000612,22.3795047642374,1.00000000176219,0.527992690160674
6600.00000000648,22.073848641945,1.00000000174978,0.509890595020023
6700.00000000684,21.7807980306918,1.00000000196329,0.512219095377492
6800.00000000721,21.5005841073846,1.00000000172305,0.50922162719496
6900.00000000757,21.2330540830295,1.00000000179361,0.533227475427782
7000.00000000793,20.9714104723383,1.00000000199173,0.5441707722243
7100.0000000083,20.7179871895551,1.00000000171728,0.533215774744951
7200.00000000866,20.4806469851339,1.00000000177481,0.52662851501893
7300.00000000903,20.2568645227403,1.00000000185723,0.527336793382074
7400.00000000939,20.0453793308478,1.00000000185968,0.515394885950238
7500.00000000975,19.8444014563271,1.00000000168146,0.516211254754839
7600.00000001012,19.6509739759932,1.00000000181263,0.550360774670053
7700.00000001048,19.463512393594,1.00000000192874,0.554226653102694
7800.00000001084,19.2812161077868,1.00000000177174,0.542197852886673
7900.00000001121,19.105874892367,1.00000000182731,0.551688834599105
8000.00000001157,18.9388684903519,1.00000000168189,0.539216502112933
8100.00000001194,18.7876227775841,1.00000000176878,0.53287378331977
8200.0000000123,18.6461587566165,1.00000000187642,0.534976793470598
8300.00000001266,18.5155281967525,1.00000000175192,0.534013680152307
8400.00000001303,18.3930617166288,1.00000000188052,0.547946329032744
8500.00000001339,18.2672154501585,1.00000000195361,0.568114647111211
8600.00000001376,18.1469452538056,1.00000000175286,0.556795222767403
8700.00000001412,18.0350926191435,1.00000000191997,0.555492867611984
8800.00000001448,17.9208905274627,1.00000000196886,0.564877959889048
8900.00000001485,17.8038552886101,1.00000000203508,0.568915692342135
9000.00000001521,17.6956867083913,1.00000000176339,0.550821001800386
9100.00000001557,17.598353780038,1.00000000189079,0.546802016245951
9200.00000001594,17.5110480207459,1.00000000179378,0.54786243613466
9300.0000000163,17.4356812347024,1.00000000183982,0.541762737833626
9400.00000001667,17.3666277345399,1.00000000195966,0.557477012307284
9500.00000001703,17.297712875777,1.00000000199706,0.573605538807387
9600.00000001739,17.2224866865053,1.00000000206909,0.572142241135277
9700.00000001776,17.1521358973295,1.00000000174124,0.563613385468708
9800.00000001812,17.0939009274715,1.00000000173054,0.557457381024782
9900.00000001848,17.0365862580295,1.00000000190813,0.571392874543572
10000.0000000188,16.9728058619561,1.00000000190537,0.567890875877022
10100.0000000192,16.9041516699599,1.00000000211981,0.581460987566186
10200.0000000196,16.8320251744175,1.00000000194519,0.589807306785712
10300.0000000199,16.7657083588965,1.00000000181153,0.567641135681767
10400.0000000203,16.7109084523451,1.00000000186971,0.566388267742809
10500.0000000207,16.6665896966854,1.00000000194797,0.564491781757842
10600.000000021,16.633866708781,1.00000000181309,0.550868122433585
10700.0000000214,16.6078712988901,1.00000000193678,0.558195053113014
10800.0000000218,16.5810528848635,1.00000000197713,0.584964625405895
10900.0000000221,16.5504066132765,1.00000000203784,0.587859543274213
11000.0000000225,16.5213461560788,1.00000000184077,0.57366076222813
11100.0000000229,16.4940933537345,1.00000000194585,0.579654148373597
11200.0000000232,16.4666852775567,1.00000000194249,0.583910830561869
11300.0000000236,16.4438045288983,1.0000000019059,0.570895802468913
11400.0000000239,16.423824261217,1.00000000190393,0.575389547867951
11500.0000000243,16.4011789205569,1.00000000198733,0.59044585412766
11600.0000000247,16.3710134734647,1.00000000199477,0.589912257562085
11700.000000025,16.3348247307836,1.00000000209156,0.586647899701841
11800.0000000254,16.2938434613608,1.00000000204992,0.581513065160697
11900.0000000258,16.2518942899738,1.0000000019547,0.585334514122853
12000.0000000261,16.2132034033104,1.00000000194066,0.583926623667124
12100.0000000265,16.1794607759584,1.00000000186229,0.584296177920024
12200.0000000269,16.1547291358886,1.00000000187008,0.581122430327179
12300.0000000272,16.1385226276927,1.00000000180508,0.566185999395277
12400.0000000276,16.1328115373912,1.00000000184819,0.551057079971264
12500.0000000279,16.1327568559139,1.00000000201466,0.563104343976809
12600.0000000283,16.1311200947363,1.00000000210899,0.57768290443841
12700.0000000287,16.1276122080745,1.00000000203908,0.591057182756336
12800.000000029,16.1269881802008,1.00000000197654,0.590577966738132
12900.0000000294,16.1237513822787,1.00000000200469,0.592750717927284
13000.0000000298,16.1207131905296,1.0000000019823,0.591851897323495
13100.0000000301,16.1185889325317,1.0000000020011,0.589225851811685
13200.0000000305,16.1145288136843,1.00000000200166,0.594620805957238
13300.0000000309,16.1149185149976,1.00000000192412,0.594405835281536
13400.0000000312,16.1219348210783,1.00000000198394,0.602948700810306
13500.0000000316,16.1259754735613,1.00000000220063,0.61928597113052
13600.0000000319,16.1200615443568,1.00000000219076,0.625603573645696
13700.0000000323,16.1066077260198,1.00000000218245,0.62532826739449
13800.0000000327,16.092266573977,1.00000000186123,0.617399101813701
13900.000000033,16.0807241591541,1.00000000200913,0.618674506102288
14000.0000000334,16.0678843788394,1.00000000204583,0.625021282292864
14100.0000000338,16.0511219948079,1.00000000225338,0.633553594978421
14200.0000000341,16.0281062870571,1.00000000206892,0.630958427599212
14300.0000000345,16.0003889032659,1.00000000208629,0.633148204695554
14400.0000000349,15.9707799071408,1.00000000212194,0.624694116668324
14500.0000000352,15.9438185715163,1.00000000207339,0.621370230375893
14600.0000000356,15.9253661588452,1.00000000206951,0.616319688577743
14700.0000000359,15.9166295871641,1.00000000201032,0.604673274475
14800.0000000363,15.9190176844868,1.00000000198322,0.601874026392873
14900.0000000367,15.9314300964968,1.00000000202633,0.597446138630177
15000.000000037,15.9478967333693,1.00000000208532,0.603569653980326
15100.0000000374,15.9627928097917,1.00000000227053,0.612755552984539
15200.0000000378,15.975852395545,1.00000000213944,0.616450827708598
15300.0000000381,15.9907037254436,1.00000000197226,0.616892236505281
15400.0000000385,16.004056968829,1.00000000210713,0.620052218135426
15500.0000000389,16.0178654095869,1.00000000208065,0.61434138665694
15600.0000000392,16.0328068434373,1.00000000220579,0.621340650385118
15700.0000000396,16.045922325866,1.00000000219203,0.622627553027246
15800.0000000399,16.0576654351154,1.00000000212277,0.623714744969817
15900.0000000403,16.0724265528155,1.00000000205703,0.625776432410739
16000.0000000407,16.0885127470958,1.00000000205269,0.624643703349502
16100.000000041,16.1027294923339,1.00000000220167,0.631668532070157
16200.0000000414,16.1150841831773,1.00000000215321,0.620413262961619
16300.0000000418,16.1246403750685,1.00000000218665,0.614063806198871
16400.0000000418,16.1354770396577,1.00000000221368,0.632831950722017
16500.0000000404,16.145114438567,1.00000000210818,0.646792251035824
16600.0000000389,16.1534815770092,1.00000000214395,0.64594450728753
16700.0000000375,16.1606435547936,1.00000000202198,0.646902161082076
16800.000000036,16.1675888498388,1.00000000224245,0.646549461485722
16900.0000000346,16.1708489094896,1.00000000218898,0.642344878502028
17000.0000000331,16.1709167725194,1.00000000227541,0.649450543488912
17100.0000000317,16.1689506681119,1.00000000230722,0.651741416801403
17200.0000000302,16.1643170811813,1.00000000225721,0.65655763178447
17300.0000000287,16.1552193941778,1.00000000234619,0.657566700146706
17400.0000000273,16.1414325979041,1.00000000225147,0.670038765893898
17500.0000000258,16.122705775922,1.00000000232932,0.669141311455861
17600.0000000244,16.1016958366816,1.00000000226186,0.665117084474312
17700.0000000229,16.0784580040754,1.00000000227873,0.661589987336423
17800.0000000215,16.0538101115845,1.00000000222567,0.659668076613978
17900.00000002,16.0276642263952,1.00000000221945,0.662437032275108
18000.0000000186,16.003308535564,1.00000000226037,0.66261486501698
18100.0000000171,15.9822774556513,1.00000000231875,0.651094159427703
18200.0000000156,15.9657905059979,1.00000000222814,0.641896186749515
18300.0000000142,15.9562785312795,1.00000000221576,0.635856437893463
18400.0000000127,15.9551678180216,1.00000000210765,0.633230528618021
18500.0000000113,15.9610864367019,1.0000000022328,0.635729050045538
18600.0000000098,15.9764711466987,1.00000000216692,0.626179835365282
18700.0000000084,15.9977818064894,1.00000000227523,0.618172835365463
18800.0000000069,16.0246445280041,1.00000000224498,0.622570745506004
18900.0000000055,16.0508307337543,1.0000000023877,0.625163898944508
19000.000000004,16.0757904550265,1.00000000236578,0.63201613427594
19100.0000000026,16.1001543567628,1.00000000246896,0.633121846896423
19200.0000000011,16.1269504194834,1.0000000022323,0.629796032568426
19299.9999999996,16.1554538467668,1.00000000235317,0.634096479410287
19399.9999999982,16.1818495184703,1.0000000023247,0.634691924087598
19499.9999999967,16.2097862391781,1.00000000225259,0.626693113147848
19599.9999999953,16.2371716199856,1.0000000023424,0.628474309797719
19699.9999999938,16.2641176330247,1.00000000229207,0.629747998066768
19799.9999999924,16.2904653205362,1.00000000226614,0.637467708308928
19899.9999999909,16.3162837635647,1.00000000236321,0.631182139175942
19999.9999999895,16.3429872370364,1.00000000232367,0.635502026530277
20099.999999988,16.3752213196204,1.00000000237319,0.643516971332965
20199.9999999865,16.4093107916102,1.00000000236371,0.655108495612515
20299.9999999851,16.43827855039,1.00000000259277,0.656416774214004
20399.9999999836,16.4595009746706,1.00000000255376,0.656463233048029
20499.9999999822,16.476882227973,1.00000000240131,0.662308293536935
20599.9999999807,16.4901029494573,1.00000000251046,0.673471759278141
20699.9999999793,16.5067375479668,1.00000000236097,0.663794587692349
20799.9999999778,16.5273729421612,1.00000000230177,0.658534838846775
20899.9999999764,16.5514330398021,1.0000000024138,0.651509775218315
20999.9999999749,16.5765268417712,1.00000000240295,0.663158606540826
21099.9999999734,16.6026225369931,1.00000000254768,0.669232538064816
21199.999999972,16.6261854826356,1.00000000256166,0.68550764281903
21299.9999999705,16.6479559371027,1.00000000250575,0.679311939418735
21399.9999999691,16.6678380942306,1.00000000241048,0.675907772579013
21499.9999999676,16.684287273232,1.00000000266015,0.675086565774726
21599.9999999662,16.6977491847226,1.00000000254624,0.684347357785849
21699.9999999647,16.7093340670973,1.0000000025322,0.687718546007752
21799.9999999633,16.719677009364,1.00000000246828,0.678315734293104
21899.9999999618,16.7303718608953,1.00000000246862,0.67361084692703
21999.9999999603,16.7418200847986,1.00000000253392,0.681452680593355
22099.9999999589,16.7548629526734,1.00000000228941,0.681270414684012
22199.9999999574,16.7685396346798,1.00000000252525,0.682675487583876
22299.999999956,16.7810640931146,1.00000000250007,0.683887094910979
22399.9999999545,16.7906382604332,1.00000000258551,0.685840104939445
22499.9999999531,16.797725015203,1.00000000251934,0.678800694481395
22599.9999999516,16.8033257492255,1.00000000248701,0.672670053690533
22699.9999999502,16.809137898361,1.00000000244591,0.670783768534763
22799.9999999487,16.8112765251716,1.0000000026607,0.681423040217535
22899.9999999473,16.8102242299802,1.00000000240231,0.680795271687429
22999.9999999458,16.8087693252596,1.00000000252921,0.684439988690322
23099.9999999443,16.8054449796956,1.00000000254511,0.680672125596768
23199.9999999429,16.8001661647774,1.0000000025726,0.671971495130325
23299.9999999414,16.7919442505317,1.00000000258289,0.680163614193582
23399.99999994,16.7817372306646,1.0000000026127,0.685855243182472
23499.9999999385,16.7694806681112,1.0000000026297,0.681432812832533
23599.9999999371,16.7558887814799,1.00000000265618,0.678439501080944
23699.9999999356,16.7418716402998,1.00000000262049,0.680738384428784
23799.9999999342,16.7281420149263,1.00000000252175,0.671860607779263
23899.9999999327,16.7166136996216,1.00000000249563,0.678014134642891
23999.9999999312,16.7076469914352,1.00000000267244,0.67560470003381
24099.9999999298,16.7020641561246,1.00000000249145,0.673701771441708
24199.9999999283,16.7003320010739,1.0000000025695,0.673507345114187
24299.9999999269,16.7026930491013,1.00000000246405,0.66918647340756
24399.9999999254,16.7099689423556,1.00000000265929,0.664442900671294
24499.999999924,16.7211752632353,1.00000000250818,0.660095621635772
24599.9999999225,16.7403291556413,1.00000000249588,0.659678809757174
24699.9999999211,16.7687529322922,1.00000000235839,0.664236244740427
24799.9999999196,16.8049175334306,1.00000000259139,0.66239940105561
24899.9999999181,16.8472985667671,1.00000000249268,0.652195889819963
24999.9999999167,16.8934759826054,1.00000000257445,0.655816649765434
25099.9999999152,16.9420764532409,1.00000000256603,0.643776555625197
25199.9999999138,16.9920141135016,1.0000000028692,0.645220840752299
25299.9999999123,17.0398402417865,1.00000000254888,0.641975491688841
25399.9999999109,17.0890331670766,1.00000000277066,0.643490167840876
25499.9999999094,17.1354717593463,1.00000000272054,0.649936824118023
25599.999999908,17.1844834033336,1.00000000254296,0.632324127786165
25699.9999999065,17.2367894171612,1.00000000257096,0.641354909918971
25799.9999999051,17.2890269011501,1.00000000257881,0.639735559477431
25899.9999999036,17.3428244462994,1.00000000270202,0.646269755600552
25999.9999999021,17.3959585867768,1.00000000267957,0.648331136889955
26099.9999999007,17.4490209025831,1.00000000265131,0.643123602761343
26199.9999998992,17.5011991959682,1.00000000279513,0.638943831108212
26299.9999998978,17.552644292258,1.00000000263137,0.635672548158765
26399.9999998963,17.6070585857441,1.00000000256493,0.648161143952638
26499.9999998949,17.6624083707299,1.00000000279317,0.645871836941126
26599.9999998934,17.7227627870526,1.00000000257286,0.642657493970458
26699.999999892,17.7858752915423,1.00000000274441,0.649242105968836
26799.9999998905,17.8476686991276,1.00000000263573,0.656427584483014
26899.999999889,17.9085242338636,1.00000000282489,0.65970241801275
26999.9999998876,17.9667726746236,1.00000000261019,0.653028952910383
27099.9999998861,18.0233470876399,1.00000000283049,0.667502129451083
27199.9999998847,18.0746964826714,1.00000000296327,0.678261862894256
27299.9999998832,18.1216796214688,1.00000000284491,0.676310223837436
27399.9999998818,18.1666262283412,1.00000000286797,0.674412972725207
27499.9999998803,18.2117026674834,1.00000000288076,0.67425756576823
27599.9999998789,18.2552661337417,1.00000000289307,0.676244633640549
27699.9999998774,18.300135113438,1.00000000275742,0.681565889688511
27799.9999998759,18.3464869336497,1.00000000287207,0.678932407550283
27899.9999998745,18.3935024546369,1.00000000274955,0.682933686662849
27999.999999873,18.4436608169555,1.00000000278968,0.691214109650423
28099.9999998716,18.4954552523033,1.00000000271636,0.695554685974203
28199.9999998701,18.548419002284,1.00000000276266,0.68936438605906
28299.9999998687,18.6033551088996,1.00000000283144,0.693688632456844
28399.9999998672,18.6549133674232,1.00000000297174,0.701376905382128
28499.9999998658,18.7026325098594,1.00000000303261,0.698704983019075
28599.9999998643,18.7485410619841,1.00000000300329,0.699479737203994
28699.9999998629,18.7918105234446,1.00000000288223,0.68978258162919
28799.9999998614,18.833390373191,1.00000000304496,0.692301830190801
28899.9999998599,18.8723875776463,1.0000000029546,0.695170628480357
28999.9999998585,18.9111188700027,1.00000000282077,0.69882104699955
