Time,AGPnorm,Energy,Entropy
0,0,1,-7.35872831162066e-17
99.9999999999986,0.00198541208299905,0.999999999998981,0.00591497114498534
199.999999999993,0.0133882048518172,0.999999999998699,0.0171696962166279
300,0.0267909630865193,0.999999999999961,0.031638692846576
400.000000000022,0.0391121271697381,1.00000000000055,0.0501512022327007
500.000000000045,0.0551181335884252,0.999999999998983,0.0727875786800739
600.000000000068,0.0752202307139726,0.999999999998259,0.0993959421016457
700.000000000091,0.0938671618083144,1,0.130875305591479
800.000000000113,0.111794534644501,1.00000000000572,0.1700665753
900.000000000136,0.129621477121889,1.00000000006263,0.221717077299678
1000.00000000016,0.144447165548899,1.00000000031775,0.283732313545871
1100.0000000001,0.191566602299939,1.00000000075704,0.344742503234904
1200,0.326327289812547,1.00000000120177,0.398468417083658
1299.99999999991,0.606073894542423,1.00000000172148,0.444024594369578
1399.99999999982,1.15685111315731,1.00000000197096,0.481697209254842
1499.99999999973,2.09575484625971,1.0000000024014,0.510816862026728
1599.99999999964,3.44142478529602,1.00000000260089,0.535099402066446
1699.99999999955,5.19054902041149,1.00000000252027,0.55486778380744
1799.99999999946,7.35065635982866,1.00000000266103,0.56895251579003
1899.99999999937,9.85760626488273,1.00000000267088,0.57859083873997
1999.99999999928,12.5877662243693,1.00000000262953,0.586825626266527
2099.99999999919,15.462095734108,1.00000000254956,0.592413329883687
2199.99999999909,18.4295663023978,1.00000000249268,0.594972903413007
2299.999999999,21.4047442713332,1.00000000246857,0.595196532848206
2399.99999999891,24.2818679005848,1.00000000233555,0.595648525954595
2499.99999999882,26.9931336918279,1.00000000239557,0.595187069150872
2599.99999999873,29.5205156802773,1.00000000222024,0.593470987829136
2699.99999999864,31.8363797414082,1.00000000205549,0.590256983140609
2799.99999999855,33.9017631140416,1.00000000196321,0.588149992814693
2899.99999999846,35.6894354845555,1.00000000193671,0.58728244631556
2999.99999999837,37.1976286467362,1.00000000182697,0.586427335101981
3099.99999999828,38.4430170711701,1.00000000174332,0.583882699346613
3199.99999999819,39.4322639823197,1.00000000167737,0.579222308784082
3299.99999999809,40.1709137108374,1.00000000165711,0.577747933286329
3399.999999998,40.6703109443899,1.0000000014664,0.577572721277506
3499.99999999791,40.9618438476435,1.00000000147915,0.572283484465758
3599.99999999782,41.0654833319791,1.00000000165839,0.582973251136423
3699.99999999773,41.007068983943,1.00000000136472,0.557752367529555
3799.99999999764,40.8206029579547,1.0000000016396,0.580559452876435
3899.99999999755,40.5075264105247,1.00000000128589,0.550486386289701
3999.99999999746,40.1194261382955,1.00000000177373,0.576470410495439
4099.99999999738,39.6524731968073,1.00000000118511,0.536949959487874
4199.99999999775,39.1365528699194,1.00000000180434,0.580583422474228
4299.99999999811,38.5932365033589,1.00000000130147,0.535605696679626
4399.99999999848,37.9945743100554,1.00000000163436,0.562018905718971
4499.99999999884,37.4089544099406,1.00000000154544,0.544342003892936
4599.9999999992,36.7951709689245,1.00000000126532,0.513935299105758
4699.99999999957,36.1738311751206,1.00000000202792,0.572618054122436
4799.99999999993,35.5729903964401,1.0000000014751,0.519469536488291
4900.00000000029,34.9561972371107,1.00000000133313,0.508624513823572
5000.00000000066,34.3436920626188,1.00000000191685,0.555534789247006
5100.00000000102,33.756897970573,1.00000000159481,0.514484463805344
5200.00000000139,33.1715663170171,1.00000000134736,0.507828049730549
5300.00000000175,32.5877730477602,1.00000000168985,0.525001236523281
5400.00000000211,32.023895787536,1.00000000189341,0.540443431245401
5500.00000000248,31.4764566024494,1.00000000130851,0.490626162598068
5600.00000000284,30.9379282714366,1.00000000150537,0.523654129353367
5700.00000000321,30.4107547278495,1.00000000158086,0.519797532822655
5800.00000000357,29.8999861131789,1.00000000179038,0.529406632844159
5900.00000000393,29.4053866217687,1.00000000143867,0.501917212558589
6000.0000000043,28.9265931877084,1.00000000152583,0.518868679546462
6100.00000000466,28.4616151205226,1.00000000160728,0.537547376244282
6200.00000000502,28.0125618632466,1.00000000155101,0.511305561963121
6300.00000000539,27.5786795481731,1.00000000164393,0.519871210520083
6400.00000000575,27.159593212956,1.00000000150502,0.507454546157387
6500.00000000612,26.7594661392443,1.00000000149182,0.517141138238531
6600.00000000648,26.3704298996811,1.00000000176967,0.545603159882927
6700.00000000684,25.9974594070078,1.0000000014018,0.512803112991853
6800.00000000721,25.6418021958998,1.00000000148475,0.514285464317587
6900.00000000757,25.2968664385512,1.00000000181459,0.516648263034729
7000.00000000793,24.9656786573669,1.00000000146172,0.507024269527739
7100.0000000083,24.6509483730279,1.00000000150549,0.527226862573654
7200.00000000866,24.3438053922728,1.00000000189231,0.543105233163114
7300.00000000903,24.0464429277935,1.00000000153537,0.526104442947466
7400.00000000939,23.7667717066775,1.00000000149095,0.508218545272368
7500.00000000975,23.5002576289461,1.00000000170227,0.522116566311051
7600.00000001012,23.2415095534233,1.00000000165266,0.520039582070749
7700.00000001048,22.995150024803,1.00000000143849,0.513094927821287
7800.00000001084,22.7608947722355,1.00000000156502,0.535163522694236
7900.00000001121,22.5335239678474,1.00000000160825,0.54284980203943
8000.00000001157,22.3113992087686,1.0000000016891,0.534582351774154
8100.00000001194,22.0969225770692,1.00000000161916,0.541255949985827
8200.0000000123,21.8931553219699,1.0000000015043,0.529965149172811
8300.00000001266,21.7025743229407,1.00000000160948,0.527614726941245
8400.00000001303,21.5213999118082,1.00000000162837,0.534055282367249
8500.00000001339,21.3486524151918,1.000000001609,0.531175500181055
8600.00000001376,21.1871499294013,1.00000000153843,0.534393381397153
8700.00000001412,21.030592898026,1.00000000178018,0.553315501280833
8800.00000001448,20.8773080528844,1.00000000162664,0.550958931809593
8900.00000001485,20.7359950760977,1.00000000144589,0.538567820470405
9000.00000001521,20.5957235361079,1.00000000177264,0.542682699727592
9100.00000001557,20.4530637704253,1.00000000170654,0.565837188371381
9200.00000001594,20.3138185850564,1.00000000147669,0.55137307900331
9300.0000000163,20.1882698753263,1.00000000152023,0.532667515748914
9400.00000001667,20.0719761329555,1.00000000172882,0.551648219573501
9500.00000001703,19.9621867878729,1.00000000153732,0.541897100297692
9600.00000001739,19.8615225499373,1.00000000160762,0.542445492994293
9700.00000001776,19.768496980898,1.00000000163416,0.552993826229986
9800.00000001812,19.6761917930017,1.00000000171398,0.556715022066254
9900.00000001848,19.5808922359818,1.00000000169796,0.561256147649728
10000.0000000188,19.4930786458453,1.00000000149322,0.545616579880128
10100.0000000192,19.4182311525435,1.00000000156156,0.551329481972929
10200.0000000196,19.3415724347184,1.00000000177997,0.56116630000127
10300.0000000199,19.257618373119,1.00000000174272,0.559873095412175
10400.0000000203,19.1693025584449,1.00000000176271,0.574294335912049
10500.0000000207,19.0825047839797,1.00000000162605,0.578050336170903
10600.000000021,19.0019585527363,1.00000000160506,0.567861416021578
10700.0000000214,18.9292806776857,1.0000000016825,0.572246421797197
10800.0000000218,18.8653352545532,1.00000000162254,0.565228550037602
10900.0000000221,18.8113296856982,1.00000000158664,0.553104030402765
11000.0000000225,18.7649044974273,1.00000000171892,0.552989183440693
11100.0000000229,18.7212235757919,1.00000000169253,0.574981280703663
11200.0000000232,18.6762295729307,1.00000000176812,0.579137569653091
11300.0000000236,18.6335623402425,1.00000000162125,0.567631854635554
11400.0000000239,18.5931644871425,1.0000000017163,0.57065201622271
11500.0000000243,18.554479820575,1.00000000168671,0.578560611483764
11600.0000000247,18.5207674707779,1.000000001612,0.572422101502937
11700.000000025,18.4909545736421,1.00000000167273,0.579167529682431
11800.0000000254,18.458409981876,1.00000000166318,0.582012646047505
11900.0000000258,18.4229309009298,1.0000000018286,0.58609868092672
12000.0000000261,18.3820435138041,1.00000000186635,0.591363500847592
12100.0000000265,18.3340748064971,1.00000000186981,0.602130586668015
12200.0000000269,18.2809493242235,1.00000000173885,0.608875325417208
12300.0000000272,18.2288896064579,1.00000000172157,0.60405436790591
12400.0000000276,18.1813507740266,1.00000000165921,0.602501659126071
12500.0000000279,18.1408084538661,1.00000000173396,0.60157127211828
12600.0000000283,18.1077677160173,1.0000000016669,0.588493491659491
12700.0000000287,18.0844908076548,1.00000000162693,0.569692307396342
12800.000000029,18.0702617401819,1.00000000167224,0.568687835927118
12900.0000000294,18.0605498341781,1.00000000177714,0.577549028215392
13000.0000000298,18.0496889732207,1.0000000018009,0.593021850932797
13100.0000000301,18.038538476755,1.00000000173423,0.599087599685689
13200.0000000305,18.0268153103468,1.00000000180749,0.593846222660589
13300.0000000309,18.0181642719027,1.00000000158817,0.587768434108158
13400.0000000312,18.0153624081883,1.00000000163873,0.587127976580828
13500.0000000316,18.0087966502139,1.00000000184685,0.592226939489401
13600.0000000319,17.9980336185541,1.0000000017498,0.594591775292409
13700.0000000323,17.9943905020716,1.0000000016623,0.594695081760541
13800.0000000327,17.9957859179095,1.00000000167222,0.603650487864933
13900.000000033,17.9924655751643,1.00000000181278,0.618277455018141
14000.0000000334,17.9803542261745,1.0000000019156,0.616332326183341
14100.0000000338,17.9623117981341,1.00000000186216,0.618109379140629
14200.0000000341,17.9427519021702,1.00000000170816,0.612856783317501
14300.0000000345,17.9233304989222,1.00000000172105,0.609598798610397
14400.0000000349,17.9009908665504,1.00000000174639,0.61727760752877
14500.0000000352,17.8744188140261,1.00000000185045,0.618131161552191
14600.0000000356,17.8413291748128,1.00000000177016,0.618892502227835
14700.0000000359,17.8033297113194,1.0000000017271,0.617185847474363
14800.0000000363,17.7647031614739,1.00000000168238,0.616040468354065
14900.0000000367,17.7295062447179,1.00000000169597,0.615761807147552
15000.000000037,17.7025606407575,1.00000000169266,0.609316556246482
15100.0000000374,17.6832099534612,1.00000000180087,0.601717390331054
15200.0000000378,17.6735523752785,1.0000000016696,0.595683158075219
15300.0000000381,17.6743270423509,1.00000000169344,0.588912501676825
15400.0000000385,17.6812697689218,1.00000000177801,0.590762952135674
15500.0000000389,17.689649613398,1.0000000018129,0.597218467637334
15600.0000000392,17.6982263298777,1.00000000179953,0.603951193722579
15700.0000000396,17.7073454488368,1.0000000017954,0.600011247889492
15800.0000000399,17.715197920652,1.00000000183217,0.598953797224899
15900.0000000403,17.7281126756679,1.00000000165454,0.59205898937223
16000.0000000407,17.7440647218303,1.0000000018576,0.59690333416441
16100.000000041,17.7559642947043,1.00000000184558,0.605391658466819
16200.0000000414,17.7660466812471,1.00000000180026,0.609095768127556
16300.0000000418,17.7795273808329,1.0000000017591,0.610384252340705
16400.0000000418,17.7928378985156,1.0000000018522,0.607566826371537
16500.0000000404,17.8034739175745,1.00000000185628,0.608217762877493
16600.0000000389,17.8109401966184,1.00000000188152,0.603500756658966
16700.0000000375,17.8173300059799,1.00000000180654,0.598910459258278
16800.000000036,17.8260927484285,1.0000000017749,0.614058794290882
16900.0000000346,17.8340418164886,1.00000000189844,0.632389828683069
17000.0000000331,17.8376311509613,1.00000000191818,0.636954852741719
17100.0000000317,17.8375602223576,1.00000000182155,0.646001928810532
17200.0000000302,17.835571106648,1.00000000192283,0.64077774517747
17300.0000000287,17.8297454161475,1.00000000195622,0.634356899345169
17400.0000000273,17.8240947992805,1.000000001836,0.642761692383097
17500.0000000258,17.8181276607016,1.00000000190611,0.647556579273494
17600.0000000244,17.8091665242554,1.0000000019722,0.653258305954087
17700.0000000229,17.7967898111448,1.00000000183416,0.654034611131214
17800.0000000215,17.7818323450047,1.00000000183351,0.655904339876784
17900.00000002,17.7640085551091,1.0000000019146,0.652830019299794
18000.0000000186,17.7421771303374,1.00000000191056,0.649370912725894
18100.0000000171,17.7174481000559,1.00000000197807,0.646160157821318
18200.0000000156,17.6891156912568,1.0000000019431,0.638269787074421
18300.0000000142,17.6548317289657,1.00000000205636,0.628200819807688
18400.0000000127,17.6180655759372,1.00000000182675,0.633175041376167
18500.0000000113,17.5834088387636,1.00000000183049,0.638186023819305
18600.0000000098,17.5540339019151,1.00000000187774,0.635097398451926
18700.0000000084,17.5305518282069,1.000000001903,0.635600591937215
18800.0000000069,17.5136178524908,1.0000000019573,0.638039811451695
18900.0000000055,17.503450116616,1.00000000181068,0.635297766109249
19000.000000004,17.5001564542486,1.00000000190756,0.633333638132013
19100.0000000026,17.506614376542,1.0000000017939,0.62375506460717
19200.0000000011,17.5213617836948,1.00000000187485,0.613921969686513
19299.9999999996,17.5401954642007,1.00000000199678,0.619225106714843
19399.9999999982,17.5604811217461,1.00000000196426,0.620512372025569
19499.9999999967,17.5827789164576,1.00000000189626,0.620982409641186
19599.9999999953,17.603922686259,1.00000000211251,0.626431081152308
19699.9999999938,17.6258506363795,1.00000000191804,0.619914443651428
19799.9999999924,17.6509322081959,1.00000000185924,0.614658073754557
19899.9999999909,17.679037175313,1.000000001916,0.613356808276376
19999.9999999895,17.7075591839253,1.00000000202038,0.607946863307104
20099.999999988,17.7355566205098,1.00000000191363,0.611011400649472
20199.9999999865,17.7649526198258,1.00000000200843,0.618440032464128
20299.9999999851,17.7924901821136,1.0000000019789,0.616862010152769
20399.9999999836,17.817147057407,1.00000000199611,0.61441253174039
20499.9999999822,17.8408992702414,1.00000000200701,0.612715422756497
20599.9999999807,17.8670485517886,1.00000000196182,0.617269242117185
20699.9999999793,17.8935982307887,1.00000000204536,0.617527744014206
20799.9999999778,17.9173599690766,1.00000000206849,0.616624991013974
20899.9999999764,17.9362177484078,1.00000000202756,0.622421783817715
20999.9999999749,17.9538856605189,1.00000000192169,0.632022036524462
21099.9999999734,17.9707005075851,1.00000000208674,0.638570551559232
21199.999999972,17.9870176878467,1.0000000020881,0.642516789182818
21299.9999999705,18.0026932596809,1.00000000202828,0.636785995918251
21399.9999999691,18.0183653210665,1.0000000020064,0.64253333246493
21499.9999999676,18.0321421681687,1.00000000218767,0.642939274794612
21599.9999999662,18.0448709195279,1.00000000193775,0.644818232997117
21699.9999999647,18.0586007664832,1.00000000205917,0.647182207737753
21799.9999999633,18.0732806143217,1.00000000191806,0.645673716296166
21899.9999999618,18.0884121663404,1.00000000214947,0.651244520115321
21999.9999999603,18.0998636901999,1.00000000212115,0.639572293173645
22099.9999999589,18.1073524035198,1.00000000212327,0.641487366509589
22199.9999999574,18.1125435211261,1.00000000206331,0.649086498707097
22299.999999956,18.1163108160426,1.00000000201864,0.647818017665114
22399.9999999545,18.1202764387716,1.00000000204298,0.647178589421962
22499.9999999531,18.1257455458906,1.00000000192313,0.649486150827444
22599.9999999516,18.1302118293804,1.00000000208376,0.657141234044295
22699.9999999502,18.135870275163,1.00000000194751,0.663247500448562
22799.9999999487,18.1416896378897,1.00000000228458,0.664102589984525
22899.9999999473,18.1460215161156,1.000000002086,0.66957794286713
22999.9999999458,18.1467454104722,1.00000000210883,0.663510379290188
23099.9999999443,18.1447301398385,1.00000000213907,0.660532482021051
23199.9999999429,18.1399049162234,1.00000000203019,0.662771295207553
23299.9999999414,18.1345359536548,1.00000000198235,0.671938704118717
23399.99999994,18.1245532649052,1.00000000228278,0.669943041217851
23499.9999999385,18.1142197510676,1.00000000204834,0.655597251065303
23599.9999999371,18.103748823279,1.00000000218053,0.667327089465397
23699.9999999356,18.0927404187393,1.00000000203078,0.661392029769516
23799.9999999342,18.0809749797778,1.00000000221689,0.667616434286606
23899.9999999327,18.066498873403,1.00000000216844,0.668169850128346
23999.9999999312,18.0494056790022,1.00000000216843,0.671804091729759
24099.9999999298,18.0286546610948,1.00000000208573,0.682088077067455
24199.9999999283,18.0074354167112,1.00000000215619,0.681984353825437
24299.9999999269,17.9856317762987,1.00000000218931,0.683490543166175
24399.9999999254,17.9616784045875,1.00000000218368,0.678421487179555
24499.999999924,17.9364699388804,1.00000000220072,0.675512362257444
24599.9999999225,17.9109373589904,1.00000000219347,0.670301091707183
24699.9999999211,17.8877620224669,1.00000000206222,0.665350594545175
24799.9999999196,17.8674536711096,1.00000000208557,0.661120821623191
24899.9999999181,17.8495608333173,1.00000000214695,0.655075172074271
24999.9999999167,17.8356700546627,1.00000000218461,0.644521517706149
25099.9999999152,17.8271252460686,1.00000000211341,0.638876587302808
25199.9999999138,17.823678052163,1.00000000217976,0.638560852784225
25299.9999999123,17.8257069298189,1.00000000211466,0.641411380375985
25399.9999999109,17.8349581660449,1.00000000201083,0.644241048569282
25499.9999999094,17.8524299644963,1.00000000213979,0.643216667808125
25599.999999908,17.8772338456308,1.00000000211399,0.641719437655474
25699.9999999065,17.9075306206062,1.00000000209856,0.631176378238691
25799.9999999051,17.9433827518436,1.00000000222337,0.627639841820555
25899.9999999036,17.9789893763506,1.00000000237282,0.636318678615927
25999.9999999021,18.0146786858578,1.00000000217583,0.634381521685334
26099.9999999007,18.052584035637,1.00000000224124,0.635485012114101
26199.9999998992,18.0914084503118,1.00000000219825,0.634415705306711
26299.9999998978,18.1337026965272,1.00000000221146,0.634055541446423
26399.9999998963,18.1782837576182,1.00000000221682,0.632997534459838
26499.9999998949,18.2234851161181,1.0000000021469,0.628260505920898
26599.9999998934,18.2727112431288,1.00000000227051,0.631592042367866
26699.999999892,18.3222697638082,1.00000000229042,0.62996248217098
26799.9999998905,18.3719521548419,1.00000000228956,0.634803544362304
26899.999999889,18.4235615872837,1.00000000228984,0.636642883432076
26999.9999998876,18.4730895049528,1.00000000226601,0.639562675842451
27099.9999998861,18.5220228649024,1.00000000238112,0.640411160369674
27199.9999998847,18.5702103616163,1.00000000235543,0.638809002640047
27299.9999998832,18.6203563347954,1.00000000237826,0.639033107672167
27399.9999998818,18.6705258154809,1.0000000023315,0.646083671662528
27499.9999998803,18.7218868838746,1.00000000220908,0.641993483073804
27599.9999998789,18.7730776050341,1.00000000239355,0.648097975489659
27699.9999998774,18.8216460928446,1.00000000233846,0.652741397454139
27799.9999998759,18.8672551537117,1.00000000247145,0.653412342583186
27899.9999998745,18.9086010253214,1.00000000237142,0.665466324549721
27999.999999873,18.9498863613838,1.00000000216222,0.662555043058116
28099.9999998716,18.9913572772684,1.00000000221354,0.665347581279763
28199.9999998701,19.0326387940108,1.00000000225038,0.667940456382329
28299.9999998687,19.0728586472744,1.00000000241156,0.672375078445811
28399.9999998672,19.1108566919799,1.00000000231342,0.668443070413611
28499.9999998658,19.143563110161,1.00000000248062,0.674463816166819
28599.9999998643,19.1743582655803,1.00000000242329,0.6676330072893
28699.9999998629,19.2069603375459,1.00000000234521,0.673229375974811
28799.9999998614,19.2413644053071,1.00000000234314,0.6743728445798
28899.9999998599,19.2733516390073,1.00000000249058,0.674859484540366
28999.9999998585,19.3027141494604,1.00000000247103,0.680322253694779
29099.999999857,19.3302556819489,1.00000000246434,0.68191355648099
