Time,AGPnorm,Energy,Entropy
0,0,1,-7.72483419777094e-17
99.9999999999986,0.000730997462467793,0.999999999998267,0.00263291060785439
199.999999999993,0.0051680402335953,0.999999999999227,0.00778364120337645
300,0.0103497167014201,1.00000000000136,0.0145867852495506
400.000000000022,0.0159054945126369,1.00000000000109,0.0231561555172622
500.000000000045,0.0228112545504929,0.999999999998583,0.0334237783401599
600.000000000068,0.03199893275542,0.999999999998408,0.0450632825776175
700.000000000091,0.0411554463684497,1.00000000000056,0.0580375425458965
800.000000000113,0.0512383756488272,1.00000000000179,0.0724440816335604
900.000000000136,0.0618239646879945,0.999999999999637,0.0885375642072014
1000.00000000016,0.073687126506923,0.999999999998098,0.106212955137274
1100.0000000001,0.0858169202304808,0.999999999999619,0.126124787423476
1200,0.0972852749467608,1.00000000000233,0.148740884114651
1299.99999999991,0.109216318025979,1.00000000000487,0.175209560316811
1399.99999999982,0.120426383266806,1.00000000001465,0.206166827175994
1499.99999999973,0.132616111213851,1.00000000005182,0.241931606835513
1599.99999999964,0.152990775665016,1.00000000012707,0.280485931136271
1699.99999999955,0.191444688738492,1.00000000023005,0.31903495964183
1799.99999999946,0.265022516099314,1.00000000034899,0.355060956869293
1899.99999999937,0.426649220672498,1.00000000045451,0.387198754591576
1999.99999999928,0.747166628976396,1.00000000062549,0.415407181037266
2099.99999999919,1.28332517712012,1.00000000072849,0.44070685902739
2199.99999999909,2.10046047733819,1.00000000084969,0.462715614378876
2299.999999999,3.27726158937371,1.00000000092439,0.481428008692558
2399.99999999891,4.85839568858276,1.00000000092533,0.497359578919694
2499.99999999882,6.85550710126966,1.00000000100228,0.511386274507335
2599.99999999873,9.29245203103528,1.00000000108699,0.523241234570477
2699.99999999864,12.194165925155,1.00000000109521,0.532841447698939
2799.99999999855,15.5235637827005,1.00000000108606,0.540582126447717
2899.99999999846,19.2115985929396,1.00000000107185,0.547533552300472
2999.99999999837,23.2234911674223,1.00000000109821,0.553098482475702
3099.99999999828,27.5485990894186,1.00000000112195,0.556908737883113
3199.99999999819,32.1251199671655,1.00000000109904,0.559866099318393
3299.99999999809,36.8500607542893,1.00000000112671,0.562180066066582
3399.999999998,41.658126051761,1.00000000106727,0.564133352926695
3499.99999999791,46.5325826730498,1.00000000102985,0.564920906468955
3599.99999999782,51.4326449614205,1.00000000104773,0.564733864462565
3699.99999999773,56.2749834079367,1.00000000099396,0.564662317832312
3799.99999999764,60.9940044458153,1.00000000099882,0.564453144334362
3899.99999999755,65.5676057465146,1.00000000097978,0.564566962739585
3999.99999999746,69.983160968706,1.00000000095188,0.56222743903491
4099.99999999738,74.206793404636,1.00000000089206,0.560238288139759
4199.99999999775,78.1835483467817,1.00000000091267,0.559914632744554
4299.99999999811,81.8930585372222,1.00000000085386,0.558180705493038
4399.99999999848,85.3485503798573,1.00000000087251,0.555732008284042
4499.99999999884,88.5401824151675,1.00000000082448,0.554307281827548
4599.9999999992,91.451045462906,1.00000000079614,0.552722423595219
4699.99999999957,94.0648979625964,1.00000000074391,0.551054842007125
4799.99999999993,96.3887504284348,1.00000000073537,0.54903626095882
4900.00000000029,98.4425260339373,1.00000000073488,0.55007449253674
5000.00000000066,100.227340248807,1.00000000068722,0.543187280457285
5100.00000000102,101.736666122797,1.00000000069483,0.544413893320945
5200.00000000139,102.987724012651,1.00000000065824,0.549584278047405
5300.00000000175,103.997916366535,1.00000000063051,0.538762164157376
5400.00000000211,104.761894595021,1.00000000063324,0.535636519409081
5500.00000000248,105.313955927833,1.0000000007001,0.553780730721889
5600.00000000284,105.682683079889,1.00000000065044,0.543025548831562
5700.00000000321,105.832737091049,1.00000000055424,0.51967376053084
5800.00000000357,105.782352670107,1.00000000060007,0.543163421553778
5900.00000000393,105.625518926969,1.00000000073215,0.562034255688392
6000.0000000043,105.360006041485,1.00000000055603,0.525715946031453
6100.00000000466,104.908859046493,1.00000000045706,0.500044657938516
6200.00000000502,104.314828112865,1.00000000063389,0.5455149251396
6300.00000000539,103.696520974496,1.00000000079333,0.569425192650942
6400.00000000575,103.048628603567,1.00000000061641,0.526485167935741
6500.00000000612,102.273287094729,1.00000000037254,0.473121413100982
6600.00000000648,101.370904905256,1.00000000051903,0.514544212360014
6700.00000000684,100.459276305499,1.00000000081198,0.570266020413467
6800.00000000721,99.5938440630572,1.00000000079131,0.561214762704277
6900.00000000757,98.7088567540666,1.00000000050605,0.487083635522625
7000.00000000793,97.7222339344141,1.00000000033042,0.440849457978792
7100.0000000083,96.6638105765834,1.00000000059898,0.506726109706663
7200.00000000866,95.6288499553471,1.00000000089854,0.566495016518125
7300.00000000903,94.6594375978473,1.00000000087901,0.56554958319808
7400.00000000939,93.7137768048973,1.00000000062798,0.502408657819537
7500.00000000975,92.7202270326228,1.00000000035779,0.420194259097908
7600.00000001012,91.6648449613856,1.00000000039188,0.434987806039296
7700.00000001048,90.5999591510434,1.00000000072031,0.516692892729988
7800.00000001084,89.5772869123023,1.00000000090232,0.56053085834541
7900.00000001121,88.6106937716317,1.0000000008852,0.555230636208597
8000.00000001157,87.6730212769955,1.00000000065019,0.502874531076385
8100.00000001194,86.7213965129512,1.00000000041811,0.425899320405078
8200.0000000123,85.7424156041328,1.00000000036548,0.404314516493904
8300.00000001266,84.7541865466818,1.00000000052336,0.45493682930302
8400.00000001303,83.7810457008802,1.00000000074383,0.519677906433945
8500.00000001339,82.8412797087744,1.00000000088595,0.546539562255683
8600.00000001376,81.9399555031597,1.00000000083543,0.541462690408187
8700.00000001412,81.0637430431933,1.00000000067141,0.506732026381233
8800.00000001448,80.1940677824693,1.00000000051225,0.453846607854094
8900.00000001485,79.3252108529649,1.00000000042068,0.415577124138829
9000.00000001521,78.4625356610645,1.00000000045874,0.427821884665774
9100.00000001557,77.6118746163677,1.00000000059989,0.464206028541545
9200.00000001594,76.7771951526174,1.00000000071267,0.504515776296364
9300.0000000163,75.9599513727529,1.0000000007601,0.524506067076961
9400.00000001667,75.1619240358985,1.00000000085021,0.535059469691638
9500.00000001703,74.3833586897701,1.00000000076006,0.530371312527948
9600.00000001739,73.6208171288777,1.00000000059684,0.491231757206515
9700.00000001776,72.8730234535099,1.00000000045754,0.45052971768082
9800.00000001812,72.1442115882184,1.00000000050416,0.437669115082298
9900.00000001848,71.4375912481331,1.00000000055289,0.444818736342824
10000.0000000188,70.7497753518278,1.00000000061084,0.473894740310997
10100.0000000192,70.0786249689726,1.0000000006093,0.48569023195843
10200.0000000196,69.4222060978957,1.00000000058491,0.497604772270448
10300.0000000199,68.7786369922205,1.00000000067732,0.508307760943698
10400.0000000203,68.1428595934973,1.00000000082243,0.523372856019824
10500.0000000207,67.5118209054035,1.00000000082401,0.535572905552473
10600.000000021,66.8889495009856,1.00000000068085,0.523199934149731
10700.0000000214,66.2826989584651,1.00000000051685,0.483753216442328
10800.0000000218,65.7034192021066,1.00000000042969,0.444570892088906
10900.0000000221,65.1531541201737,1.00000000051573,0.441331059302945
11000.0000000225,64.625715400934,1.0000000006564,0.454769145640593
11100.0000000229,64.1123606589646,1.00000000066522,0.476885960340018
11200.0000000232,63.6090247955733,1.00000000065158,0.494614632676813
11300.0000000236,63.1177864495022,1.00000000060434,0.492535060828719
11400.0000000239,62.6430601365354,1.00000000053775,0.486373572354119
11500.0000000243,62.1835075377144,1.00000000057871,0.494467956346346
11600.0000000247,61.730116237138,1.00000000068592,0.509954532375112
11700.000000025,61.2721349889053,1.00000000081852,0.527009566922382
11800.0000000254,60.8064240299406,1.00000000085675,0.539245099663859
11900.0000000258,60.3407553667917,1.00000000075635,0.531623026005238
12000.0000000261,59.8864250355365,1.0000000005975,0.503779697590836
12100.0000000265,59.4565028023963,1.00000000047393,0.467822100752999
12200.0000000269,59.0598735982172,1.00000000046426,0.449516538944096
12300.0000000272,58.6940806882432,1.00000000051613,0.449992676027038
12400.0000000276,58.3480511318508,1.00000000061363,0.464897198571082
12500.0000000279,58.009918254422,1.00000000070745,0.479806406285166
12600.0000000283,57.6751410424415,1.00000000071097,0.490735534399146
12700.0000000287,57.3449895825428,1.00000000069035,0.50227671325917
12800.000000029,57.0221180293569,1.00000000064856,0.508119659850973
12900.0000000294,56.708299385688,1.00000000059311,0.509108160321548
13000.0000000298,56.4028629515154,1.00000000059628,0.51686550626787
13100.0000000301,56.1036880637682,1.00000000060438,0.521692277969876
13200.0000000305,55.8059300924649,1.00000000065398,0.519480539215091
13300.0000000309,55.505900374748,1.00000000071215,0.519068016377539
13400.0000000312,55.1990332744543,1.0000000007563,0.526012000323969
13500.0000000316,54.8836070780021,1.00000000080534,0.540140032415351
13600.0000000319,54.565971700565,1.00000000069663,0.541788092849371
13700.0000000323,54.2583156359858,1.00000000059413,0.519978134266999
13800.0000000327,53.973378682997,1.00000000051049,0.493152302813473
13900.000000033,53.7178650675513,1.00000000049937,0.468916315589852
14000.0000000334,53.4907703861135,1.00000000052087,0.471801419965572
14100.0000000338,53.2849738951638,1.00000000060185,0.476603848338488
14200.0000000341,53.0927528220657,1.00000000063234,0.476769085319013
14300.0000000345,52.9084224735945,1.00000000065831,0.485189973093014
14400.0000000349,52.7284833349977,1.0000000006417,0.497369888453321
14500.0000000352,52.5576954399308,1.00000000061841,0.494835860719879
14600.0000000356,52.3999653332271,1.00000000057375,0.496087699533213
14700.0000000359,52.2494162170065,1.00000000065375,0.509062035413644
14800.0000000363,52.0932507663716,1.00000000075795,0.526053038513913
14900.0000000367,51.923783727863,1.0000000007701,0.539454135664021
15000.000000037,51.7406391421095,1.00000000068347,0.543408747569895
15100.0000000374,51.5506134370677,1.00000000062581,0.546927731447569
15200.0000000378,51.3605124960316,1.00000000060515,0.537904005212919
15300.0000000381,51.1765512818719,1.00000000056622,0.526432547818911
15400.0000000385,51.000153535935,1.00000000063195,0.519138012910296
15500.0000000389,50.8255066172395,1.00000000072401,0.515961673830363
15600.0000000392,50.6455965949787,1.00000000076602,0.528152763969311
15700.0000000396,50.4559032958705,1.00000000079051,0.540761772512135
15800.0000000399,50.2561726546137,1.0000000007492,0.54727604084577
15900.0000000403,50.0543530844405,1.00000000068232,0.545831218041665
16000.0000000407,49.8633995698818,1.00000000060405,0.532302798123507
16100.000000041,49.6942804835421,1.00000000053343,0.510524569200562
16200.0000000414,49.5522214958302,1.00000000049914,0.492603867343765
16300.0000000418,49.4367098900364,1.00000000053929,0.482587810561127
16400.0000000418,49.3438225207057,1.00000000057461,0.481408715271951
16500.0000000404,49.2635216164385,1.00000000061661,0.486757316842742
16600.0000000389,49.1879135736238,1.00000000067694,0.490987255528028
16700.0000000375,49.115423910701,1.0000000006259,0.490928102302037
16800.000000036,49.0485318049434,1.0000000006199,0.49253323871545
16900.0000000346,48.9870289420822,1.00000000065246,0.503753669993686
17000.0000000331,48.9289458570897,1.00000000062818,0.518752892938409
17100.0000000317,48.874243154396,1.00000000063424,0.527865626932904
17200.0000000302,48.8252952913915,1.00000000061223,0.532479097517306
17300.0000000287,48.7842263914152,1.00000000059484,0.536323549781115
17400.0000000273,48.7462895691552,1.00000000061892,0.540083753127735
17500.0000000258,48.7043891365582,1.00000000067222,0.542972463009835
17600.0000000244,48.649795998543,1.00000000071965,0.545161805679246
17700.0000000229,48.5777452892198,1.00000000074191,0.549866228437625
17800.0000000215,48.4867793926532,1.00000000073666,0.54722980875901
17900.00000002,48.3807390786171,1.00000000068829,0.549218793091093
18000.0000000186,48.2651853848089,1.00000000066743,0.558857609021233
18100.0000000171,48.1448832785364,1.00000000063828,0.566073929771038
18200.0000000156,48.0253642426855,1.0000000005887,0.56041877661801
18300.0000000142,47.9104541460149,1.0000000005817,0.554272990168067
18400.0000000127,47.8014142693331,1.00000000057021,0.552124864575935
18500.0000000113,47.6971840212589,1.00000000062658,0.545162129730301
18600.0000000098,47.5942176451215,1.00000000069751,0.540626931773567
18700.0000000084,47.4887647638864,1.00000000074898,0.546789686444416
18800.0000000069,47.3776214643364,1.0000000007394,0.555637807721834
18900.0000000055,47.2585151249821,1.00000000079024,0.563235364181681
19000.000000004,47.1329255273721,1.00000000076693,0.565740006151311
19100.0000000026,47.0075284904026,1.00000000064045,0.561274647461265
19200.0000000011,46.892244962316,1.00000000058108,0.548481621819948
19299.9999999996,46.7956661109958,1.00000000052538,0.534010152077132
19399.9999999982,46.7222748159758,1.00000000053114,0.521067673711092
19499.9999999967,46.6728010261847,1.00000000055323,0.509992636585961
19599.9999999953,46.6433694198458,1.00000000059524,0.501009910921493
19699.9999999938,46.6270260132108,1.00000000065403,0.505745880580573
19799.9999999924,46.6191500898435,1.00000000066602,0.510408061818881
19899.9999999909,46.6186397137643,1.0000000006568,0.505881410154899
19999.9999999895,46.6233115052494,1.00000000067524,0.500835213182035
20099.999999988,46.6314111573766,1.0000000006653,0.502058937742792
20199.9999999865,46.6426263244228,1.00000000063663,0.504300488570749
20299.9999999851,46.6609520251631,1.00000000058612,0.500739249818956
20399.9999999836,46.6882321168892,1.00000000059191,0.500438069071842
20499.9999999822,46.7225474499524,1.0000000006279,0.515615422381689
20599.9999999807,46.756032642424,1.00000000069371,0.538140446745021
20699.9999999793,46.7817838712485,1.00000000074497,0.549645586375308
20799.9999999778,46.7964796104382,1.00000000069729,0.556877397362938
20899.9999999764,46.8015681964251,1.00000000073083,0.565143324793201
20999.9999999749,46.8025312320565,1.00000000064558,0.568406858380231
21099.9999999734,46.803771861974,1.00000000064062,0.566134651984774
21199.999999972,46.8042829509209,1.00000000063966,0.565068329343768
21299.9999999705,46.8012724490989,1.00000000063211,0.572629541594977
21399.9999999691,46.7944138963893,1.00000000068433,0.583202382523898
21499.9999999676,46.7847699872082,1.00000000065261,0.583795855822299
21599.9999999662,46.7706339549471,1.00000000067531,0.583291695041148
21699.9999999647,46.7488182597544,1.00000000064389,0.578910399319321
21799.9999999633,46.7175638437372,1.00000000068514,0.576816589043966
21899.9999999618,46.6765781959552,1.00000000070334,0.573857514966006
21999.9999999603,46.6266438485399,1.00000000069875,0.56225969849742
22099.9999999589,46.5684959449303,1.00000000070261,0.552973999607755
22199.9999999574,46.5012049380675,1.00000000070347,0.559932967252473
22299.999999956,46.4238223875665,1.00000000078976,0.577671687939813
22399.9999999545,46.3375689891906,1.00000000076012,0.584586310381653
22499.9999999531,46.2454537124855,1.0000000006902,0.584147500185959
22599.9999999516,46.1525124813442,1.0000000006589,0.581567449204454
22699.9999999502,46.0619050815882,1.00000000061805,0.581465373482306
22799.9999999487,45.9748135276559,1.00000000059076,0.582705174103433
22899.9999999473,45.8920304731608,1.00000000059773,0.586423121344693
22999.9999999458,45.8124839000306,1.00000000061139,0.583425610225815
23099.9999999443,45.7357523424288,1.00000000062943,0.579596672308272
23199.9999999429,45.6610406697255,1.00000000063911,0.581221122314334
23299.9999999414,45.5864861337087,1.00000000067875,0.582094679782047
23399.99999994,45.5105014341881,1.0000000007315,0.579475129015025
23499.9999999385,45.431060900991,1.00000000074485,0.576147702758101
23599.9999999371,45.3480179041989,1.00000000074481,0.573004040935471
23699.9999999356,45.2605877361468,1.00000000075252,0.572113576976906
23799.9999999342,45.1704834960419,1.00000000072776,0.56622197602497
23899.9999999327,45.082863989276,1.00000000065031,0.565803877743278
23999.9999999312,45.0044860634743,1.00000000059103,0.561840227287483
24099.9999999298,44.9408476170476,1.00000000054474,0.554423626612713
24199.9999999283,44.8950379684908,1.00000000054598,0.542160374996932
24299.9999999269,44.8671930408447,1.00000000054813,0.53735003541762
24399.9999999254,44.8574465005645,1.00000000059212,0.53368064420912
24499.999999924,44.8638758073067,1.00000000058824,0.524187477361214
24599.9999999225,44.8825677542259,1.00000000064768,0.524447522362959
24699.9999999211,44.9094088487817,1.00000000064112,0.522686565102489
24799.9999999196,44.9432920975172,1.00000000062214,0.519265211376238
24899.9999999181,44.9831444371698,1.00000000065774,0.519398300551456
24999.9999999167,45.0265610964115,1.00000000065627,0.519395866787707
25099.9999999152,45.0739148681034,1.00000000063317,0.520545706673112
25199.9999999138,45.1272020443224,1.00000000062045,0.519129660925121
25299.9999999123,45.1874629826665,1.00000000059921,0.512510837647079
25399.9999999109,45.2544451710335,1.00000000062753,0.512908391544114
25499.9999999094,45.3245480776923,1.00000000067103,0.519579842026591
25599.999999908,45.3933352839878,1.00000000067014,0.529938655731014
25699.9999999065,45.4564929008821,1.00000000068561,0.541705762033986
25799.9999999051,45.5148512627744,1.00000000066128,0.554286403877804
25899.9999999036,45.5686215959663,1.0000000006768,0.563229808649777
25999.9999999021,45.6176333613384,1.00000000066372,0.566811334771153
26099.9999999007,45.661420068069,1.00000000067881,0.575471261171536
26199.9999998992,45.7010588611743,1.00000000068154,0.580375801253469
26299.9999998978,45.7366675804258,1.00000000069305,0.580026167090269
26399.9999998963,45.7690302195852,1.00000000064833,0.582758330458708
26499.9999998949,45.7981318705358,1.00000000064848,0.582335711212183
26599.9999998934,45.8223596357025,1.00000000070818,0.585011387955556
26699.999999892,45.8410028874763,1.00000000074432,0.584551654538274
26799.9999998905,45.854082249652,1.00000000068026,0.584231513082274
26899.999999889,45.8615813078815,1.00000000067835,0.586060776379481
26999.9999998876,45.8639963178164,1.00000000065142,0.58401120776689
27099.9999998861,45.8626364401983,1.00000000063695,0.587653336628033
27199.9999998847,45.8598504888338,1.00000000064855,0.589548302522676
27299.9999998832,45.8577890399566,1.00000000063205,0.584019043562498
27399.9999998818,45.8556234354549,1.0000000006551,0.584495647691652
27499.9999998803,45.8510699730851,1.00000000066964,0.584387143291515
27599.9999998789,45.8420794447506,1.00000000065561,0.584794496863119
27699.9999998774,45.8286097071013,1.00000000067069,0.583214472404679
27799.9999998759,45.8113837913254,1.00000000066759,0.576857152432818
27899.9999998745,45.7901704235651,1.00000000067343,0.575297890988388
27999.999999873,45.7647601758767,1.00000000066736,0.573902868006451
28099.9999998716,45.7359621365368,1.00000000068425,0.5735506116777
28199.9999998701,45.7037595260842,1.00000000069561,0.581752454673984
28299.9999998687,45.6668846868874,1.00000000071867,0.583928919879336
28399.9999998672,45.6264349283325,1.00000000067581,0.588082017297884
28499.9999998658,45.5818067864148,1.00000000066479,0.591703239012245
28599.9999998643,45.5346864947835,1.00000000066978,0.591758638541519
28699.9999998629,45.4879582012131,1.0000000006244,0.590148317196053
28799.9999998614,45.4405452737959,1.00000000067078,0.592001121244005
28899.9999998599,45.392032950503,1.00000000065232,0.590719587465542
28999.9999998585,45.3430566043042,1.00000000060592,0.583278101550262
