Time,AGPnorm,Energy,Entropy
0,0,1,-7.34957566446691e-17
99.9999999999986,0.00110371618853446,0.999999999999396,0.00370532126610793
199.999999999993,0.00744380664174419,0.999999999996209,0.010802277929389
300,0.0154391855255688,0.999999999996025,0.0196925742876479
400.000000000022,0.0229247807051653,0.999999999999118,0.0309988481660101
500.000000000045,0.0321791503761876,0.999999999999816,0.0449622842932725
600.000000000068,0.0444667070615602,0.999999999997325,0.0609227648741148
700.000000000091,0.057642175333458,0.99999999999588,0.0784388624044722
800.000000000113,0.070279543230183,0.999999999998002,0.0981208504552847
900.000000000136,0.0839918947972259,0.999999999999978,0.121211505324103
1000.00000000016,0.0981375746257823,0.999999999998899,0.148074844254
1100.0000000001,0.113235523075108,1.00000000000217,0.179855023664368
1200,0.128384851071568,1.00000000003133,0.21822467289227
1299.99999999991,0.144290944615501,1.00000000012274,0.263177211640693
1399.99999999982,0.160926586822974,1.00000000028094,0.310341488900185
1499.99999999973,0.221460796043937,1.00000000049242,0.354057936296349
1599.99999999964,0.390805806534035,1.00000000072078,0.39256669440305
1699.99999999955,0.703789906248371,1.00000000088415,0.426243509360093
1799.99999999946,1.2292172778049,1.0000000011458,0.455773437218035
1899.99999999937,2.09277695259564,1.00000000123137,0.480627702301755
1999.99999999928,3.37260718064303,1.0000000014115,0.500841518683828
2099.99999999919,5.05769815052535,1.0000000013999,0.518363576274117
2199.99999999909,7.14816948293484,1.00000000143256,0.533394885887521
2299.999999999,9.6868829093722,1.00000000157509,0.544715380666329
2399.99999999891,12.6517906167885,1.00000000155744,0.553826804882196
2499.99999999882,15.9523477316554,1.00000000162932,0.561056533041997
2599.99999999873,19.5140615484638,1.00000000151329,0.56736742335457
2699.99999999864,23.3069651016409,1.0000000015921,0.571246472351778
2799.99999999855,27.2770819596596,1.00000000153423,0.573919894274836
2899.99999999846,31.3242038736086,1.00000000147482,0.57584077029913
2999.99999999837,35.3693662949856,1.00000000138344,0.576916630596453
3099.99999999828,39.371597723037,1.00000000143464,0.577044902810645
3199.99999999819,43.2922498184077,1.00000000131659,0.576369685874986
3299.99999999809,47.0715905605593,1.00000000127879,0.57492015825782
3399.999999998,50.6565986577443,1.00000000129421,0.573111816560123
3499.99999999791,54.0253046917,1.00000000124921,0.57255644599875
3599.99999999782,57.1572473112793,1.00000000125681,0.572080925155039
3699.99999999773,60.0359636637278,1.00000000115445,0.567950054321261
3799.99999999764,62.6436495988544,1.00000000108441,0.565643030935237
3899.99999999755,64.9634738013153,1.00000000113526,0.566866898723103
3999.99999999746,66.9990030508889,1.00000000101673,0.562963396709833
4099.99999999738,68.7652794468115,1.00000000097228,0.560416190973721
4199.99999999775,70.254143291686,1.00000000100482,0.55892531874286
4299.99999999811,71.4736282703952,1.00000000096106,0.560617638368177
4399.99999999848,72.437221043859,1.00000000086182,0.552245550613641
4499.99999999884,73.1562358954607,1.00000000095014,0.560607821242099
4599.9999999992,73.6685062065833,1.00000000084641,0.554076305211583
4699.99999999957,73.9545377396292,1.00000000079051,0.544162553191442
4799.99999999993,74.0580930794604,1.00000000097161,0.568531533709334
4900.00000000029,74.01801130931,1.00000000083681,0.543856738203464
5000.00000000066,73.7903753824737,1.0000000007539,0.538129201363141
5100.00000000102,73.4666664282221,1.00000000105364,0.575452683009555
5200.00000000139,73.063822442232,1.00000000080789,0.532446498474276
5300.00000000175,72.5093130343084,1.00000000065753,0.518129556001425
5400.00000000211,71.8940430358089,1.00000000108094,0.576345199871898
5500.00000000248,71.2756211221721,1.00000000094347,0.545739263704855
5600.00000000284,70.5653753098073,1.00000000056938,0.486549837169222
5700.00000000321,69.7705043582408,1.00000000093702,0.545861923673697
5800.00000000357,69.0010662961802,1.00000000118724,0.577805104696965
5900.00000000393,68.2406082927055,1.00000000079909,0.511471758201426
6000.0000000043,67.4084673737022,1.00000000053727,0.462116873687694
6100.00000000466,66.5345760527583,1.00000000093504,0.538253332209547
6200.00000000502,65.7021751889665,1.00000000126787,0.574210617529612
6300.00000000539,64.9027117345739,1.00000000088778,0.51684121847013
6400.00000000575,64.0723220470725,1.00000000059098,0.447558962453834
6500.00000000612,63.204531213377,1.00000000074508,0.478487360829274
6600.00000000648,62.3513782657001,1.00000000114806,0.553584041884996
6700.00000000684,61.5444088875984,1.00000000121051,0.555317088160411
6800.00000000721,60.760238075444,1.00000000081571,0.49200186558852
6900.00000000757,59.9642082560172,1.00000000058895,0.444316267608717
7000.00000000793,59.1566750537376,1.00000000073519,0.462943233145072
7100.0000000083,58.3590432208056,1.0000000010742,0.524175050528597
7200.00000000866,57.5917874526335,1.00000000122737,0.550921419776957
7300.00000000903,56.8534521569269,1.00000000106868,0.520765049213015
7400.00000000939,56.1267257223302,1.00000000074743,0.474438214216719
7500.00000000975,55.4059249902587,1.00000000070036,0.455971669023918
7600.00000001012,54.6929121585454,1.00000000073932,0.474230802221436
7700.00000001048,53.9926484463641,1.00000000091604,0.501245310808341
7800.00000001084,53.3102960984831,1.00000000108946,0.530631761046579
7900.00000001121,52.6465929549146,1.00000000115133,0.532463811889509
8000.00000001157,51.99976474894,1.00000000086179,0.505573914983333
8100.00000001194,51.3689589657391,1.00000000066929,0.467693062186326
8200.0000000123,50.7563032699215,1.00000000076372,0.473556136059157
8300.00000001266,50.1603073846842,1.00000000086637,0.495428942014713
8400.00000001303,49.5804207811751,1.00000000083326,0.490936235912326
8500.00000001339,49.0169629781749,1.00000000084349,0.499029316576559
8600.00000001376,48.466145830207,1.00000000102682,0.523622845861768
8700.00000001412,47.9237081216466,1.00000000115995,0.531566168852892
8800.00000001448,47.392789533711,1.00000000086023,0.511052413667258
8900.00000001485,46.883269545896,1.0000000006548,0.473111819949534
9000.00000001521,46.3979275334864,1.00000000074519,0.476076480212882
9100.00000001557,45.928959899391,1.00000000099597,0.492844905462269
9200.00000001594,45.4694342395533,1.00000000099313,0.510829766599178
9300.0000000163,45.0247284120009,1.00000000077702,0.49423123335596
9400.00000001667,44.6003242612925,1.00000000077759,0.485089308047352
9500.00000001703,44.188110500251,1.00000000090729,0.513068625168758
9600.00000001739,43.7779794485488,1.00000000111063,0.534607399893444
9700.00000001776,43.366748819163,1.00000000104888,0.529034964826997
9800.00000001812,42.9654469464726,1.00000000081698,0.507113885536002
9900.00000001848,42.5875108275555,1.00000000071608,0.480740892840918
10000.0000000188,42.2344010676083,1.00000000077209,0.480716596313825
10100.0000000192,41.8980346652969,1.00000000090492,0.492529000904359
10200.0000000196,41.5652441370416,1.00000000104036,0.500891363577546
10300.0000000199,41.2355127495886,1.00000000095597,0.51164945330019
10400.0000000203,40.9180956278434,1.00000000082224,0.507881393106912
10500.0000000207,40.6185000862085,1.00000000081804,0.498207540763237
10600.000000021,40.3299569880566,1.00000000093921,0.512492251941294
10700.0000000214,40.0444346287402,1.00000000099888,0.528849472606062
10800.0000000218,39.7574022847496,1.00000000100754,0.532403966167264
10900.0000000221,39.4662034957728,1.00000000101037,0.53546288313499
11000.0000000225,39.1815947743126,1.00000000089138,0.522631355255847
11100.0000000229,38.9161534044931,1.00000000081131,0.500766370771546
11200.0000000232,38.6731157475835,1.00000000079518,0.494433634823819
11300.0000000236,38.4462500286187,1.00000000084159,0.503439984258671
11400.0000000239,38.2314722918652,1.00000000082878,0.502693080008319
11500.0000000243,38.0252685785422,1.00000000092168,0.511759369046504
11600.0000000247,37.8250853651912,1.00000000084116,0.503477669319496
11700.000000025,37.6295647671289,1.00000000090589,0.514584289198088
11800.0000000254,37.4352222416362,1.00000000098159,0.533160007430087
11900.0000000258,37.2409604103991,1.00000000089008,0.536984490014159
12000.0000000261,37.0502949371208,1.00000000087898,0.538502158246926
12100.0000000265,36.8639057253884,1.00000000081518,0.531471478661698
12200.0000000269,36.6849124285006,1.00000000088163,0.529031909871485
12300.0000000272,36.5090268986682,1.00000000093533,0.530380613931909
12400.0000000276,36.3301230544973,1.00000000110517,0.539354835004141
12500.0000000279,36.1464555760928,1.00000000099076,0.541351997051405
12600.0000000283,35.9700816556059,1.0000000008224,0.529264148679045
12700.0000000287,35.8125330193007,1.00000000076843,0.516599191004403
12800.000000029,35.6772238744032,1.00000000077039,0.500723225931036
12900.0000000294,35.5542201778773,1.00000000090915,0.511318135886657
13000.0000000298,35.4320736042664,1.00000000099603,0.522162740800906
13100.0000000301,35.3121670073803,1.00000000089157,0.514480981337039
13200.0000000305,35.2020881275816,1.00000000085265,0.503966373503642
13300.0000000309,35.1047418972467,1.00000000086429,0.516993338366557
13400.0000000312,35.0156539106017,1.0000000008303,0.523109314525309
13500.0000000316,34.9292842004664,1.0000000009001,0.525095994250819
13600.0000000319,34.8377389836683,1.00000000105222,0.538995905981118
13700.0000000323,34.7348028273662,1.00000000102872,0.551054833301432
13800.0000000327,34.6215892844373,1.00000000096659,0.555782403935241
13900.000000033,34.5022485209237,1.00000000095359,0.561225017038948
14000.0000000334,34.3812326788612,1.00000000084931,0.559223848504049
14100.0000000338,34.2646423768771,1.00000000079559,0.555096349723944
14200.0000000341,34.1536849836297,1.00000000087233,0.546006985139628
14300.0000000345,34.0474693695021,1.00000000090441,0.536677733756735
14400.0000000349,33.9429235761494,1.00000000098612,0.536406706269325
14500.0000000352,33.8366374645953,1.00000000099918,0.546639741427424
14600.0000000356,33.7287043805948,1.00000000100347,0.552341537458567
14700.0000000359,33.6279981919328,1.00000000083413,0.545658330566898
14800.0000000363,33.5427142712253,1.00000000078567,0.539021363710503
14900.0000000367,33.4737283098976,1.00000000081949,0.526767985224402
15000.000000037,33.415971438733,1.00000000087996,0.530126445449434
15100.0000000374,33.366753897581,1.00000000086818,0.527238163688523
15200.0000000378,33.3222945754977,1.00000000095291,0.525351470404835
15300.0000000381,33.2784548062048,1.00000000095026,0.521386929525712
15400.0000000385,33.2394788678398,1.00000000080354,0.515700505776422
15500.0000000389,33.2098108773949,1.00000000083701,0.523722258044494
15600.0000000392,33.1852436166363,1.0000000009325,0.537784201264565
15700.0000000396,33.1584263313662,1.00000000097751,0.550445144298465
15800.0000000399,33.1271567298687,1.000000000967,0.559651344485002
15900.0000000403,33.0933238979603,1.00000000093175,0.558862225651189
16000.0000000407,33.0623130766187,1.00000000082366,0.559976737872457
16100.000000041,33.0350190710869,1.0000000008289,0.555444615592427
16200.0000000414,33.0067132808994,1.00000000096399,0.564107548061077
16300.0000000418,32.9707726183006,1.00000000096662,0.568914305221122
16400.0000000418,32.922216144084,1.00000000099665,0.565206959663586
16500.0000000404,32.8590847031851,1.00000000105038,0.564406730359573
16600.0000000389,32.782872536186,1.0000000010744,0.575154120345384
16700.0000000375,32.6982186051242,1.00000000094144,0.580560637129737
16800.000000036,32.6125878844943,1.00000000083543,0.575425247333157
16900.0000000346,32.5327373743672,1.00000000083594,0.566853189173606
17000.0000000331,32.4614180198037,1.00000000083851,0.559066398728324
17100.0000000317,32.3966757698231,1.0000000008689,0.555614590495567
17200.0000000302,32.3359792116859,1.00000000097698,0.55069553745267
17300.0000000287,32.2766895105845,1.00000000097953,0.553842675836433
17400.0000000273,32.2167431807178,1.0000000010244,0.561397791861055
17500.0000000258,32.1551636979154,1.00000000100441,0.565380439761427
17600.0000000244,32.0965415792781,1.00000000091692,0.564854684536886
17700.0000000229,32.0480374638521,1.00000000084791,0.559312052330154
17800.0000000215,32.0136016167867,1.0000000008248,0.554158900823899
17900.00000002,31.9913259364407,1.00000000085064,0.549341625447341
18000.0000000186,31.9796822976655,1.00000000092294,0.543118188360138
18100.0000000171,31.9730676540724,1.00000000089343,0.537635529358722
18200.0000000156,31.9674250853575,1.00000000096687,0.539301908676394
18300.0000000142,31.9657822685037,1.00000000090523,0.538356794202881
18400.0000000127,31.972254169328,1.00000000080858,0.535460890206244
18500.0000000113,31.9844615649336,1.00000000089794,0.534647189575004
18600.0000000098,31.9988683955646,1.00000000096066,0.537129771481925
18700.0000000084,32.0130672502062,1.00000000091279,0.53754249859175
18800.0000000069,32.0274139167947,1.00000000094583,0.536352599855014
18900.0000000055,32.0408865856637,1.00000000095659,0.539465912869124
19000.000000004,32.0516205381312,1.00000000097704,0.557435783552414
19100.0000000026,32.0590594244174,1.00000000092682,0.566201614195087
19200.0000000011,32.0646361365529,1.00000000094116,0.565224816173456
19299.9999999996,32.0692653906094,1.00000000091615,0.571341395453816
19399.9999999982,32.0752330794925,1.00000000091601,0.575998268145632
19499.9999999967,32.0794866021376,1.00000000094572,0.579579955386243
19599.9999999953,32.0786880449856,1.00000000101832,0.584964674777031
19699.9999999938,32.0716398060697,1.00000000097612,0.59293084098775
19799.9999999924,32.0601190264379,1.00000000090642,0.602154079421986
19899.9999999909,32.0456370520282,1.0000000009378,0.601724831204659
19999.9999999895,32.0258041990629,1.0000000009273,0.6030885439396
20099.999999988,32.0007287292494,1.00000000090954,0.597684105394853
20199.9999999865,31.9724785693183,1.00000000093258,0.594912633524266
20299.9999999851,31.9390247264309,1.00000000097813,0.588501358419138
20399.9999999836,31.8985584967574,1.00000000098093,0.580108645127555
20499.9999999822,31.8506908896128,1.0000000010457,0.581696968963079
20599.9999999807,31.7938639134982,1.00000000103088,0.59183015545004
20699.9999999793,31.7288477112785,1.00000000104072,0.59904080316234
20799.9999999778,31.6579329085421,1.00000000098136,0.597933658168974
20899.9999999764,31.5854603324412,1.00000000090948,0.599066321705278
20999.9999999749,31.5154978062635,1.00000000084659,0.595746268193888
21099.9999999734,31.4498717279757,1.00000000081956,0.595081281162164
21199.999999972,31.389640900122,1.00000000089864,0.5963906821294
21299.9999999705,31.3333444005743,1.00000000088482,0.592648768017707
21399.9999999691,31.2812137707899,1.00000000089532,0.583901070314471
21499.9999999676,31.2331606886567,1.00000000093902,0.585142490240561
21599.9999999662,31.1879139626161,1.00000000096651,0.584815411833779
21699.9999999647,31.1444723343513,1.00000000103987,0.581471350362451
21799.9999999633,31.10221209388,1.00000000098253,0.569818008565711
21899.9999999618,31.0602594385589,1.00000000098717,0.568289353991261
21999.9999999603,31.0219918593437,1.00000000089026,0.568359069617575
22099.9999999589,30.9908578494278,1.00000000087356,0.569865460138223
22199.9999999574,30.9701315024376,1.00000000089951,0.571551637573808
22299.999999956,30.9607619698148,1.00000000091732,0.572307390660561
22399.9999999545,30.9613605391192,1.00000000091672,0.566009508190941
22499.9999999531,30.9687179725232,1.00000000094923,0.56313681539936
22599.9999999516,30.9805391079112,1.00000000090829,0.561576129142586
22699.9999999502,30.9947815732101,1.00000000096298,0.556156056379639
22799.9999999487,31.0133302551357,1.00000000093412,0.551939863647485
22899.9999999473,31.0359914618625,1.00000000088845,0.546466586020244
22999.9999999458,31.063765394528,1.00000000089994,0.549069459827014
23099.9999999443,31.0953413667117,1.00000000100477,0.551819892637043
23199.9999999429,31.1283657125642,1.00000000094819,0.552584639804279
23299.9999999414,31.1637453033579,1.00000000087186,0.552863947222146
23399.99999994,31.2008064692553,1.0000000009513,0.556016443810786
23499.9999999385,31.2377156151041,1.00000000096814,0.556390696142739
23599.9999999371,31.2713373633764,1.0000000010544,0.561298719938946
23699.9999999356,31.3000653006559,1.00000000101342,0.569705645089619
23799.9999999342,31.3258504172714,1.00000000099114,0.576692714168856
23899.9999999327,31.3500374765952,1.00000000093377,0.581256022958308
23999.9999999312,31.3733711643679,1.00000000093937,0.589376022136996
24099.9999999298,31.3937073596551,1.00000000097089,0.594180403815818
24199.9999999283,31.4115977579846,1.00000000098668,0.603146451279111
24299.9999999269,31.4272343111732,1.00000000098773,0.601404995343773
24399.9999999254,31.4410211807198,1.00000000098958,0.602613063196729
24499.999999924,31.4538446081096,1.00000000097178,0.606999850319064
24599.9999999225,31.4657641579973,1.00000000097044,0.608895178912089
24699.9999999211,31.4757120759344,1.00000000096661,0.6035209056973
24799.9999999196,31.483966189318,1.00000000095508,0.602409719768417
24899.9999999181,31.4903222138775,1.00000000097301,0.602900457307025
24999.9999999167,31.4921165113752,1.00000000105015,0.60135818862309
25099.9999999152,31.489643719455,1.00000000097532,0.614785542654029
25199.9999999138,31.4836033091782,1.00000000101837,0.616538772263183
25299.9999999123,31.4758045541543,1.00000000095075,0.612603837318224
25399.9999999109,31.4666686996567,1.00000000098537,0.61392107029545
25499.9999999094,31.4547170697934,1.00000000102792,0.617731583258623
25599.999999908,31.4410186737421,1.00000000097583,0.615591638673284
25699.9999999065,31.4278732375339,1.00000000092623,0.604390188029203
25799.9999999051,31.4146668358362,1.0000000009738,0.595363657582616
25899.9999999036,31.3982202105974,1.00000000102945,0.596360266921581
25999.9999999021,31.3775405681891,1.00000000101623,0.596673970001397
26099.9999999007,31.3515804379945,1.00000000104252,0.607702659484133
26199.9999998992,31.3205640435765,1.00000000102182,0.608261706917359
26299.9999998978,31.2875901557165,1.00000000101658,0.611845761804111
26399.9999998963,31.2529341051114,1.00000000099684,0.616881953611263
26499.9999998949,31.2175872305288,1.00000000094811,0.614596740118838
26599.9999998934,31.1828383102512,1.00000000100683,0.617180308395403
26699.999999892,31.1472866726736,1.00000000096682,0.621365826773058
26799.9999998905,31.1087852023988,1.00000000096391,0.61708538810017
26899.999999889,31.0685790214657,1.00000000094389,0.608907383108998
26999.9999998876,31.0265249968551,1.00000000102333,0.611209289985655
27099.9999998861,30.9817606311821,1.00000000100426,0.610097683274342
27199.9999998847,30.9334652310783,1.00000000096604,0.6158324765773
27299.9999998832,30.8821609808984,1.00000000104952,0.617475266316099
27399.9999998818,30.8277618406901,1.00000000105407,0.612912800078512
27499.9999998803,30.770318285224,1.00000000104583,0.614157802766805
27599.9999998789,30.709384581802,1.00000000099848,0.62044796758433
27699.9999998774,30.6454173268023,1.00000000100493,0.626501679768847
27799.9999998759,30.5792492075462,1.00000000104298,0.630044539841964
27899.9999998745,30.5115562565202,1.00000000095466,0.62988075354832
27999.999999873,30.4438899057768,1.0000000009759,0.625599678134845
28099.9999998716,30.3779190032135,1.00000000090849,0.618401073656677
28199.9999998701,30.3142854163864,1.00000000091224,0.612716685907124
28299.9999998687,30.254505294088,1.00000000092163,0.606395787331783
28399.9999998672,30.1990053526755,1.00000000092367,0.604283929103161
28499.9999998658,30.1467810046416,1.0000000009107,0.609542180699476
28599.9999998643,30.0987086450087,1.00000000092128,0.60945349465679
28699.9999998629,30.0535902355361,1.00000000100704,0.610367129285057
28799.9999998614,30.010640157177,1.00000000107738,0.609833793161396
28899.9999998599,29.9709324118326,1.00000000099939,0.602766186060192
28999.9999998585,29.9324806132102,1.00000000106709,0.600520258776551
