Time,AGPnorm,Energy,Entropy
0,0,1,-1.28337274309085e-17
99.9999999999986,1.69486549844476e-05,0.999999999997662,0.000763215842516249
199.999999999993,0.00166054707401903,0.999999999996472,0.00129221222997144
300,0.00389495474260988,1.00000000000068,0.00222285915843962
400.000000000022,0.00558331598950449,0.999999999995455,0.00380916209090954
500.000000000045,0.0069071180641948,0.999999999999199,0.00520290910625717
600.000000000068,0.00954233576149669,0.999999999998646,0.00714215647950604
700.000000000091,0.0116684991762319,0.99999999999574,0.00931161398640256
800.000000000113,0.0150330060121956,1.00000000000085,0.0114194120895647
900.000000000136,0.0192400433322654,0.999999999996005,0.0139878843201593
1000.00000000016,0.0222983515507883,0.999999999998169,0.0166199904802149
1100.0000000001,0.0263421379475727,0.99999999999956,0.019343034182718
1200,0.0312185893317543,0.999999999995371,0.0224557608721098
1299.99999999991,0.0362012997925903,1.00000000000062,0.0254920293337647
1399.99999999982,0.0414725695045832,0.999999999996771,0.0287788805811563
1499.99999999973,0.0461041455433708,0.999999999997104,0.0323332296894394
1599.99999999964,0.051843033412263,1.00000000000032,0.0357679254071252
1699.99999999955,0.0589712869440429,0.999999999995399,0.0396269555643098
1799.99999999946,0.0652536960968365,0.999999999999957,0.0435292898064369
1899.99999999937,0.0712336539540431,0.999999999997641,0.0474680239202543
1999.99999999928,0.0773773682382925,0.999999999996259,0.0518199398007596
2099.99999999919,0.0846026969822835,1.00000000000083,0.0560453359125691
2199.99999999909,0.0929793343903578,0.999999999995739,0.060634358234827
2299.999999999,0.100101168324393,0.999999999998915,0.0654216265273272
2399.99999999891,0.106821207610833,0.999999999998534,0.0700728676660019
2499.99999999882,0.114584704968842,0.999999999995794,0.0752611806358054
2599.99999999873,0.122840775989855,1.00000000000099,0.080444680079117
2699.99999999864,0.131405623325594,0.999999999996286,0.0858735211387505
2799.99999999855,0.138865881420043,0.999999999997761,0.0916671941840566
2899.99999999846,0.146430734896011,0.999999999999366,0.0972853601575418
2999.99999999837,0.15557790851564,0.999999999995684,0.103555622500411
3099.99999999828,0.164356713116256,1.00000000000066,0.11000663381981
3199.99999999819,0.172528748596795,0.99999999999694,0.116598782694432
3299.99999999809,0.180130459001623,0.999999999996868,0.12376786176092
3399.999999998,0.188488198627293,1.00000000000013,0.130948781192645
3499.99999999791,0.198191272956719,0.999999999995981,0.138933596442908
3599.99999999782,0.206883846199135,1.00000000000005,0.147425712079767
3699.99999999773,0.214587218156074,0.999999999998396,0.156116646034236
3799.99999999764,0.222346629623629,0.999999999997961,0.16582584666696
3899.99999999755,0.231404993491113,1.00000000000379,0.175970700905978
3999.99999999746,0.24072148004599,1.00000000000223,0.187142312970354
4099.99999999738,0.248564098228859,1.00000000000985,0.199101471356683
4199.99999999775,0.257381716802392,1.00000000001673,0.211155367162275
4299.99999999811,0.265496741007721,1.00000000002435,0.224123431037421
4399.99999999848,0.277676782878537,1.0000000000423,0.237162607062667
4499.99999999884,0.291955494379844,1.00000000005235,0.250355418164375
4599.9999999992,0.305849329381149,1.00000000006847,0.263658174669765
4699.99999999957,0.332806099498976,1.00000000009318,0.276268316624879
4799.99999999993,0.366208057222627,1.00000000011183,0.289219885246887
4900.00000000029,0.415377043486923,1.00000000013737,0.301846862028935
5000.00000000066,0.491485388042896,1.00000000015958,0.31378227376124
5100.00000000102,0.586194864393821,1.00000000017479,0.325934065751428
5200.00000000139,0.726116406018128,1.00000000021123,0.337167596372328
5300.00000000175,0.91430229263222,1.00000000022725,0.348647538591975
5400.00000000211,1.15056497527376,1.00000000025401,0.359876436908403
5500.00000000248,1.47103147209977,1.00000000027208,0.370026826963775
5600.00000000284,1.8639407620826,1.00000000030918,0.380484965052057
5700.00000000321,2.34957887222041,1.00000000031575,0.390367200383253
5800.00000000357,2.96035217506087,1.00000000034239,0.399836349638435
5900.00000000393,3.67317584574398,1.0000000003767,0.409303171618912
6000.0000000043,4.53578852715656,1.00000000038534,0.417686665972751
6100.00000000466,5.54951703228747,1.00000000037821,0.426551256267974
6200.00000000502,6.70242498361089,1.0000000004186,0.434837856819785
6300.00000000539,8.06020047969616,1.00000000043841,0.442257241619111
6400.00000000575,9.58165809386223,1.00000000045374,0.450135619244417
6500.00000000612,11.2967033482679,1.00000000044822,0.457059535607095
6600.00000000648,13.239090899681,1.00000000048068,0.463975812069938
6700.00000000684,15.3542427291256,1.00000000049983,0.470851611662994
6800.00000000721,17.7223436255654,1.00000000050703,0.476569053167938
6900.00000000757,20.3066654353436,1.00000000049726,0.482941201789136
7000.00000000793,23.0938673193213,1.00000000053057,0.488564421501595
7100.0000000083,26.1560247354639,1.00000000051871,0.493870206152114
7200.00000000866,29.4083395237359,1.00000000052328,0.49923213851802
7300.00000000903,32.9153459363436,1.00000000054747,0.503579688516577
7400.00000000939,36.6691728800828,1.00000000054357,0.508564236605358
7500.00000000975,40.6060977391387,1.00000000055571,0.513150844133437
7600.00000001012,44.8243120655664,1.00000000054336,0.516757596034499
7700.00000001048,49.2344490506846,1.000000000561,0.520894289851732
7800.00000001084,53.8601089558983,1.0000000005632,0.524383985501802
7900.00000001121,58.7353793236858,1.00000000056595,0.527929312025515
8000.00000001157,63.7586213026416,1.00000000055926,0.531589890397063
8100.00000001194,69.0283163255142,1.00000000054502,0.534137161088369
8200.0000000123,74.4776474375822,1.00000000057082,0.53729016220718
8300.00000001266,80.0801818280285,1.00000000056745,0.540027328603118
8400.00000001303,85.9067017121431,1.00000000058428,0.542178013602008
8500.00000001339,91.8411546840522,1.00000000056481,0.54499617311289
8600.00000001376,97.9585278133502,1.00000000054547,0.546873628294967
8700.00000001412,104.229743469693,1.00000000056705,0.549005228477252
8800.00000001448,110.586066100386,1.00000000055062,0.551289985137398
8900.00000001485,117.117633748565,1.00000000055615,0.552544377416823
9000.00000001521,123.717896230803,1.00000000055069,0.55451560398019
9100.00000001557,130.424212188362,1.00000000053139,0.555943574411687
9200.00000001594,137.247802148734,1.00000000055361,0.557158560462128
9300.0000000163,144.094147898582,1.00000000054934,0.558907178741325
9400.00000001667,151.052461032552,1.00000000056135,0.559474523296623
9500.00000001703,158.043058536122,1.00000000054253,0.560920632973737
9600.00000001739,165.063781057836,1.00000000053394,0.561982458514646
9700.00000001776,172.157937673303,1.00000000053714,0.562646380802245
9800.00000001812,179.223355986872,1.00000000053295,0.563737383535271
9900.00000001848,186.333843150336,1.00000000054843,0.564194488870429
10000.0000000188,193.443567790888,1.00000000054938,0.564736779527535
10100.0000000192,200.517481797223,1.00000000052963,0.565810084444612
10200.0000000196,207.616024440181,1.00000000051112,0.565932773577376
10300.0000000199,214.647200006986,1.00000000052492,0.566599496776118
10400.0000000203,221.661012717185,1.00000000050577,0.567041236894926
10500.0000000207,228.642719656033,1.00000000049889,0.567090486676746
10600.000000021,235.53815072768,1.00000000049727,0.56797246094657
10700.0000000214,242.41145774335,1.00000000051451,0.56744548335842
10800.0000000218,249.188270457233,1.00000000051491,0.568244552596702
10900.0000000221,255.896039008661,1.00000000049374,0.56814828456945
11000.0000000225,262.542823650211,1.00000000050408,0.567888035386887
11100.0000000229,269.067484283815,1.00000000047959,0.568870216579385
11200.0000000232,275.528723746421,1.00000000046455,0.567933040937134
11300.0000000236,281.873286974481,1.0000000004853,0.568409482416396
11400.0000000239,288.109024085467,1.00000000047559,0.568615080417566
11500.0000000243,294.258347647365,1.00000000045391,0.567575501869536
11600.0000000247,300.261443121473,1.0000000004662,0.568655062432835
11700.000000025,306.168319070568,1.00000000046586,0.567597708217903
11800.0000000254,311.944361846772,1.00000000045177,0.567161875798493
11900.0000000258,317.581920531625,1.00000000045974,0.568299242574967
12000.0000000261,323.11463108749,1.00000000045902,0.566454483028471
12100.0000000265,328.4857124865,1.00000000044336,0.567184307625956
12200.0000000269,333.736411158132,1.0000000004401,0.567117676772482
12300.0000000272,338.851148212997,1.00000000042394,0.56601325448527
12400.0000000276,343.807704322391,1.00000000043456,0.56667122212257
12500.0000000279,348.645362437405,1.00000000041114,0.565964680425192
12600.0000000283,353.318745764949,1.00000000042143,0.565286380443808
12700.0000000287,357.853014408024,1.00000000042148,0.565676633396534
12800.000000029,362.249976007257,1.00000000040689,0.56461231956551
12900.0000000294,366.481086959838,1.00000000039716,0.564557019104732
13000.0000000298,370.582896786458,1.0000000003875,0.564343273810097
13100.0000000301,374.524118242587,1.00000000038817,0.56385624813697
13200.0000000305,378.317441904922,1.00000000039178,0.563680775887104
13300.0000000309,381.973595879102,1.00000000038246,0.56306874940368
13400.0000000312,385.464756668651,1.0000000003782,0.562844600138094
13500.0000000316,388.822380430656,1.0000000003722,0.562290986045911
13600.0000000319,392.025160222639,1.00000000036916,0.56204242763232
13700.0000000323,395.078997164926,1.00000000038232,0.561725091326233
13800.0000000327,397.999563249777,1.00000000037312,0.561248950042451
13900.000000033,400.760817098608,1.00000000036986,0.561215093249125
14000.0000000334,403.389067679848,1.0000000003651,0.560497706991773
14100.0000000338,405.872321934998,1.00000000035281,0.559583624954475
14200.0000000341,408.209763186551,1.00000000035157,0.55975031923608
14300.0000000345,410.419294915288,1.00000000034781,0.560300553471995
14400.0000000349,412.482196963189,1.00000000034533,0.560544965785542
14500.0000000352,414.416327294925,1.00000000034347,0.558514427283276
14600.0000000356,416.216260886392,1.00000000033625,0.556922267424507
14700.0000000359,417.876615725232,1.00000000034167,0.557798503325939
14800.0000000363,419.418423614346,1.00000000032878,0.56006904269595
14900.0000000367,420.826080407887,1.00000000033572,0.560159633715838
15000.000000037,422.11493535203,1.00000000032843,0.558138524108288
15100.0000000374,423.283187940403,1.00000000031952,0.555080437117247
15200.0000000378,424.320397372861,1.00000000030819,0.553804373157014
15300.0000000381,425.245814585423,1.00000000032018,0.557887518977178
15400.0000000385,426.050866867784,1.00000000032049,0.561372306759942
15500.0000000389,426.7565819075,1.00000000032447,0.562007482594399
15600.0000000392,427.359636275474,1.0000000003177,0.555254771860562
15700.0000000396,427.848755534956,1.00000000029597,0.549889900967273
15800.0000000399,428.227513804908,1.0000000002929,0.550555096614783
15900.0000000403,428.498430199223,1.00000000030619,0.55840384264149
16000.0000000407,428.680495013416,1.00000000033546,0.565379383285358
16100.000000041,428.790961575,1.00000000033654,0.56230505750092
16200.0000000414,428.811133919887,1.00000000030491,0.553024851300824
16300.0000000418,428.742812593428,1.00000000027788,0.544542625355067
16400.0000000418,428.568549892004,1.00000000026124,0.543552710381159
16500.0000000404,428.302357371477,1.00000000030263,0.554669179344877
16600.0000000389,427.970432666846,1.00000000032906,0.565759496263082
16700.0000000375,427.583246549367,1.00000000034897,0.567421889782107
16800.000000036,427.147013933458,1.00000000031299,0.555821504598723
16900.0000000346,426.638490813823,1.00000000028213,0.541001717078166
17000.0000000331,426.041231565626,1.00000000023148,0.532436591336248
17100.0000000317,425.359674461963,1.00000000026568,0.540468146330388
17200.0000000302,424.610479068486,1.00000000031462,0.559822320375422
17300.0000000287,423.830586937308,1.00000000035436,0.571518511576513
17400.0000000273,423.02905933935,1.0000000003571,0.566201503747155
17500.0000000258,422.192359457707,1.00000000031464,0.549466262411796
17600.0000000244,421.301142606864,1.00000000025568,0.528279736841734
17700.0000000229,420.328062077418,1.00000000022417,0.519129717821469
17800.0000000215,419.285517596879,1.00000000026139,0.532643498089316
17900.00000002,418.198644114381,1.00000000033601,0.557909926600482
18000.0000000186,417.097647467066,1.00000000040446,0.573753212200902
18100.0000000171,416.000964533428,1.00000000039316,0.570034513773652
18200.0000000156,414.892805115311,1.00000000032911,0.550461254519019
18300.0000000142,413.74997665759,1.00000000025347,0.522722777506065
18400.0000000127,412.545627418089,1.00000000021106,0.504433988539298
18500.0000000113,411.27373329433,1.00000000021634,0.510339671816141
18600.0000000098,409.960930290618,1.00000000029883,0.540219190685946
18700.0000000084,408.635103314788,1.0000000003974,0.567817715760496
18800.0000000069,407.323048116009,1.00000000042089,0.576703671239807
18900.0000000055,406.028834530812,1.00000000039171,0.5657079903516
19000.000000004,404.730298301093,1.00000000032615,0.538211671598839
19100.0000000026,403.404334325733,1.0000000002507,0.507324732264579
19200.0000000011,402.024288973362,1.00000000019469,0.488586720895199
19299.9999999996,400.592463952538,1.00000000022002,0.498125886397377
19399.9999999982,399.13050041932,1.00000000031118,0.532600005436102
19499.9999999967,397.664828944392,1.00000000039423,0.565547054530604
19599.9999999953,396.222599459703,1.00000000043986,0.578749633719403
19699.9999999938,394.806352371698,1.00000000042664,0.570311248264882
19799.9999999924,393.403728494468,1.00000000036083,0.545692274324181
19899.9999999909,391.992872443832,1.00000000027804,0.511150529638498
19999.9999999895,390.54685659436,1.0000000002081,0.483807650523452
20099.999999988,389.061300408013,1.00000000019136,0.477693673500533
20199.9999999865,387.54041243698,1.00000000024159,0.499170751357602
20299.9999999851,386.006810566818,1.00000000032951,0.538954265486478
20399.9999999836,384.486628881921,1.00000000042167,0.568862750303571
20499.9999999822,382.992648103806,1.00000000045851,0.578460562200023
20599.9999999807,381.52818174454,1.00000000042116,0.567345294311178
20699.9999999793,380.081332663021,1.00000000037457,0.542356791689651
20799.9999999778,378.631578117683,1.00000000028201,0.509834956407058
20899.9999999764,377.165304663575,1.00000000022623,0.481194638016095
20999.9999999749,375.668569603253,1.00000000019224,0.469802972521457
21099.9999999734,374.14738540697,1.00000000021812,0.481958858957324
21199.999999972,372.613695456046,1.00000000029394,0.513992887126675
21299.9999999705,371.084585523304,1.00000000038334,0.551428371033078
21399.9999999691,369.577340186571,1.00000000044542,0.570923193517204
21499.9999999676,368.096462501799,1.00000000043879,0.571230903479616
21599.9999999662,366.640266766428,1.00000000042371,0.557697312415635
21699.9999999647,365.200409284789,1.00000000037044,0.53344984265834
21799.9999999633,363.7611280091,1.0000000002956,0.50424441739758
21899.9999999618,362.313908999748,1.00000000023575,0.479211437489014
21999.9999999603,360.849614794599,1.00000000021165,0.468419194233794
22099.9999999589,359.370853577705,1.0000000002267,0.476381754702663
22199.9999999574,357.885282054048,1.00000000028167,0.498541640942543
22299.999999956,356.401564463755,1.00000000034334,0.528074997619845
22399.9999999545,354.931758247127,1.00000000040981,0.553180687240099
22499.9999999531,353.481943001234,1.00000000041993,0.563278157432469
22599.9999999516,352.05368121182,1.00000000043217,0.559279400414059
22699.9999999502,350.645096408435,1.00000000039808,0.543645045727418
22799.9999999487,349.247716697824,1.00000000035401,0.523203458521871
22899.9999999473,347.855191133044,1.0000000003027,0.501215418431703
22999.9999999458,346.460406799845,1.00000000025114,0.483661628946246
23099.9999999443,345.060443221639,1.00000000023258,0.475465209329797
23199.9999999429,343.656937663619,1.00000000024389,0.476423862364773
23299.9999999414,342.250172410107,1.00000000026177,0.487822526705629
23399.99999994,340.846865422014,1.00000000031247,0.506848815124217
23499.9999999385,339.451559536239,1.00000000034657,0.526452562946679
23599.9999999371,338.068682276311,1.00000000039677,0.544265920844659
23699.9999999356,336.701939542925,1.00000000040715,0.548058323132635
23799.9999999342,335.350545443413,1.00000000041963,0.544193856537133
23899.9999999327,334.012897211168,1.00000000037893,0.532299292148884
23999.9999999312,332.68600247081,1.00000000034612,0.519718718053963
24099.9999999298,331.365888577631,1.00000000030914,0.507168222570859
24199.9999999283,330.050911005283,1.00000000027983,0.495386485607778
24299.9999999269,328.738354532468,1.00000000027046,0.487614097052053
24399.9999999254,327.429063403557,1.0000000002555,0.483399180084218
24499.999999924,326.123103336369,1.00000000026525,0.484774935964344
24599.9999999225,324.821110741697,1.00000000028928,0.491606460002079
24699.9999999211,323.525838044295,1.00000000031017,0.502888789059889
24799.9999999196,322.238504759959,1.00000000034142,0.515009662315919
24899.9999999181,320.961139066757,1.00000000035855,0.526154745959329
24999.9999999167,319.695050293817,1.00000000038198,0.529638898370141
25099.9999999152,318.439898899923,1.00000000038655,0.532295541274049
25199.9999999138,317.195519842437,1.00000000034856,0.52762837795381
25299.9999999123,315.960917178017,1.00000000035648,0.521853035257782
25399.9999999109,314.734872009736,1.00000000032397,0.515716119206627
25499.9999999094,313.517009783798,1.00000000031053,0.510792162422651
25599.999999908,312.306369383525,1.00000000030761,0.507280211539494
25699.9999999065,311.103663259865,1.00000000028554,0.501641889972989
25799.9999999051,309.908203380053,1.00000000027603,0.497090159483622
25899.9999999036,308.720393301801,1.00000000026825,0.492218451169432
25999.9999999021,307.540296575359,1.00000000027134,0.490366115630715
26099.9999999007,306.367651695742,1.00000000028255,0.491612746168227
26199.9999998992,305.203521593816,1.00000000029024,0.497824021326927
26299.9999998978,304.048171817299,1.00000000031655,0.504597227530624
26399.9999998963,302.901532183473,1.00000000034726,0.514543456814596
26499.9999998949,301.763734467408,1.00000000036524,0.519277615282631
26599.9999998934,300.634409580024,1.00000000036594,0.524624006418737
26699.999999892,299.513163779745,1.00000000036944,0.526088117829804
26799.9999998905,298.400409792734,1.00000000034011,0.522455033491469
26899.999999889,297.295788202638,1.00000000031599,0.51873564481954
26999.9999998876,296.199712543644,1.00000000030058,0.514775344783929
27099.9999998861,295.111978291006,1.00000000031987,0.518375498343235
27199.9999998847,294.032858038879,1.00000000032695,0.52142245346905
27299.9999998832,292.962624752433,1.00000000032654,0.517240507098371
27399.9999998818,291.901568984195,1.00000000032415,0.50986256749639
27499.9999998803,290.850328850761,1.00000000028802,0.500470329128949
27599.9999998789,289.808831335888,1.00000000027122,0.489509891338599
27699.9999998774,288.778065956468,1.00000000024338,0.481549444918812
27799.9999998759,287.758194701889,1.00000000024469,0.480763473624456
27899.9999998745,286.748837576485,1.00000000027804,0.487766556333173
27999.999999873,285.748993290034,1.0000000003278,0.49793173874486
28099.9999998716,284.757493930583,1.00000000035899,0.508395446485762
28199.9999998701,283.77223166659,1.00000000038813,0.518565331826614
28299.9999998687,282.792327610938,1.00000000038499,0.522502501475549
28399.9999998672,281.818123777728,1.00000000035507,0.523151097814172
28499.9999998658,280.850533684793,1.00000000031885,0.522631728975401
28599.9999998643,279.890931685036,1.00000000029195,0.517965290489192
28699.9999998629,278.939713642335,1.00000000029273,0.513956055266695
28799.9999998614,277.996626102948,1.00000000030972,0.518574408403186
28899.9999998599,277.0606227658,1.00000000034309,0.53015025658405
