Time,AGPnorm,Energy,Entropy
0,0,1,6.21998646157395e-18
99.9999999999986,0.00592380967028245,0.999999999999901,0.0177095252309641
199.999999999993,0.0156664637767647,0.999999999999859,0.05107171934114
300,0.0321899100055379,1.00000000000013,0.100778150334555
400.000000000022,0.0492287084734521,1.00000000000589,0.16754128873857
500.000000000045,0.0650725952413621,1.00000000012007,0.264996363999277
600.000000000068,0.135277013454252,1.00000000073572,0.380309524471596
700.000000000091,0.418899746303835,1.00000000143979,0.472128563365916
800.000000000113,1.33781551406531,1.00000000182575,0.528194052319252
900.000000000136,3.04540564985436,1.00000000216632,0.558817929094285
1000.00000000016,5.53097785151029,1.00000000241165,0.572050846459074
1100.0000000001,8.55446477043848,1.00000000223746,0.575875509004437
1200,11.7833597180454,1.00000000213355,0.572004057490678
1299.99999999991,14.9417979318503,1.00000000207515,0.567876748020263
1399.99999999982,17.7851299599376,1.00000000193057,0.560305414232662
1499.99999999973,20.1670279413745,1.00000000165356,0.549016633864361
1599.99999999964,22.0270073322854,1.00000000159699,0.543362393111658
1699.99999999955,23.3371001249305,1.00000000149404,0.540094875851371
1799.99999999946,24.1769442791674,1.00000000138943,0.519890384226119
1899.99999999937,24.5402590665283,1.00000000154913,0.550836566714286
1999.99999999928,24.6091693621985,1.00000000107085,0.493202413107445
2099.99999999919,24.3186763093213,1.00000000148208,0.545162014478193
2199.99999999909,23.976206049077,1.00000000137292,0.523770444196064
2299.999999999,23.3888105883442,1.00000000088963,0.43687731124282
2399.99999999891,22.7720244294105,1.00000000195899,0.583812344453988
2499.99999999882,22.2109220922916,1.00000000111487,0.461169170599223
2599.99999999873,21.5145454430476,1.00000000084331,0.396773262165426
2699.99999999864,20.8200369354711,1.00000000212499,0.559484451200911
2799.99999999855,20.2300634398654,1.00000000162153,0.547058830356086
2899.99999999846,19.63732280293,1.00000000076955,0.363618735036732
2999.99999999837,19.0254848675679,1.0000000010341,0.415328846739691
3099.99999999828,18.4240669044432,1.00000000174353,0.532730209498956
3199.99999999819,17.8727602738639,1.00000000179571,0.559682007365515
3299.99999999809,17.3717011952457,1.00000000130893,0.506898673300549
3399.999999998,16.8985955515513,1.00000000072198,0.352540701574253
3499.99999999791,16.4767587631564,1.00000000120404,0.420018597727286
3599.99999999782,16.0599676791517,1.00000000159803,0.526078554066263
3699.99999999773,15.6514395783063,1.00000000135977,0.51139863263903
3799.99999999764,15.2512465445045,1.00000000186867,0.534280929714173
3899.99999999755,14.8628976745042,1.00000000182608,0.5741226962592
3999.99999999746,14.510086728944,1.00000000094685,0.446291342752308
4099.99999999738,14.2429146994308,1.00000000066669,0.34961324290325
4199.99999999775,14.057855278307,1.0000000011538,0.423749512272006
4299.99999999811,13.8699005435778,1.00000000144007,0.508878961354709
4399.99999999848,13.6489592709527,1.00000000158919,0.546841637558093
4499.99999999884,13.4179847765869,1.00000000130352,0.535706891559015
4599.9999999992,13.1990257087173,1.00000000123748,0.527016184150528
4699.99999999957,12.9655333068274,1.00000000171541,0.527998922318435
4799.99999999993,12.7136979164785,1.00000000190764,0.56769805619884
4900.00000000029,12.462035652935,1.00000000157962,0.570729971434698
5000.00000000066,12.2460989382284,1.00000000088343,0.460097909147981
5100.00000000102,12.1323955175671,1.00000000064189,0.374182532932941
5200.00000000139,12.1363774230505,1.0000000011118,0.389667606272623
5300.00000000175,12.1782393493237,1.00000000150406,0.466589757252064
5400.00000000211,12.1765925410921,1.00000000161943,0.532160746842834
5500.00000000248,12.1459036246703,1.0000000013031,0.543821707926623
5600.00000000284,12.1017969669046,1.00000000133637,0.552370206229451
5700.00000000321,12.0272473965214,1.00000000154857,0.56147868989112
5800.00000000357,11.9261605580709,1.00000000140244,0.540788187231883
5900.00000000393,11.8159365279045,1.00000000138484,0.560605891121148
6000.0000000043,11.7031071224291,1.00000000126735,0.556367703347979
6100.00000000466,11.5969342147874,1.00000000126139,0.559022403247437
6200.00000000502,11.4780749238301,1.00000000143093,0.567099346532227
6300.00000000539,11.3391250886455,1.00000000169755,0.566913042238943
6400.00000000575,11.1837999484571,1.00000000185794,0.57919391888841
6500.00000000612,11.0206263414778,1.00000000183697,0.586372407214698
6600.00000000648,10.8666620716045,1.0000000011598,0.531975437318284
6700.00000000684,10.7613168741426,1.00000000079636,0.446707650141966
6800.00000000721,10.7639834456994,1.00000000070147,0.388572466564143
6900.00000000757,10.89043906517,1.00000000099656,0.398741947602475
7000.00000000793,11.0889081894184,1.00000000134905,0.434473743420956
7100.0000000083,11.2772302512069,1.0000000017925,0.486371474040593
7200.00000000866,11.4337816346166,1.0000000015655,0.520968364671057
7300.00000000903,11.555877957557,1.00000000150483,0.554492356995909
7400.00000000939,11.6458289129751,1.00000000150434,0.558853703125093
7500.00000000975,11.7071155200311,1.00000000150463,0.577305992307082
7600.00000001012,11.7316759676649,1.00000000167462,0.589639603242119
7700.00000001048,11.7225530590789,1.00000000150957,0.588922648439887
7800.00000001084,11.6984859214444,1.00000000150292,0.560427262968316
7900.00000001121,11.6668071794646,1.00000000142483,0.557725214103157
8000.00000001157,11.6287274852715,1.000000001502,0.551360407463927
8100.00000001194,11.5811219055947,1.0000000015006,0.543916190752928
8200.0000000123,11.5320313419629,1.00000000158785,0.561758842834333
8300.00000001266,11.4842256704644,1.00000000135738,0.560198644891381
8400.00000001303,11.4381147343106,1.00000000147374,0.559982259218886
8500.00000001339,11.3927890698545,1.00000000145354,0.564573441512029
8600.00000001376,11.3453177003221,1.00000000148749,0.567867443801341
8700.00000001412,11.2898910890697,1.00000000152115,0.565376925954778
8800.00000001448,11.2258151434575,1.00000000152523,0.565322976573553
8900.00000001485,11.1501466497196,1.0000000015392,0.589568830686165
9000.00000001521,11.0672736627493,1.00000000154746,0.609195677402846
9100.00000001557,10.9849386292085,1.00000000124217,0.59190230075513
9200.00000001594,10.9026639518585,1.00000000148765,0.597559446605016
9300.0000000163,10.8150399054872,1.0000000015794,0.594541251429167
9400.00000001667,10.7205052875123,1.00000000177816,0.588910094766446
9500.00000001703,10.6227645101793,1.00000000197823,0.589750382283914
9600.00000001739,10.5265224821439,1.00000000203858,0.581099168355914
9700.00000001776,10.4317436521886,1.00000000200749,0.577819490593936
9800.00000001812,10.3335837980742,1.00000000169632,0.574606389231326
9900.00000001848,10.2315279066049,1.00000000125787,0.538467099058343
10000.0000000188,10.1441963522726,1.00000000097828,0.479655790860297
10100.0000000192,10.1100538577063,1.00000000085298,0.436415954953724
10200.0000000196,10.1690743002008,1.00000000075379,0.399304016066094
10300.0000000199,10.3403729708124,1.00000000098604,0.403682556210259
10400.0000000203,10.6109554387326,1.00000000117924,0.418139354318464
10500.0000000207,10.9250447124294,1.00000000146646,0.445580828924233
10600.000000021,11.2483461689126,1.00000000153779,0.475850688105513
10700.0000000214,11.5482477179462,1.00000000159574,0.506149466741977
10800.0000000218,11.8197832276552,1.00000000165981,0.523887604389317
10900.0000000221,12.0638692815475,1.00000000154258,0.547921898501142
11000.0000000225,12.2777189487211,1.00000000165197,0.569273909785594
11100.0000000229,12.4639112504378,1.00000000167912,0.581722980152481
11200.0000000232,12.617614786192,1.00000000165465,0.590601890051948
11300.0000000236,12.7465841263008,1.0000000014841,0.605488828685535
11400.0000000239,12.8467656509824,1.00000000164792,0.620219877687173
11500.0000000243,12.9159916222127,1.00000000169377,0.621001728198137
11600.0000000247,12.9568914352294,1.00000000157574,0.621330170722171
11700.000000025,12.9812736072902,1.00000000165743,0.622055066973915
11800.0000000254,12.992362930958,1.00000000153202,0.62132660097804
11900.0000000258,12.9946721093517,1.00000000147615,0.610977699320071
12000.0000000261,12.9891693215554,1.00000000161185,0.611290476750893
12100.0000000265,12.9680632376861,1.00000000162804,0.60728007731423
12200.0000000269,12.942195912361,1.00000000139247,0.59345385483107
12300.0000000272,12.9101314653732,1.0000000017211,0.607382927115635
12400.0000000276,12.8669687722517,1.00000000162863,0.6042425438652
12500.0000000279,12.8182725439815,1.00000000161584,0.618110113840457
12600.0000000283,12.7638477663411,1.00000000161137,0.62246162323642
12700.0000000287,12.7038505401806,1.00000000173187,0.63178222119203
12800.000000029,12.6412778608142,1.00000000159383,0.625785160777784
12900.0000000294,12.5831987209383,1.00000000145471,0.6123382659626
13000.0000000298,12.5332724132982,1.00000000144916,0.595931148746326
13100.0000000301,12.4906623164919,1.00000000148659,0.593909734125573
13200.0000000305,12.4514827049701,1.00000000165129,0.594318473302555
13300.0000000309,12.4139105363318,1.00000000156385,0.60152794651168
13400.0000000312,12.3773587144575,1.00000000158631,0.596646366187326
13500.0000000316,12.3396275294574,1.000000001659,0.603414559790443
13600.0000000319,12.3028755070072,1.00000000163708,0.609141873188583
13700.0000000323,12.2695348680981,1.0000000015624,0.602027001901523
13800.0000000327,12.2318113468322,1.00000000157889,0.591037248018728
13900.000000033,12.1955879574417,1.00000000159272,0.600462499769745
14000.0000000334,12.1664251224429,1.0000000014929,0.586097049500983
14100.0000000338,12.1417479720456,1.000000001449,0.571130791846779
14200.0000000341,12.1169403519487,1.0000000018533,0.566759860144033
14300.0000000345,12.091041030966,1.00000000157548,0.572015862559168
14400.0000000349,12.0676706833905,1.00000000144417,0.581586640736997
14500.0000000352,12.0431710112785,1.0000000016368,0.612499238000309
14600.0000000356,12.0181531110789,1.00000000164557,0.619568787906914
14700.0000000359,11.9959648214496,1.000000001641,0.608520473110108
14800.0000000363,11.9722819188593,1.00000000172824,0.597057574592604
14900.0000000367,11.9465625519049,1.0000000017439,0.608674624096384
15000.000000037,11.9240133919042,1.00000000147697,0.614759471821999
15100.0000000374,11.9006377049138,1.00000000156403,0.618846068468697
15200.0000000378,11.8708547352806,1.00000000171302,0.626971695278055
15300.0000000381,11.8395880415538,1.00000000170066,0.620250948766012
15400.0000000385,11.8089138339095,1.00000000164682,0.625476255059031
15500.0000000389,11.7719930100097,1.00000000182191,0.632263276578927
15600.0000000392,11.7318602779208,1.00000000162021,0.612820479760006
15700.0000000396,11.689184962892,1.00000000164427,0.614616989333957
15800.0000000399,11.6473010126486,1.00000000167378,0.620951627745936
15900.0000000403,11.6102655635977,1.00000000149557,0.62611912557714
16000.0000000407,11.5767696888878,1.00000000172518,0.630082094976966
16100.000000041,11.5394977737209,1.00000000188202,0.630287688106895
16200.0000000414,11.4961509735098,1.00000000173251,0.626712773262072
16300.0000000418,11.4543054112935,1.00000000145799,0.622961009876209
16400.0000000418,11.414262271236,1.00000000177911,0.636460992129739
16500.0000000404,11.3704408948699,1.00000000160191,0.629891149396064
16600.0000000389,11.3272885127351,1.0000000015967,0.619576055737721
16700.0000000375,11.285781458953,1.00000000171721,0.627803872704279
16800.000000036,11.2430122960426,1.00000000167181,0.618862984918628
16900.0000000346,11.1994194779365,1.00000000173584,0.638986890825383
17000.0000000331,11.1541723122511,1.00000000160233,0.636863625774437
17100.0000000317,11.1060876785903,1.00000000173193,0.64075377618656
17200.0000000302,11.0549259301974,1.00000000182414,0.629328096527521
17300.0000000287,11.0021328114155,1.00000000171805,0.639652010729512
17400.0000000273,10.9477818861839,1.0000000017562,0.638814463400812
17500.0000000258,10.8927210470941,1.00000000159947,0.638221148249857
17600.0000000244,10.8369970820865,1.00000000179298,0.649721373078211
17700.0000000229,10.7790936817722,1.00000000181387,0.644655085257472
17800.0000000215,10.7204892247816,1.00000000185239,0.649637701406141
17900.00000002,10.6620262901753,1.00000000155278,0.635615797597265
18000.0000000186,10.6037974761812,1.00000000157218,0.641305460891023
18100.0000000171,10.5460567455235,1.00000000162845,0.655540356315721
18200.0000000156,10.4890426130595,1.0000000014686,0.632978787642323
18300.0000000142,10.4323075617591,1.00000000171194,0.640590245593871
18400.0000000127,10.3763428727259,1.00000000156271,0.637197618007794
18500.0000000113,10.3220030414809,1.00000000173257,0.64603467807554
18600.0000000098,10.2702268426455,1.00000000176254,0.639101597524785
18700.0000000084,10.222800468471,1.00000000175862,0.650802493503831
18800.0000000069,10.1825685535445,1.00000000193817,0.649570287634031
18900.0000000055,10.1497887381597,1.00000000202961,0.648975645051012
19000.000000004,10.1328436296727,1.00000000212194,0.647707472621971
19100.0000000026,10.1250912240003,1.0000000023048,0.647019293448796
19200.0000000011,10.1410398274289,1.00000000201786,0.650295398194164
19299.9999999996,10.1624615735697,1.00000000225182,0.645340961109916
19399.9999999982,10.2054120673575,1.00000000218679,0.638642283736879
19499.9999999967,10.2427686590173,1.00000000211856,0.625066896896418
19599.9999999953,10.2821973148758,1.00000000191469,0.616131773317743
19699.9999999938,10.2991824160068,1.00000000175428,0.603679453584322
19799.9999999924,10.294416465034,1.0000000016367,0.58095068836516
19899.9999999909,10.2669943547399,1.00000000132505,0.545850188948172
19999.9999999895,10.2251152696612,1.00000000126863,0.51954770538204
20099.999999988,10.1892277842491,1.00000000104202,0.489511261857568
20199.9999999865,10.178758326026,1.00000000114193,0.463559079058837
20299.9999999851,10.2186827024882,1.00000000101921,0.440893379570427
20399.9999999836,10.3290067851528,1.00000000100753,0.424794401206168
20499.9999999822,10.5335905920806,1.0000000010541,0.423291543080853
20599.9999999807,10.8227266743069,1.00000000122428,0.422894147017932
20699.9999999793,11.220613899476,1.00000000145915,0.437052265355504
20799.9999999778,11.6683474115891,1.00000000141035,0.444549821414431
20899.9999999764,12.1926222378153,1.00000000175364,0.453523710394742
20999.9999999749,12.7206662054847,1.00000000165993,0.464184512273768
21099.9999999734,13.2799469819774,1.00000000186769,0.470663874727066
21199.999999972,13.8253808892979,1.0000000017842,0.488858555792011
21299.9999999705,14.3623204300439,1.00000000181201,0.493999305356943
21399.9999999691,14.8859189472443,1.00000000195606,0.514602301210604
21499.9999999676,15.3814190678207,1.00000000198186,0.521842818553881
21599.9999999662,15.8693313185195,1.00000000176302,0.535035508316048
21699.9999999647,16.3324699818202,1.0000000017769,0.541918960056775
21799.9999999633,16.7892840744317,1.00000000186157,0.54937318529947
21899.9999999618,17.2203328286937,1.00000000184219,0.561690211110185
21999.9999999603,17.6376758565164,1.00000000181522,0.570563248408572
22099.9999999589,18.0417543355834,1.00000000184475,0.583477457499359
22199.9999999574,18.4111821895076,1.00000000194574,0.590153181185974
22299.999999956,18.7668113434371,1.0000000018575,0.606829749510108
22399.9999999545,19.0916868753897,1.00000000188128,0.616988548118957
22499.9999999531,19.4018048545799,1.00000000217442,0.613881838403042
22599.9999999516,19.6760574890344,1.00000000186683,0.620564229224832
22699.9999999502,19.9254416888521,1.00000000190873,0.638558158029521
22799.9999999487,20.1506159352414,1.00000000180827,0.637540106174915
22899.9999999473,20.3489173983118,1.00000000195986,0.63238359653681
22999.9999999458,20.5274082459407,1.00000000189306,0.64343741403911
23099.9999999443,20.6782036779544,1.00000000184324,0.645098182693937
23199.9999999429,20.8141081418252,1.00000000185716,0.653337407535123
23299.9999999414,20.9286446608358,1.00000000183595,0.640445029321685
23399.99999994,21.0307481829644,1.00000000201556,0.647111409719547
23499.9999999385,21.1147957732917,1.00000000192773,0.653200504589731
23599.9999999371,21.1864979235507,1.00000000181934,0.650990399597246
23699.9999999356,21.2490666754297,1.00000000193172,0.647631316918219
23799.9999999342,21.303629173896,1.00000000202981,0.645963001897881
23899.9999999327,21.3561207822077,1.0000000018811,0.642810572423084
23999.9999999312,21.3971706572968,1.00000000182664,0.649869953135852
24099.9999999298,21.4239700237869,1.00000000189577,0.657790058994576
24199.9999999283,21.4344316381857,1.00000000196375,0.660270386927818
24299.9999999269,21.4425841902859,1.00000000173309,0.638057928509172
24399.9999999254,21.4549985623158,1.00000000176751,0.628950904234092
24499.999999924,21.4662202222225,1.00000000169422,0.625134751082432
24599.9999999225,21.4719630896411,1.00000000190729,0.63401799401244
24699.9999999211,21.4702868177169,1.00000000191088,0.625388173159183
24799.9999999196,21.4641517387215,1.00000000196837,0.632676121583928
24899.9999999181,21.4517452061294,1.00000000170778,0.63852041411828
24999.9999999167,21.4374016036652,1.00000000189608,0.638592326689607
25099.9999999152,21.4219021796258,1.00000000166652,0.618362901288699
25199.9999999138,21.4094438892534,1.00000000174044,0.600658092894655
25299.9999999123,21.3979301451473,1.00000000188708,0.616888925734183
25399.9999999109,21.3767013254394,1.0000000020557,0.623392528403911
25499.9999999094,21.3468281729137,1.00000000163338,0.625112987263627
25599.999999908,21.3154838503806,1.00000000181971,0.625457021895407
25699.9999999065,21.2891951849473,1.00000000189514,0.629341847902515
25799.9999999051,21.2633645723924,1.00000000189888,0.650787906831339
25899.9999999036,21.2303532720907,1.00000000202718,0.650521688157723
25999.9999999021,21.1920159657574,1.00000000201008,0.646642007986039
26099.9999999007,21.1518093402064,1.00000000177126,0.636428452755136
26199.9999998992,21.1162338920908,1.00000000173835,0.622059494280202
26299.9999998978,21.0852380978664,1.00000000188024,0.623602951944652
26399.9999998963,21.0586288052611,1.00000000169824,0.628354796566742
26499.9999998949,21.0363119385073,1.00000000174294,0.617434042188881
26599.9999998934,21.020805688407,1.0000000017865,0.615401132350125
26699.999999892,21.0061159731479,1.00000000203526,0.644877825245683
26799.9999998905,20.9836805710125,1.0000000018731,0.651083373100168
26899.999999889,20.9542028906306,1.00000000199566,0.644977466802109
26999.9999998876,20.9230748532743,1.00000000169687,0.638200040618403
27099.9999998861,20.8959332691255,1.00000000186523,0.642999157972429
27199.9999998847,20.8677050639123,1.0000000018179,0.655906290370245
27299.9999998832,20.8345053837957,1.00000000191273,0.644004715666833
27399.9999998818,20.7993238442713,1.00000000184321,0.64247177113542
27499.9999998803,20.7655531523703,1.0000000018471,0.63981053548991
27599.9999998789,20.7313222145452,1.00000000184866,0.633268341807283
27699.9999998774,20.6969652476646,1.00000000211717,0.626430080312521
27799.9999998759,20.6621474926929,1.00000000198648,0.640922533654411
27899.9999998745,20.6240251526477,1.00000000194704,0.624346431141216
27999.999999873,20.5857606118612,1.00000000188361,0.627624250476554
28099.9999998716,20.548160816766,1.00000000197386,0.623459326865792
28199.9999998701,20.5108610501004,1.00000000191516,0.62278971700879
28299.9999998687,20.4728243338878,1.00000000196684,0.632854524433872
28399.9999998672,20.4337581513363,1.00000000188872,0.630954785757612
28499.9999998658,20.3943717160529,1.00000000186031,0.637024667911735
28599.9999998643,20.3533497271656,1.00000000201328,0.637191649632776
28699.9999998629,20.3102671376695,1.00000000199158,0.622886799972395
28799.9999998614,20.2673262147459,1.00000000191073,0.619495536130894
28899.9999998599,20.2236055730939,1.00000000176388,0.626716136945862
28999.9999998585,20.1779739612287,1.00000000191959,0.64207098015139
29099.999999857,20.131642357973,1.00000000193632,0.637570434168717
