Time,AGPnorm,Energy,Entropy
0,0,1,-1.2253106377092e-17
99.9999999999986,1.02189184017671e-05,0.999999999998926,0.000496661807352717
199.999999999993,0.000940622162483959,0.999999999998513,0.000804974834094428
300,0.00233820803130668,1.00000000000025,0.0014101362401617
400.000000000022,0.00326152769047331,0.99999999999801,0.00243802806951176
500.000000000045,0.0039455867066119,0.99999999999967,0.00330281051121443
600.000000000068,0.00563410610020749,0.99999999999936,0.0046039292817745
700.000000000091,0.00701400018185814,0.99999999999818,0.00595072183820285
800.000000000113,0.00899117573779494,1.00000000000034,0.00732942800400872
900.000000000136,0.0112808686212235,0.999999999998218,0.00904261309707992
1000.00000000016,0.0131316488423851,0.999999999999239,0.0106878284089544
1100.0000000001,0.0158476626594291,0.99999999999979,0.0125247151451075
1200,0.018712658610802,0.999999999997979,0.0145136859110782
1299.99999999991,0.0215513053311104,1.00000000000024,0.0164782413671925
1399.99999999982,0.0247219390032046,0.999999999998543,0.0186828801707357
1499.99999999973,0.0277961166178528,0.9999999999988,0.0209124105846054
1599.99999999964,0.0315794575296807,1.00000000000015,0.0232049133000354
1699.99999999955,0.0355866060453346,0.999999999997919,0.0256938119545514
1799.99999999946,0.0392599622584949,0.999999999999957,0.0281687661650283
1899.99999999937,0.0432793284362469,0.999999999998967,0.0307853080920244
1999.99999999928,0.047506555553333,0.999999999998428,0.0335140125964096
2099.99999999919,0.0521306271993471,1.00000000000037,0.036249096214586
2199.99999999909,0.056951058968587,0.999999999997994,0.0391764920454993
2299.999999999,0.0614314222669774,0.999999999999551,0.0421272449978722
2399.99999999891,0.0663263236125325,0.99999999999944,0.0451460948284162
2499.99999999882,0.0715509802178889,0.999999999998171,0.0483422308878583
2599.99999999873,0.0767630108866066,1.00000000000039,0.0515403213984774
2699.99999999864,0.0820935269497272,0.999999999998212,0.0548903307265671
2799.99999999855,0.087346284837438,0.999999999999106,0.0583233591761479
2899.99999999846,0.0930240392008817,0.999999999999893,0.0617869957032275
2999.99999999837,0.099006531295053,0.999999999998012,0.0654620922713046
3099.99999999828,0.104625368141604,1.0000000000002,0.0691674293712783
3199.99999999819,0.110316990846505,0.999999999998575,0.0729712054300665
3299.99999999809,0.116256468337672,0.999999999998719,0.0769417154891888
3399.999999998,0.122473445783946,1.00000000000024,0.0809343551569114
3499.99999999791,0.128900765249285,0.999999999997937,0.0851557953043382
3599.99999999782,0.134818563847821,0.999999999999845,0.0894483836606368
3699.99999999773,0.140885786873438,0.999999999999023,0.0938127953494159
3799.99999999764,0.147345937952024,0.99999999999845,0.0984335045215622
3899.99999999755,0.153831061166736,1.00000000000039,0.103105732905068
3999.99999999746,0.16034924660575,0.999999999998008,0.108005097449382
4099.99999999738,0.166513132323212,0.999999999999426,0.113055240428157
4199.99999999775,0.172941604704747,0.999999999999503,0.118209147700789
4299.99999999811,0.179690865876787,0.999999999998316,0.123705241565262
4399.99999999848,0.186206914608647,1.00000000000038,0.129330174490936
4499.99999999884,0.192599142128499,0.99999999999835,0.135211890890134
4599.9999999992,0.198943547939621,0.99999999999915,0.141404473527042
4699.99999999957,0.205622852298675,1.00000000000022,0.147798599713633
4799.99999999993,0.212366977145908,0.999999999998618,0.154682823449106
4900.00000000029,0.218782125564425,1.0000000000009,0.161832422144166
5000.00000000066,0.225159320645817,1.00000000000015,0.169347344393757
5100.00000000102,0.231458948288098,1.00000000000103,0.177370976376912
5200.00000000139,0.238650366702292,1.0000000000041,0.185719071863503
5300.00000000175,0.24518534972141,1.00000000000359,0.19460650395799
5400.00000000211,0.251813699703954,1.00000000000825,0.203771185782158
5500.00000000248,0.259840769251221,1.00000000001141,0.213189262478885
5600.00000000284,0.266855982945144,1.00000000001597,0.222970963533316
5700.00000000321,0.2778663121648,1.00000000002256,0.232831910603969
5800.00000000357,0.289108421347361,1.00000000002771,0.242836034812012
5900.00000000393,0.302678063959506,1.00000000003489,0.252869499685095
6000.0000000043,0.325324538769691,1.00000000004357,0.262703727277935
6100.00000000466,0.34966362815845,1.00000000005206,0.27265745068478
6200.00000000502,0.38796045925381,1.00000000006244,0.282350101298242
6300.00000000539,0.439097509521267,1.0000000000732,0.291839680424792
6400.00000000575,0.502906392327429,1.0000000000819,0.301293680804747
6500.00000000612,0.597117927229151,1.0000000000962,0.310354229819925
6600.00000000648,0.712061441858316,1.00000000010349,0.319491287936749
6700.00000000684,0.863284829741804,1.00000000011392,0.328257489953367
6800.00000000721,1.06085313261355,1.00000000012317,0.336742683208518
6900.00000000757,1.29847109712284,1.0000000001373,0.34522308589372
7000.00000000793,1.6029586457946,1.00000000014227,0.353355541961067
7100.0000000083,1.97085510061713,1.00000000015602,0.361370495073266
7200.00000000866,2.41097965675687,1.0000000001726,0.369115235682044
7300.00000000903,2.94785852076783,1.00000000017983,0.376534332184743
7400.00000000939,3.57072306047308,1.00000000019173,0.38402585719185
7500.00000000975,4.30519295925209,1.00000000021097,0.391039414733911
7600.00000001012,5.16214691651459,1.00000000021053,0.397934679868498
7700.00000001048,6.13641075007754,1.00000000021732,0.404765405990024
7800.00000001084,7.26072034651129,1.00000000022941,0.411113966609025
7900.00000001121,8.52808601413041,1.00000000023747,0.417519688836846
8000.00000001157,9.95022658675009,1.00000000024177,0.423603376595485
8100.00000001194,11.5538188648032,1.0000000002585,0.429350247282476
8200.0000000123,13.3215637666952,1.00000000025805,0.435246565834674
8300.00000001266,15.2817575552784,1.00000000026743,0.440610791090838
8400.00000001303,17.4410478337514,1.00000000026316,0.446009093407528
8500.00000001339,19.7887732059982,1.00000000028266,0.451149179782245
8600.00000001376,22.3614850958912,1.00000000028505,0.455961768828435
8700.00000001412,25.1393393813288,1.00000000029513,0.460893103062362
8800.00000001448,28.1338091399836,1.00000000029636,0.465424953494154
8900.00000001485,31.3694468195688,1.0000000002995,0.46980804884735
9000.00000001521,34.8148796202872,1.00000000030744,0.474197553967684
9100.00000001557,38.5049613798816,1.00000000030715,0.478144751500889
9200.00000001594,42.4295318119602,1.000000000313,0.482246763632368
9300.0000000163,46.5755358195445,1.00000000032326,0.485985999880648
9400.00000001667,50.9816625857768,1.00000000031835,0.489546017701012
9500.00000001703,55.6066964715024,1.00000000031642,0.49321676251183
9600.00000001739,60.4715433966919,1.00000000032748,0.496396131170901
9700.00000001776,65.584042958771,1.00000000033045,0.499633579210665
9800.00000001812,70.9067409187433,1.00000000033988,0.502752814417894
9900.00000001848,76.4833440169091,1.00000000033327,0.505574285225041
10000.0000000188,82.2768478406215,1.00000000032825,0.508561775534602
10100.0000000192,88.2850688136799,1.0000000003443,0.511165309477647
10200.0000000196,94.5356269325902,1.0000000003429,0.513644906386625
10300.0000000199,100.975020860899,1.00000000033953,0.51621603048483
10400.0000000203,107.639559131034,1.00000000033941,0.518424494481137
10500.0000000207,114.50845072938,1.00000000033519,0.520827995603271
10600.000000021,121.554403214453,1.00000000033472,0.522885826353605
10700.0000000214,128.819190600681,1.00000000033241,0.524791457080679
10800.0000000218,136.245524451452,1.00000000033531,0.526860558876049
10900.0000000221,143.853027427793,1.00000000034186,0.528501249046366
11000.0000000225,151.641803347369,1.00000000034794,0.5303328618466
11100.0000000229,159.564857690252,1.00000000033215,0.532015399212451
11200.0000000232,167.667800871495,1.00000000034139,0.533295076337964
11300.0000000236,175.901000460423,1.0000000003463,0.535080709226638
11400.0000000239,184.264093148745,1.00000000034225,0.536242897089026
11500.0000000243,192.77598552329,1.00000000033671,0.537555548963403
11600.0000000247,201.379069392103,1.00000000033596,0.53911547288997
11700.000000025,210.113201973501,1.00000000032771,0.539844434240326
11800.0000000254,218.944587286649,1.00000000033436,0.541186411173333
11900.0000000258,227.852442409716,1.00000000033565,0.542260391289232
12000.0000000261,236.870117280482,1.00000000033286,0.542720647749968
12100.0000000265,245.93801507756,1.00000000033011,0.544163176090119
12200.0000000269,255.084576637434,1.00000000033958,0.54451839178088
12300.0000000272,264.294239314049,1.00000000032753,0.545221367191245
12400.0000000276,273.530399270492,1.0000000003208,0.546509086874799
12500.0000000279,282.834101416569,1.00000000032539,0.546509920612131
12600.0000000283,292.151007114262,1.00000000032175,0.547262477554922
12700.0000000287,301.49338802023,1.00000000032631,0.548046299547115
12800.000000029,310.867205911358,1.0000000003196,0.548144526129916
12900.0000000294,320.222498673827,1.00000000032112,0.548903094590823
13000.0000000298,329.601287703156,1.00000000032199,0.548972960194561
13100.0000000301,338.962338077303,1.00000000031125,0.549246187441056
13200.0000000305,348.300234138132,1.00000000031363,0.550104916771391
13300.0000000309,357.636439686292,1.00000000031013,0.550017499404506
13400.0000000312,366.919588819981,1.00000000030914,0.550081142633286
13500.0000000316,376.181491557939,1.00000000031562,0.550296863976068
13600.0000000319,385.400561908945,1.00000000030634,0.550509076120539
13700.0000000323,394.554872630145,1.00000000030469,0.550877834287429
13800.0000000327,403.67532671765,1.00000000029881,0.550690504467867
13900.000000033,412.714813940953,1.00000000029765,0.550796110684621
14000.0000000334,421.694937040301,1.00000000029658,0.550700480044859
14100.0000000338,430.608515965826,1.00000000029735,0.550767560893529
14200.0000000341,439.425160786456,1.00000000029853,0.551022586981221
14300.0000000345,448.177622348228,1.00000000028622,0.550842662319868
14400.0000000349,456.828718287439,1.000000000285,0.550757397062182
14500.0000000352,465.387094272195,1.00000000028522,0.550521982603431
14600.0000000356,473.858295387452,1.00000000028846,0.55033019777095
14700.0000000359,482.208837830192,1.00000000027804,0.550746894423292
14800.0000000363,490.468705150005,1.00000000028567,0.550406965941722
14900.0000000367,498.611057542457,1.00000000027363,0.549986352068656
15000.000000037,506.634455062227,1.00000000027123,0.54995451819638
15100.0000000374,514.553342274536,1.00000000027832,0.54981816191395
15200.0000000378,522.33570846799,1.00000000027769,0.549748996479808
15300.0000000381,530.004611562984,1.00000000026855,0.549443112295873
15400.0000000385,537.544856415153,1.00000000026702,0.549442101638394
15500.0000000389,544.948225782786,1.00000000027123,0.549180441759907
15600.0000000392,552.232629468706,1.00000000026192,0.548651076001644
15700.0000000396,559.368474630409,1.00000000025815,0.548646629205177
15800.0000000399,566.375267707399,1.00000000025774,0.548521511551108
15900.0000000403,573.247335676603,1.00000000026095,0.548233893992323
16000.0000000407,579.966862223529,1.00000000025406,0.547948795939673
16100.000000041,586.557917632332,1.00000000025536,0.548039830163451
16200.0000000414,592.99728549933,1.00000000025936,0.547361231989332
16300.0000000418,599.295077619122,1.00000000024985,0.547378491774744
16400.0000000418,605.453706880791,1.00000000024754,0.546349748873224
16500.0000000404,611.454201419522,1.00000000025659,0.547364114884565
16600.0000000389,617.321844918112,1.00000000023843,0.546390137972073
16700.0000000375,623.034067502593,1.00000000025023,0.546469705591534
16800.000000036,628.599288972993,1.0000000002463,0.545532764863501
16900.0000000346,634.021987854858,1.00000000023749,0.545709786229653
17000.0000000331,639.287561527757,1.00000000023778,0.545100164722308
17100.0000000317,644.41193627149,1.00000000024652,0.544795558382664
17200.0000000302,649.384834492527,1.0000000002288,0.544686884634901
17300.0000000287,654.204592335221,1.00000000023114,0.544784058522363
17400.0000000273,658.883944334499,1.00000000023272,0.544235851016391
17500.0000000258,663.405041527878,1.00000000022503,0.543447858662147
17600.0000000244,667.783480995802,1.00000000022887,0.542956363139538
17700.0000000229,672.013469480883,1.00000000022906,0.542496075736653
17800.0000000215,676.090351237914,1.00000000021432,0.542937045041402
17900.00000002,680.02896280066,1.00000000022262,0.542658058259322
18000.0000000186,683.813136907227,1.00000000022084,0.542861589108841
18100.0000000171,687.456438026916,1.00000000021802,0.542243445201695
18200.0000000156,690.956033280199,1.00000000021235,0.541135640181362
18300.0000000142,694.306044416832,1.00000000022657,0.540274365577764
18400.0000000127,697.51924233897,1.00000000021443,0.53960140961783
18500.0000000113,700.584959015559,1.00000000020879,0.540240125788111
18600.0000000098,703.511757572393,1.00000000021066,0.541018517354323
18700.0000000084,706.303539732731,1.00000000020984,0.541868329290235
18800.0000000069,708.953158056852,1.00000000021022,0.541455428853156
18900.0000000055,711.47356312069,1.00000000020336,0.539941786677385
19000.000000004,713.855362973732,1.00000000020012,0.537629924884467
19100.0000000026,716.100490110219,1.00000000020697,0.536141411241695
19200.0000000011,718.214287028309,1.00000000019676,0.536204768002461
19299.9999999996,720.189161943608,1.00000000019535,0.538097107130471
19399.9999999982,722.040894721725,1.00000000020027,0.541058748372405
19499.9999999967,723.768053725631,1.0000000001968,0.542520131762372
19599.9999999953,725.374661163297,1.00000000020155,0.542170296358138
19699.9999999938,726.867225892771,1.00000000018998,0.538784089118465
19799.9999999924,728.232907612333,1.00000000018897,0.534446231351537
19899.9999999909,729.477048711255,1.00000000018455,0.530983726987639
19999.9999999895,730.593095029565,1.00000000017911,0.530430433986604
20099.999999988,731.583023075529,1.00000000017774,0.534698370514064
20199.9999999865,732.462309014955,1.0000000001807,0.540105931245483
20299.9999999851,733.233524523485,1.0000000001907,0.545020648845143
20399.9999999836,733.912912014945,1.00000000019963,0.546133509665615
20499.9999999822,734.500821950278,1.0000000001948,0.542561831175365
20599.9999999807,734.989150905749,1.00000000018768,0.535580697902046
20699.9999999793,735.375130445641,1.00000000017169,0.527024937991569
20799.9999999778,735.642139400568,1.00000000015823,0.522548060864175
20899.9999999764,735.793514826297,1.00000000015668,0.524162245300281
20999.9999999749,735.836481996268,1.00000000016483,0.531878921859245
21099.9999999734,735.783995413994,1.00000000018633,0.541827497249928
21199.999999972,735.660453349795,1.00000000019673,0.549057824877105
21299.9999999705,735.474140247498,1.0000000002069,0.551342695080486
21399.9999999691,735.230368249772,1.0000000002009,0.546175382926401
21499.9999999676,734.92183296885,1.00000000018781,0.535368127407478
21599.9999999662,734.527804794013,1.00000000016495,0.522196869335474
21699.9999999647,734.038221286988,1.00000000014828,0.511916104167582
21799.9999999633,733.440671292821,1.00000000014215,0.51054818731781
21899.9999999618,732.744430806869,1.00000000015296,0.51980513164437
21999.9999999603,731.969600283882,1.00000000017293,0.534376170236799
22099.9999999589,731.137431121941,1.00000000020238,0.548204161683258
22199.9999999574,730.273608608071,1.00000000021833,0.555580069287063
22299.999999956,729.385972566135,1.00000000022636,0.555268428013587
22399.9999999545,728.471840625602,1.00000000021285,0.546201459668514
22499.9999999531,727.517831520953,1.00000000018676,0.529799182344699
22599.9999999516,726.49745593591,1.00000000015567,0.510566803380112
22699.9999999502,725.394975819074,1.00000000012987,0.496014102451555
22799.9999999487,724.198816016743,1.00000000012537,0.49351393028488
22899.9999999473,722.916336246038,1.00000000013655,0.506012047684657
22999.9999999458,721.57207964471,1.00000000016841,0.526583782940729
23099.9999999443,720.189837316098,1.00000000020518,0.545746481048177
23199.9999999429,718.797847212828,1.00000000023046,0.557851498842549
23299.9999999414,717.409342815307,1.00000000023656,0.561160077540001
23399.99999994,716.02455951027,1.0000000002305,0.554843087002799
23499.9999999385,714.634140489517,1.00000000020751,0.538918462318695
23599.9999999371,713.212410543348,1.00000000018181,0.515789844075561
23699.9999999356,711.736967852951,1.00000000013927,0.491206500480354
23799.9999999342,710.187294203027,1.00000000010958,0.475058439455081
23899.9999999327,708.556304801219,1.00000000010681,0.475837555424496
23999.9999999312,706.859400134056,1.0000000001319,0.494335355729967
24099.9999999298,705.116025993807,1.0000000001731,0.521293518896014
24199.9999999283,703.356611589982,1.00000000021025,0.545336390767738
24299.9999999269,701.604768991367,1.00000000024135,0.559602898226144
24399.9999999254,699.873009207172,1.00000000025651,0.565233434558047
24499.999999924,698.167943576424,1.00000000025348,0.561413033403146
24599.9999999225,696.478261205879,1.00000000024201,0.547769400201448
24699.9999999211,694.785870153263,1.00000000020058,0.525279511804302
24799.9999999196,693.067515974263,1.00000000015656,0.495841195964624
24899.9999999181,691.297165360498,1.00000000011409,0.468476325942745
24999.9999999167,689.464992156258,1.00000000009286,0.454584802707387
25099.9999999152,687.568223721726,1.00000000010108,0.460624907072739
25199.9999999138,685.621733491732,1.00000000013249,0.485955646443663
25299.9999999123,683.649853433854,1.00000000017471,0.517814389091144
25399.9999999109,681.674364315524,1.00000000021719,0.543874865800539
25499.9999999094,679.718160190683,1.0000000002493,0.559852904135288
25599.999999908,677.792770471846,1.00000000027245,0.565920041874368
25699.9999999065,675.901640043069,1.00000000027536,0.564684411599772
25799.9999999051,674.041201716029,1.00000000025275,0.554700937610445
25899.9999999036,672.195204288828,1.00000000022419,0.536093033132351
25999.9999999021,670.346832115783,1.00000000018203,0.508354493086089
26099.9999999007,668.47403642323,1.00000000013753,0.474872838217612
26199.9999998992,666.558456009143,1.00000000010181,0.448354475886591
26299.9999998978,664.595192252607,1.0000000000889,0.437380131391792
26399.9999998963,662.583735366602,1.00000000009912,0.447171416249002
26499.9999998949,660.539590987028,1.00000000013746,0.475691056858128
26599.9999998934,658.481299204693,1.00000000018247,0.510443016529211
26699.999999892,656.426393666163,1.00000000021795,0.538113388775343
26799.9999998905,654.392867058904,1.00000000026273,0.556210159591098
26899.999999889,652.389902784984,1.00000000026531,0.5627184421354
26999.9999998876,650.422291690463,1.00000000029369,0.563919289670417
27099.9999998861,648.489745578233,1.00000000027239,0.557054077682956
27199.9999998847,646.582096678521,1.00000000024409,0.544966395474017
27299.9999998832,644.690129360616,1.0000000002232,0.525104161891268
27399.9999998818,642.796541788971,1.00000000017724,0.494772514955186
27499.9999998803,640.886114366571,1.00000000014552,0.463588271124377
27599.9999998789,638.949225015254,1.00000000010549,0.436668208805778
27699.9999998774,636.977655072103,1.00000000009759,0.425608868367935
27799.9999998759,634.976795761565,1.00000000009457,0.432309705650994
27899.9999998745,632.952772334801,1.00000000012241,0.45583199543671
27999.999999873,630.918485333825,1.00000000016748,0.488402415234811
28099.9999998716,628.888229576681,1.00000000021537,0.520200093219005
28199.9999998701,626.872139240378,1.00000000023364,0.541499707238119
28299.9999998687,624.879812665528,1.00000000026981,0.554826012424546
28399.9999998672,622.917174554637,1.00000000028588,0.556992511695136
28499.9999998658,620.984207458993,1.00000000027547,0.555058658874238
28599.9999998643,619.080998452228,1.00000000026677,0.549075867893104
28699.9999998629,617.200470732791,1.00000000025194,0.536602930813353
28799.9999998614,615.335157632563,1.00000000021264,0.521733911555397
