Time,AGPnorm,Energy,Entropy
0,0,1,-7.48686537177326e-17
99.9999999999986,0.00155001953953591,0.999999999999274,0.00489839699554981
199.999999999993,0.0104323533701283,0.999999999998781,0.0143063554480255
300,0.0214814148907343,0.999999999999658,0.0263973422395692
400.000000000022,0.0319675355126168,1.00000000000028,0.0417201241202864
500.000000000045,0.0450170659675066,0.999999999999322,0.0603717626453896
600.000000000068,0.0615139890258024,0.999999999998515,0.0820663673380803
700.000000000091,0.0783020792350224,0.999999999999484,0.106847302707783
800.000000000113,0.094099634407233,1.00000000000087,0.136163054639237
900.000000000136,0.110689065862384,1.00000000000472,0.17223321179411
1000.00000000016,0.126885021149766,1.00000000004487,0.21827822253134
1100.0000000001,0.146350026781801,1.00000000019615,0.27278833361085
1200,0.190538791076009,1.00000000050178,0.328275885159614
1299.99999999991,0.276294728530924,1.00000000084578,0.378511685282287
1399.99999999982,0.477522808101754,1.00000000126135,0.422059714376247
1499.99999999973,0.922212824980837,1.0000000015327,0.458185950643302
1599.99999999964,1.69544583810247,1.00000000174229,0.488376491590309
1699.99999999955,2.83503464383405,1.00000000188796,0.513716528801594
1799.99999999946,4.39758482018812,1.00000000209354,0.534005287839988
1899.99999999937,6.40993893621806,1.00000000219483,0.549375109532041
1999.99999999928,8.81029318585031,1.00000000211204,0.562032037466523
2099.99999999919,11.5333775310283,1.00000000213648,0.57204251865014
2199.99999999909,14.5406107859097,1.00000000209581,0.579258952314176
2299.999999999,17.7608269650526,1.00000000212403,0.58318664711402
2399.99999999891,21.0834003821021,1.00000000210171,0.586236719922531
2499.99999999882,24.4159321109065,1.00000000189742,0.589278282478783
2599.99999999873,27.7152750770247,1.0000000020479,0.589034144601508
2699.99999999864,30.9314822343114,1.0000000019278,0.588312459647879
2799.99999999855,33.9944686427953,1.00000000190741,0.587216595144611
2899.99999999846,36.8432954932802,1.0000000017925,0.58653801489736
2999.99999999837,39.4566370625888,1.00000000170833,0.583936929193107
3099.99999999828,41.8326695897104,1.00000000159827,0.580443485731922
3199.99999999819,43.9497730433335,1.00000000163429,0.57836983534418
3299.99999999809,45.7864352261136,1.00000000150752,0.577484036469714
3399.999999998,47.337324735812,1.00000000145968,0.57542464737953
3499.99999999791,48.6202623735626,1.00000000142128,0.572663545086133
3599.99999999782,49.6467038578562,1.00000000142513,0.57441471578145
3699.99999999773,50.4220560096515,1.00000000131223,0.565788913031523
3799.99999999764,50.9666770714205,1.00000000127069,0.572814799668668
3899.99999999755,51.2789261056302,1.00000000121063,0.565672715288817
3999.99999999746,51.4150055859781,1.00000000125837,0.570346153697519
4099.99999999738,51.3717966625908,1.00000000112344,0.55460993640373
4199.99999999775,51.1946145828768,1.00000000131874,0.575761951869213
4299.99999999811,50.8958443123,1.00000000104717,0.541659717536607
4399.99999999848,50.4779172002051,1.00000000142162,0.578125069739397
4499.99999999884,50.0175892041062,1.00000000119151,0.550374244252315
4599.9999999992,49.4518945591417,1.00000000103154,0.531895839801584
4699.99999999957,48.8661320566684,1.00000000148701,0.577710610681713
4799.99999999993,48.2535107375102,1.00000000095583,0.517734521737031
4900.00000000029,47.5691990433972,1.00000000127309,0.540812682228952
5000.00000000066,46.9056544839672,1.00000000163247,0.571737737129104
5100.00000000102,46.2391623584764,1.00000000096063,0.505271019571567
5200.00000000139,45.5259301224902,1.00000000109188,0.51211211591168
5300.00000000175,44.8291391007315,1.00000000166013,0.576784856011607
5400.00000000211,44.1577057426857,1.0000000012379,0.510847371805681
5500.00000000248,43.4664890415125,1.00000000099599,0.483572334487787
5600.00000000284,42.7692309108087,1.00000000146122,0.530993196712332
5700.00000000321,42.1024885122417,1.00000000164014,0.55473574441135
5800.00000000357,41.4537076140211,1.00000000118996,0.491279530684338
5900.00000000393,40.8015005883491,1.00000000104682,0.489937989537668
6000.0000000043,40.1533584450287,1.00000000136752,0.512284779163988
6100.00000000466,39.5266108524938,1.00000000165212,0.545470410211598
6200.00000000502,38.9213990819195,1.00000000128157,0.509794735807114
6300.00000000539,38.3284335730817,1.0000000010837,0.490825861261956
6400.00000000575,37.7453988375355,1.00000000123569,0.511040381122291
6500.00000000612,37.1753153967307,1.0000000013068,0.509040392122118
6600.00000000648,36.6215653716718,1.00000000148748,0.530614291543177
6700.00000000684,36.0840022626871,1.00000000132876,0.519179719594223
6800.00000000721,35.564327182305,1.00000000106224,0.489570020922574
6900.00000000757,35.0616782521767,1.00000000130114,0.517108709656437
7000.00000000793,34.573263014378,1.00000000123545,0.525448515182769
7100.0000000083,34.1017720931373,1.00000000117904,0.501941565993087
7200.00000000866,33.6447085816778,1.00000000145349,0.528735495080216
7300.00000000903,33.1981291130818,1.00000000137947,0.522055582449533
7400.00000000939,32.769664138993,1.00000000114357,0.497211488231115
7500.00000000975,32.3620187930783,1.00000000113488,0.511455749702379
7600.00000001012,31.964942914881,1.00000000139009,0.529521014527181
7700.00000001048,31.5803024435822,1.00000000119371,0.517297984064125
7800.00000001084,31.2164648402144,1.00000000109838,0.488047781776876
7900.00000001121,30.8660304927536,1.00000000138974,0.522893653602358
8000.00000001157,30.5188975988472,1.00000000152483,0.524251291982003
8100.00000001194,30.1829200501851,1.00000000119542,0.511329766552513
8200.0000000123,29.8671155528118,1.00000000114899,0.505141068447093
8300.00000001266,29.5669429876954,1.00000000132824,0.521503758965586
8400.00000001303,29.2690344012847,1.00000000140284,0.526005406788375
8500.00000001339,28.978825343343,1.00000000122808,0.524139225746911
8600.00000001376,28.7087207964661,1.0000000011467,0.50073527061826
8700.00000001412,28.4530483485907,1.00000000126153,0.511685813879352
8800.00000001448,28.2035986346643,1.00000000144072,0.5357292160568
8900.00000001485,27.9552550134202,1.00000000147247,0.532704049845459
9000.00000001521,27.7157987123415,1.00000000120851,0.515271395671907
9100.00000001557,27.4938901875199,1.00000000126217,0.520034772687143
9200.00000001594,27.2822931310111,1.00000000126228,0.531792659971858
9300.0000000163,27.0790351989407,1.000000001378,0.53040454847978
9400.00000001667,26.8798864306571,1.00000000135557,0.518964800707305
9500.00000001703,26.6855454967494,1.00000000132147,0.530344580217543
9600.00000001739,26.4979468401383,1.00000000126285,0.537863761704016
9700.00000001776,26.320179639436,1.00000000119867,0.525284814132619
9800.00000001812,26.1523910385897,1.00000000128675,0.530717450525835
9900.00000001848,25.9908657496646,1.00000000138822,0.542883741754127
10000.0000000188,25.8315396378668,1.00000000142982,0.5363155305983
10100.0000000192,25.6776655367655,1.00000000128023,0.534851990854775
10200.0000000196,25.5373461130538,1.0000000011656,0.527742771481315
10300.0000000199,25.4080747288174,1.00000000129122,0.530792122341656
10400.0000000203,25.2765427753899,1.00000000143809,0.547288528983229
10500.0000000207,25.1494891501337,1.0000000012119,0.527481313847417
10600.000000021,25.0380753726538,1.0000000012706,0.524156976096193
10700.0000000214,24.9333602208835,1.00000000129991,0.527975049591058
10800.0000000218,24.8252401545717,1.00000000141152,0.541684725632663
10900.0000000221,24.7099616312623,1.00000000143606,0.55850559911259
11000.0000000225,24.5934690324894,1.00000000132357,0.557582329277271
11100.0000000229,24.4827449903558,1.00000000127797,0.546318863477301
11200.0000000232,24.3788556649475,1.00000000126396,0.548333516165156
11300.0000000236,24.2808980903426,1.00000000147072,0.549760618335013
11400.0000000239,24.1873998851787,1.00000000135519,0.545128890623932
11500.0000000243,24.0969675354711,1.00000000136841,0.540520487085992
11600.0000000247,24.0151018455919,1.00000000123467,0.544933576184223
11700.000000025,23.9432931194704,1.00000000136733,0.546509598440504
11800.0000000254,23.8767042375875,1.00000000121594,0.543075105123265
11900.0000000258,23.8097921530922,1.00000000141907,0.548538245548962
12000.0000000261,23.7411234743967,1.00000000128502,0.549075272838595
12100.0000000265,23.6795001445219,1.00000000118272,0.53414130380879
12200.0000000269,23.6294388281767,1.00000000124857,0.533334840702237
12300.0000000272,23.5848764544513,1.0000000013154,0.550841377243473
12400.0000000276,23.5392003096025,1.00000000130941,0.555887963955092
12500.0000000279,23.4906030532138,1.00000000131438,0.551567598250221
12600.0000000283,23.4354004850771,1.00000000147176,0.563747461730045
12700.0000000287,23.373148119705,1.00000000146728,0.570266996409309
12800.000000029,23.3034435392555,1.00000000137172,0.580870481761347
12900.0000000294,23.2298671667763,1.00000000134325,0.584081431141639
13000.0000000298,23.1596618385827,1.00000000122508,0.573226599926648
13100.0000000301,23.0980781849423,1.00000000122374,0.55857676695387
13200.0000000305,23.0436750865085,1.00000000141007,0.557416330627264
13300.0000000309,22.9961283072072,1.00000000139229,0.549530564473594
13400.0000000312,22.951996071998,1.00000000131863,0.547655125072597
13500.0000000316,22.9132401942741,1.00000000132998,0.558811017073048
13600.0000000319,22.8816525951704,1.00000000133985,0.563648994414343
13700.0000000323,22.8561289229208,1.00000000136411,0.562422495344338
13800.0000000327,22.830190915623,1.00000000144538,0.565354327721482
13900.000000033,22.8026622604039,1.00000000128238,0.56226741922136
14000.0000000334,22.780802882377,1.00000000134572,0.55610042266243
14100.0000000338,22.7646115129275,1.00000000136621,0.54781451376645
14200.0000000341,22.7505501842081,1.00000000132467,0.54797927181716
14300.0000000345,22.7385664844076,1.00000000133098,0.557829484787585
14400.0000000349,22.7304411925478,1.00000000133076,0.571029558297165
14500.0000000352,22.7242971846592,1.000000001363,0.577866597183349
14600.0000000356,22.7140813235494,1.00000000140428,0.589526666673748
14700.0000000359,22.6986511767688,1.00000000142097,0.593165476489011
14800.0000000363,22.6802877514663,1.00000000136644,0.596371353157864
14900.0000000367,22.6609505997922,1.00000000136498,0.592694007101212
15000.000000037,22.6389772811715,1.00000000134702,0.594159533155832
15100.0000000374,22.6121637273556,1.00000000144623,0.594915503837015
15200.0000000378,22.5749596583824,1.00000000147337,0.596886487228615
15300.0000000381,22.5292892193836,1.0000000015438,0.598010684343786
15400.0000000385,22.4765854137945,1.00000000143363,0.602993630516379
15500.0000000389,22.4220903871155,1.00000000134978,0.605413251471232
15600.0000000392,22.3717437484295,1.0000000013334,0.597423782650966
15700.0000000396,22.3290006001046,1.00000000129469,0.587500479208472
15800.0000000399,22.2944477465829,1.00000000144109,0.586427787310047
15900.0000000403,22.2656464989601,1.00000000144683,0.582613325091719
16000.0000000407,22.242953890768,1.00000000142038,0.577674181609929
16100.000000041,22.2266646368622,1.00000000132453,0.574881153885255
16200.0000000414,22.2140303110762,1.00000000137351,0.575207678506716
16300.0000000418,22.2082154480605,1.00000000140078,0.587170568476517
16400.0000000418,22.208206232037,1.00000000143286,0.587039214263904
16500.0000000404,22.2090450763961,1.00000000145528,0.584446237505499
16600.0000000389,22.2101459121828,1.00000000143567,0.580325387582898
16700.0000000375,22.2123780792851,1.00000000141295,0.573871988065193
16800.000000036,22.2158599372746,1.00000000140648,0.564896850595785
16900.0000000346,22.2239110582552,1.00000000135625,0.570660714503129
17000.0000000331,22.2364386461034,1.00000000130963,0.576110817169694
17100.0000000317,22.2524205320725,1.00000000137637,0.580819318096794
17200.0000000302,22.2689548558499,1.00000000144221,0.584165699909236
17300.0000000287,22.2828589266644,1.00000000140258,0.580520076400569
17400.0000000273,22.297436912018,1.00000000143695,0.574014205950379
17500.0000000258,22.3110046804857,1.00000000144653,0.576983201788743
17600.0000000244,22.3255948531677,1.00000000140355,0.597675750029892
17700.0000000229,22.3395705736695,1.00000000151922,0.607157317791162
17800.0000000215,22.3501748649704,1.00000000145951,0.610122966955623
17900.00000002,22.3571219931866,1.00000000149189,0.620883815108525
18000.0000000186,22.3605184895753,1.00000000146189,0.616337896616242
18100.0000000171,22.3577083021298,1.00000000152085,0.613276971952308
18200.0000000156,22.3516799457194,1.00000000139063,0.617338573891439
18300.0000000142,22.3450410059499,1.00000000143549,0.62842540444897
18400.0000000127,22.3350949049464,1.00000000151344,0.635117227346355
18500.0000000113,22.320859298834,1.00000000140905,0.635491571085865
18600.0000000098,22.3041028968403,1.00000000141824,0.631355145501025
18700.0000000084,22.2841159765628,1.00000000141384,0.627351299774361
18800.0000000069,22.2598300576509,1.00000000149939,0.628315651001868
18900.0000000055,22.2305002303846,1.00000000152443,0.62599199718028
19000.000000004,22.1945100171982,1.00000000155342,0.624704667123821
19100.0000000026,22.152381378932,1.00000000154104,0.625776041930992
19200.0000000011,22.1050877566189,1.0000000015663,0.623034815157478
19299.9999999996,22.0570871776192,1.00000000137788,0.626459624787772
19399.9999999982,22.0115343550038,1.00000000138854,0.625687690251858
19499.9999999967,21.9700730060562,1.00000000137068,0.620529419485032
19599.9999999953,21.9351422297852,1.00000000137956,0.61947556020733
19699.9999999938,21.9071111288605,1.0000000014257,0.615620134664718
19799.9999999924,21.8843468575898,1.00000000145769,0.611182209034417
19899.9999999909,21.8664168405166,1.00000000144648,0.612321934381775
19999.9999999895,21.8545436385113,1.00000000151851,0.603871596341189
20099.999999988,21.8482067378162,1.00000000140577,0.586138433477599
20199.9999999865,21.8472406844902,1.00000000142394,0.581404114874683
20299.9999999851,21.8508549156725,1.00000000148979,0.587072158883497
20399.9999999836,21.8595297066903,1.00000000144887,0.590663258233956
20499.9999999822,21.8728658453572,1.00000000148284,0.599734760420275
20599.9999999807,21.8871002970627,1.00000000151124,0.603925830267004
20699.9999999793,21.9031648758871,1.00000000154204,0.603179699542089
20799.9999999778,21.9204289975096,1.00000000158124,0.598075131058689
20899.9999999764,21.9388052298923,1.00000000149073,0.591423779268147
20999.9999999749,21.9574406820816,1.00000000142344,0.583841381609912
21099.9999999734,21.9800062950413,1.0000000015032,0.580121427562527
21199.999999972,22.0081673211691,1.00000000140885,0.582899803209042
21299.9999999705,22.03824371059,1.00000000149235,0.586937352667201
21399.9999999691,22.0669480249468,1.00000000157604,0.588837408260833
21499.9999999676,22.0955232835411,1.00000000148553,0.590926109290007
21599.9999999662,22.1271218097827,1.0000000014877,0.593091326793493
21699.9999999647,22.1589767125117,1.0000000015757,0.593634635921531
21799.9999999633,22.1881448452177,1.00000000159006,0.596907626032277
21899.9999999618,22.2116412701306,1.00000000154563,0.600423356805128
21999.9999999603,22.2335383479701,1.00000000152254,0.609550469294212
22099.9999999589,22.2555467192961,1.00000000148037,0.620720734450913
22199.9999999574,22.2773663759561,1.00000000156201,0.632500225843138
22299.999999956,22.2956288238481,1.00000000165859,0.628881132883997
22399.9999999545,22.3102281629724,1.00000000164183,0.631090141794013
22499.9999999531,22.3214883192747,1.00000000154001,0.628333199452529
22599.9999999516,22.3326418019878,1.00000000145276,0.630871699605558
22699.9999999502,22.3459877875606,1.00000000153986,0.633971979928288
22799.9999999487,22.3608856604413,1.00000000157544,0.636558430617064
22899.9999999473,22.3767014515786,1.00000000150679,0.635071243893707
22999.9999999458,22.3902266362676,1.00000000161231,0.633524533875529
23099.9999999443,22.3987964506111,1.00000000168009,0.634491231065147
23199.9999999429,22.4047787749427,1.00000000148649,0.636463665375297
23299.9999999414,22.4087410931448,1.00000000160917,0.640845451516954
23399.99999994,22.4103305342987,1.00000000155275,0.637840761865254
23499.9999999385,22.4083529797727,1.00000000160323,0.64109742137484
23599.9999999371,22.4052880744004,1.00000000164778,0.645702527980726
23699.9999999356,22.4031042385566,1.00000000151844,0.642452134769337
23799.9999999342,22.4017554372618,1.0000000015,0.635124967986329
23899.9999999327,22.3997504668892,1.00000000158473,0.638189121892317
23999.9999999312,22.3959137465093,1.00000000155721,0.637213995055569
24099.9999999298,22.3879934787,1.00000000161852,0.637283659546952
24199.9999999283,22.3761146996148,1.00000000159635,0.636316226440639
24299.9999999269,22.3629150019211,1.00000000156721,0.639611134114738
24399.9999999254,22.3493720171888,1.00000000163114,0.645085532964986
24499.999999924,22.3318888031769,1.0000000015807,0.641444304278426
24599.9999999225,22.313619897057,1.00000000151614,0.643490213152456
24699.9999999211,22.294050311694,1.0000000015458,0.649818006980899
24799.9999999196,22.2721166772023,1.00000000161269,0.647565139154194
24899.9999999181,22.2491181277996,1.0000000015026,0.638568444138647
24999.9999999167,22.2238585271929,1.00000000165765,0.641520947616965
25099.9999999152,22.1959389640988,1.00000000159425,0.642089332045132
25199.9999999138,22.1651154492551,1.00000000171777,0.642554600618926
25299.9999999123,22.1318527337159,1.00000000154024,0.645831075501014
25399.9999999109,22.0963764240613,1.00000000177234,0.653106190153527
25499.9999999094,22.0586478865856,1.00000000171276,0.647216995069068
25599.999999908,22.0193942722004,1.0000000015908,0.649463584403639
25699.9999999065,21.9789140193194,1.00000000155151,0.645635598669082
25799.9999999051,21.9380573317609,1.00000000158802,0.646669262196544
25899.9999999036,21.8979914345006,1.00000000155711,0.642978851393682
25999.9999999021,21.8614118670439,1.00000000151947,0.631215689860026
26099.9999999007,21.8284903275656,1.00000000149083,0.622091642493163
26199.9999998992,21.8011418294494,1.00000000162647,0.6201170292378
26299.9999998978,21.7793590689147,1.00000000162721,0.613690722061055
26399.9999998963,21.7621951574608,1.00000000166112,0.614038508536536
26499.9999998949,21.7485634134741,1.00000000171461,0.617084514625816
26599.9999998934,21.7390557657394,1.00000000160104,0.622558747150468
26699.999999892,21.7357959729192,1.00000000161368,0.617082662398538
26799.9999998905,21.7377251521217,1.00000000158299,0.613596724159907
26899.999999889,21.7447791004512,1.0000000015116,0.607095384679005
26999.9999998876,21.7579718739583,1.00000000162022,0.603402967751311
27099.9999998861,21.7755133357692,1.00000000169966,0.604236202734403
27199.9999998847,21.7967009295878,1.00000000165856,0.612104589265269
27299.9999998832,21.8223454953605,1.0000000015958,0.606280711562739
27399.9999998818,21.8478132161649,1.00000000172876,0.610799978786438
27499.9999998803,21.8760460687583,1.00000000161967,0.604507891774044
27599.9999998789,21.9069681753458,1.0000000017107,0.60456926172458
27699.9999998774,21.9380580131772,1.00000000162805,0.596957068502076
27799.9999998759,21.9702809528943,1.0000000016724,0.595959231291763
27899.9999998745,22.0054074672815,1.00000000167498,0.603759326777965
27999.999999873,22.0409849869981,1.00000000160927,0.602553190187655
28099.9999998716,22.078133566819,1.00000000174619,0.598944204117148
28199.9999998701,22.1187705907114,1.00000000158861,0.59597693104778
28299.9999998687,22.1636634319833,1.00000000159477,0.598365270436852
28399.9999998672,22.2105952144501,1.00000000180142,0.603039463305046
28499.9999998658,22.2565518344743,1.00000000166315,0.602347597754278
28599.9999998643,22.305105005625,1.00000000168767,0.609678940793535
28699.9999998629,22.354375876822,1.00000000176506,0.613700257804116
28799.9999998614,22.4023964425744,1.0000000017302,0.615055931395305
28899.9999998599,22.4497371784633,1.00000000180617,0.617867110771203
28999.9999998585,22.4950764818855,1.00000000170495,0.612394035504162
