Time,AGPnorm,Energy,Entropy
0,0,1,-7.3610164734091e-17
99.9999999999986,0.000297550991194248,1.00000000000341,0.00115405110369978
199.999999999993,0.0019060658950657,1.0000000000065,0.0036119298067064
300,0.00409471014240989,1.00000000000411,0.00684631235347148
400.000000000022,0.00650911325199567,1.0000000000003,0.0107439833275626
500.000000000045,0.00938434991479815,1.00000000000139,0.0154371790519064
600.000000000068,0.0129324856597828,1.00000000000555,0.0210145402904623
700.000000000091,0.0170449665184635,1.00000000000578,0.0272158756728556
800.000000000113,0.0216740022863117,1.00000000000178,0.0337546682020923
900.000000000136,0.0268564240028664,1.00000000000029,0.0407362540338887
1000.00000000016,0.0322882428753604,1.00000000000367,0.0483972135748833
1100.0000000001,0.0380150060044783,1.0000000000063,0.0568258715932606
1200,0.0442607424673559,1.00000000000378,0.0657056282043804
1299.99999999991,0.0508690605627387,1.00000000000044,0.0749414213559191
1399.99999999982,0.0578720552347655,1.0000000000019,0.0848122010870528
1499.99999999973,0.0645760799649985,1.00000000000542,0.095586694034988
1599.99999999964,0.0718636607738714,1.00000000000548,0.107192827564746
1699.99999999955,0.079119685064216,1.00000000000173,0.119415871982049
1799.99999999946,0.0869582167933252,1.0000000000011,0.132450674220508
1899.99999999937,0.0941883925163998,1.00000000000428,0.146828132919657
1999.99999999928,0.101656021005657,1.00000000000711,0.162720012909019
2099.99999999919,0.109820226614543,1.00000000000653,0.180142795111484
2199.99999999909,0.118422781251427,1.00000000000755,0.198971456960066
2299.999999999,0.126464181063296,1.00000000001622,0.219702651314216
2399.99999999891,0.135137641525824,1.00000000003097,0.242120175428604
2499.99999999882,0.153342104865267,1.00000000004925,0.265683850381512
2599.99999999873,0.186073812872382,1.00000000006684,0.289241836001682
2699.99999999864,0.236946579031614,1.00000000009892,0.312264946579306
2799.99999999855,0.318594778861775,1.00000000012977,0.334715202421152
2899.99999999846,0.469979495576796,1.00000000016163,0.356008816126648
2999.99999999837,0.731834574538997,1.000000000191,0.375729616566631
3099.99999999828,1.1278416007581,1.00000000022775,0.393431993447554
3199.99999999819,1.68140081409986,1.00000000025607,0.409901196930886
3299.99999999809,2.44807236261506,1.00000000030439,0.42481995323033
3399.999999998,3.50264552787335,1.00000000032014,0.438601342729206
3499.99999999791,4.88785756880492,1.0000000003407,0.450676979904463
3599.99999999782,6.60925055155992,1.00000000037528,0.461575766258044
3699.99999999773,8.69060001182864,1.0000000003692,0.471700066739108
3799.99999999764,11.1926015826242,1.00000000038749,0.480633238581081
3899.99999999755,14.1660864948213,1.00000000041084,0.488463863783825
3999.99999999746,17.5957057971212,1.0000000004096,0.49555851423359
4099.99999999738,21.4497380534198,1.00000000045145,0.501663541613206
4199.99999999775,25.7395292474019,1.00000000046813,0.507048045129666
4299.99999999811,30.5036227999136,1.00000000045979,0.512039409991205
4399.99999999848,35.7281835148782,1.00000000043419,0.516256059480721
4499.99999999884,41.3463311531969,1.00000000045789,0.519505916166984
4599.9999999992,47.3173556821473,1.00000000044567,0.52286264919874
4699.99999999957,53.6466779104677,1.00000000043972,0.525451474947086
4799.99999999993,60.3379084310869,1.00000000046506,0.527125733465934
4900.00000000029,67.3254858550009,1.00000000045059,0.528989213694129
5000.00000000066,74.5321744290685,1.00000000044915,0.530415696557664
5100.00000000102,81.9329377999973,1.00000000042433,0.531470777683336
5200.00000000139,89.5333273295449,1.00000000045174,0.532043469636454
5300.00000000175,97.2979435382811,1.00000000043062,0.532553688383019
5400.00000000211,105.145821302254,1.00000000044164,0.532437117706713
5500.00000000248,113.027810054236,1.00000000041377,0.533024021143762
5600.00000000284,120.937991151627,1.00000000043123,0.533220976215583
5700.00000000321,128.870652094428,1.00000000041592,0.531898764013452
5800.00000000357,136.76843933249,1.0000000004158,0.531395570151177
5900.00000000393,144.570080009189,1.00000000040106,0.531627276946217
6000.0000000043,152.255917326833,1.00000000041138,0.530600821355676
6100.00000000466,159.829729094085,1.00000000040581,0.5283367046458
6200.00000000502,167.271231150462,1.00000000041172,0.527562196117712
6300.00000000539,174.526323494463,1.00000000040086,0.527346522464208
6400.00000000575,181.565140532247,1.00000000038816,0.526209822625891
6500.00000000612,188.388411262843,1.0000000003703,0.524112628423845
6600.00000000648,194.99886548944,1.00000000036619,0.522699911951077
6700.00000000684,201.370470948955,1.00000000034907,0.522159825679663
6800.00000000721,207.468812457933,1.00000000034486,0.521087176704183
6900.00000000757,213.290845020357,1.00000000034491,0.519158703513206
7000.00000000793,218.844766204329,1.00000000033991,0.517461282491519
7100.0000000083,224.130795368585,1.00000000034815,0.516652327358039
7200.00000000866,229.125377729863,1.00000000032083,0.51626256527851
7300.00000000903,233.817834779355,1.0000000003108,0.514470755988906
7400.00000000939,238.214889911432,1.00000000032331,0.511492864743169
7500.00000000975,242.328041553783,1.0000000003093,0.510122685790813
7600.00000001012,246.156497061232,1.00000000031815,0.511183254999436
7700.00000001048,249.691649519203,1.00000000029801,0.512656862477389
7800.00000001084,252.937477101347,1.00000000028995,0.510676018636396
7900.00000001121,255.900273137006,1.00000000027212,0.504997971787114
8000.00000001157,258.582142948937,1.0000000002737,0.499709274820812
8100.00000001194,260.977453470128,1.00000000027034,0.500594116101239
8200.0000000123,263.098113246116,1.00000000027997,0.508116019491995
8300.00000001266,264.9719775189,1.00000000028585,0.514311321337593
8400.00000001303,266.620468850264,1.00000000027261,0.512235629751885
8500.00000001339,268.037126708703,1.00000000025577,0.500915857540459
8600.00000001376,269.192383744157,1.00000000023156,0.486562138722947
8700.00000001412,270.074107161284,1.00000000022204,0.48275336142781
8800.00000001448,270.70888231075,1.00000000023019,0.49591522430015
8900.00000001485,271.153084667804,1.00000000026193,0.514621469169392
9000.00000001521,271.454408180757,1.00000000028506,0.525775899451576
9100.00000001557,271.628677864488,1.00000000028425,0.52109242870343
9200.00000001594,271.651527788483,1.00000000024997,0.498506410747467
9300.0000000163,271.475710743686,1.00000000020716,0.469371500116382
9400.00000001667,271.069055568229,1.0000000001776,0.455910146088636
9500.00000001703,270.446073508332,1.00000000018831,0.473008194042847
9600.00000001739,269.675618492639,1.00000000024212,0.505473968386345
9700.00000001776,268.838632486192,1.00000000029177,0.531320090219504
9800.00000001812,267.98894425392,1.00000000031038,0.540329341423608
9900.00000001848,267.129131751681,1.00000000030589,0.528603101995118
10000.0000000188,266.208840568989,1.00000000024865,0.494608487944683
10100.0000000192,265.156787508796,1.00000000017456,0.4475198539132
10200.0000000196,263.923442473895,1.00000000013687,0.416995485456639
10300.0000000199,262.519173887288,1.0000000001444,0.430411447266251
10400.0000000203,261.005155436792,1.0000000002231,0.474269452741629
10500.0000000207,259.459033075285,1.00000000030992,0.515949581941871
10600.000000021,257.944781485147,1.00000000034536,0.540735510354102
10700.0000000214,256.494497739847,1.00000000034394,0.547519246336603
10800.0000000218,255.102385028511,1.00000000032321,0.535901984826404
10900.0000000221,253.722098525387,1.00000000028536,0.499393762065151
11000.0000000225,252.288344032819,1.0000000001981,0.440759263111591
11100.0000000229,250.743656809115,1.00000000012411,0.383497641849061
11200.0000000232,249.072711087132,1.00000000009279,0.365542316149194
11300.0000000236,247.306562938846,1.0000000001454,0.400504650936081
11400.0000000239,245.499002995433,1.00000000023386,0.459135810045632
11500.0000000243,243.703402678827,1.00000000030948,0.507180502496131
11600.0000000247,241.959993014726,1.00000000038128,0.533952778380749
11700.000000025,240.292848442868,1.00000000037919,0.544940463925544
11800.0000000254,238.7038178171,1.00000000038913,0.544310707147567
11900.0000000258,237.175072986096,1.00000000033454,0.527488117082226
12000.0000000261,235.670532765136,1.00000000029401,0.486234099145244
12100.0000000265,234.145448345893,1.00000000020341,0.424456911940703
12200.0000000269,232.562477319852,1.00000000013414,0.360144652968034
12300.0000000272,230.908448808014,1.00000000009345,0.322796262969985
12400.0000000276,229.198632540164,1.00000000010504,0.334543944877896
12500.0000000279,227.463240836876,1.00000000016982,0.386623332635292
12600.0000000283,225.73192448424,1.00000000024372,0.447913288726732
12700.0000000287,224.025867572313,1.00000000033025,0.493617584677737
12800.000000029,222.359833094895,1.00000000038278,0.518624608094203
12900.0000000294,220.745247211822,1.00000000039112,0.529942878842122
13000.0000000298,219.188748090999,1.00000000038646,0.53429823602405
13100.0000000301,217.688342810429,1.00000000036512,0.532658589883227
13200.0000000305,216.231640334505,1.00000000033697,0.519643004213544
13300.0000000309,214.799130448619,1.00000000028452,0.489056143991104
13400.0000000312,213.368893011451,1.00000000023158,0.440955761959594
13500.0000000316,211.923334845597,1.00000000017597,0.384761044994498
13600.0000000319,210.455294710568,1.00000000013166,0.336779610002222
13700.0000000323,208.97045018949,1.00000000010418,0.314098705813325
13800.0000000327,207.482800434265,1.00000000011837,0.323451427180797
13900.000000033,206.005960348372,1.00000000015609,0.359755987908076
14000.0000000334,204.547678155797,1.00000000021396,0.41240842315871
14100.0000000338,203.109140963295,1.00000000027418,0.462114884221379
14200.0000000341,201.688849121797,1.00000000032496,0.493450049366752
14300.0000000345,200.286915103623,1.00000000033367,0.504164654086447
14400.0000000349,198.905850542179,1.00000000034338,0.504881122368985
14500.0000000352,197.548967993892,1.00000000033905,0.507851855636697
14600.0000000356,196.218905205218,1.00000000034412,0.518011518675662
14700.0000000359,194.916642600119,1.00000000034197,0.52833457643141
14800.0000000363,193.639950794861,1.00000000033285,0.525888327813507
14900.0000000367,192.382867815042,1.00000000028557,0.50545927483557
15000.000000037,191.13747658652,1.00000000024265,0.469365154434606
15100.0000000374,189.898200778649,1.00000000019799,0.42486740095087
15200.0000000378,188.665116910218,1.00000000016164,0.381912645868753
15300.0000000381,187.444156532546,1.00000000014591,0.349169087230047
15400.0000000385,186.244526144461,1.00000000014611,0.332459029807194
15500.0000000389,185.075051712382,1.0000000001569,0.336240500617432
15600.0000000392,183.94094142778,1.00000000016785,0.358242444345716
15700.0000000396,182.84121603055,1.00000000019716,0.386046241196271
15800.0000000399,181.768605246896,1.00000000023103,0.417589765953328
15900.0000000403,180.712876866841,1.000000000266,0.452097982489514
16000.0000000407,179.665428843582,1.00000000028272,0.484687473744398
16100.000000041,178.622182962848,1.00000000028701,0.502962115723334
16200.0000000414,177.583743015994,1.00000000028007,0.500702621990692
16300.0000000418,176.551807291323,1.00000000027359,0.486013549208523
16400.0000000418,175.526513943655,1.00000000027403,0.473498432572779
16500.0000000404,174.505598270926,1.00000000029916,0.475399541021094
16600.0000000389,173.486588944965,1.00000000032719,0.4924463390621
16700.0000000375,172.469445519611,1.00000000035507,0.515475873979489
16800.000000036,171.456677934598,1.00000000034909,0.532174882546763
16900.0000000346,170.451486250714,1.00000000034665,0.534596811195359
17000.0000000331,169.456504418536,1.00000000031336,0.520994105242772
17100.0000000317,168.473765300255,1.00000000026324,0.492475217521362
17200.0000000302,167.506249184205,1.00000000020332,0.452534857542271
17300.0000000287,166.5604600534,1.00000000014814,0.408889180324608
17400.0000000273,165.646263136319,1.00000000012328,0.371500213319169
17500.0000000258,164.77341475084,1.0000000001182,0.34590199816265
17600.0000000244,163.94672717694,1.00000000014025,0.336694403867904
17700.0000000229,163.165371876247,1.00000000018393,0.341209137616031
17800.0000000215,162.425529567961,1.00000000020793,0.35820506849616
17900.00000002,161.722143009021,1.00000000021824,0.383714972316384
18000.0000000186,161.047653737609,1.00000000024381,0.410986278470213
18100.0000000171,160.391989669481,1.00000000026763,0.435656140577861
18200.0000000156,159.743760896601,1.00000000028313,0.455371985073491
18300.0000000142,159.092901826732,1.00000000030465,0.472757350308775
18400.0000000127,158.432371700709,1.00000000030271,0.488231641829935
18500.0000000113,157.761065706734,1.0000000003007,0.500174343173502
18600.0000000098,157.083370428259,1.00000000027721,0.50369009878582
18700.0000000084,156.406802784132,1.00000000024317,0.496397296589351
18800.0000000069,155.739127999152,1.00000000020479,0.480980026341948
18900.0000000055,155.083714728694,1.00000000020505,0.464239132885184
19000.000000004,154.437684756178,1.00000000023199,0.454558900030693
19100.0000000026,153.792188951644,1.00000000025547,0.455634980912966
19200.0000000011,153.137303936189,1.00000000029789,0.466886179603265
19299.9999999996,152.465352792545,1.00000000033715,0.483321454327133
19399.9999999982,151.774404797004,1.00000000037652,0.501835211094061
19499.9999999967,151.067364903713,1.00000000038639,0.51901959929943
19599.9999999953,150.349932500691,1.00000000037247,0.530621959625133
19699.9999999938,149.628535297508,1.00000000034313,0.533004212132178
19799.9999999924,148.90913614848,1.00000000029193,0.524135624736104
19899.9999999909,148.197754856633,1.00000000025399,0.504511007769392
19999.9999999895,147.500360362493,1.00000000022734,0.476769256967538
20099.999999988,146.824686474032,1.00000000020184,0.444659285743089
20199.9999999865,146.180034927918,1.00000000015906,0.414762932872928
20299.9999999851,145.57622818257,1.00000000013926,0.388987949702386
20399.9999999836,145.022633702724,1.00000000013556,0.366533088065195
20499.9999999822,144.526134468219,1.0000000001384,0.35083092265031
20599.9999999807,144.088277587563,1.00000000014604,0.344917201265424
20699.9999999793,143.703246156449,1.00000000017985,0.351180238636704
20799.9999999778,143.359989003453,1.00000000021594,0.370359116914265
20899.9999999764,143.044762220259,1.0000000002545,0.394968542468245
20999.9999999749,142.746127063558,1.00000000025602,0.418861021400105
21099.9999999734,142.457693967216,1.00000000026852,0.43782255182832
21199.999999972,142.175174065916,1.00000000024217,0.45300384340758
21299.9999999705,141.89491057561,1.0000000002612,0.464196849358802
21399.9999999691,141.614527778998,1.00000000026715,0.471514510547223
21499.9999999676,141.331071795624,1.00000000027475,0.477079230145937
21599.9999999662,141.039724207987,1.00000000028402,0.482372475896299
21699.9999999647,140.7358944258,1.00000000028897,0.489291404617853
21799.9999999633,140.415080574704,1.00000000028316,0.498101670379426
21899.9999999618,140.074522501018,1.00000000028462,0.507602021579715
21999.9999999603,139.715170129701,1.00000000028148,0.516098645479948
22099.9999999589,139.341517948183,1.00000000027796,0.520878828576177
22199.9999999574,138.959716458026,1.0000000002536,0.517556573236001
22299.999999956,138.577224390374,1.00000000021921,0.509030102287199
22399.9999999545,138.200249564074,1.00000000022006,0.499862868369186
22499.9999999531,137.831087362938,1.00000000022055,0.492838369125316
22599.9999999516,137.467692445619,1.00000000022116,0.488803940394885
22699.9999999502,137.105380577577,1.00000000024101,0.486022464912856
22799.9999999487,136.738564738214,1.00000000024969,0.482249981104981
22899.9999999473,136.363351286799,1.00000000026455,0.478474218495122
22999.9999999458,135.977417017087,1.00000000026965,0.478662587541263
23099.9999999443,135.577827237426,1.00000000029553,0.482548512340455
23199.9999999429,135.161650821803,1.00000000032047,0.492023577337291
23299.9999999414,134.726179040513,1.00000000033516,0.506690397719486
23399.99999994,134.271551712483,1.00000000035801,0.521851547117675
23499.9999999385,133.800580996084,1.00000000036023,0.533699367845715
23599.9999999371,133.318222475605,1.00000000035754,0.538902590275638
23699.9999999356,132.830264248837,1.00000000032656,0.537844417089776
23799.9999999342,132.342727315754,1.00000000030357,0.528186944121963
23899.9999999327,131.862237561618,1.00000000025023,0.510444172978165
23999.9999999312,131.396235725639,1.00000000020776,0.487172131453854
24099.9999999298,130.953467954413,1.00000000018252,0.461085548320348
24199.9999999283,130.543863460221,1.000000000154,0.434765183353167
24299.9999999269,130.177171268871,1.00000000013941,0.411804153804374
24399.9999999254,129.860976204078,1.00000000013142,0.39464548569617
24499.999999924,129.598988777072,1.00000000014023,0.381095991478738
24599.9999999225,129.391720314068,1.00000000015827,0.371512420801127
24699.9999999211,129.237493526597,1.00000000016746,0.367470301045234
24799.9999999196,129.13384406503,1.00000000018481,0.36804629746584
24899.9999999181,129.076327629389,1.00000000019285,0.372626820080793
24999.9999999167,129.056997413452,1.00000000021399,0.381348507407653
25099.9999999152,129.06509356143,1.00000000022385,0.394897553576351
25199.9999999138,129.088621703065,1.00000000025729,0.411455469522894
25299.9999999123,129.115350999791,1.00000000027264,0.429981051364992
25399.9999999109,129.135365464522,1.0000000002915,0.446267531351027
25499.9999999094,129.142417589505,1.00000000029611,0.459254686326867
25599.999999908,129.134624395111,1.00000000028705,0.470885846610579
25699.9999999065,129.113811312326,1.00000000029198,0.481758836440528
25799.9999999051,129.083420522086,1.00000000027719,0.490674946856138
25899.9999999036,129.047490863394,1.00000000024359,0.496804438443416
25999.9999999021,129.010213296519,1.00000000023912,0.499688923833121
26099.9999999007,128.975603000722,1.00000000021907,0.500252658261724
26199.9999998992,128.945624698186,1.00000000021825,0.499991696621767
26299.9999998978,128.919041617186,1.00000000021866,0.499799415084818
26399.9999998963,128.891258735286,1.00000000024207,0.500196857287324
26499.9999998949,128.855250668985,1.00000000025434,0.503269830004555
26599.9999998934,128.80374631558,1.00000000028492,0.508222212491906
26699.999999892,128.73111726565,1.00000000029157,0.514943547213616
26799.9999998905,128.634326430605,1.00000000028624,0.517798668962135
26899.999999889,128.512581263122,1.00000000029678,0.516677778121621
26999.9999998876,128.366744091771,1.00000000028599,0.512955385409579
27099.9999998861,128.198514750249,1.00000000028851,0.509190452458448
27199.9999998847,128.00997379834,1.00000000029611,0.510580098539802
27299.9999998832,127.803992235506,1.00000000029174,0.517440012130873
27399.9999998818,127.584510042876,1.00000000028203,0.523763524976577
27499.9999998803,127.356863620584,1.00000000026277,0.523847813412603
27599.9999998789,127.126853544759,1.00000000024345,0.517647241672328
27699.9999998774,126.899690877132,1.00000000022821,0.509426360078962
27799.9999998759,126.678843005907,1.00000000021469,0.503429146534422
27899.9999998745,126.465782278826,1.00000000020538,0.501943957728634
27999.999999873,126.2605353637,1.00000000020818,0.50312100825477
28099.9999998716,126.061574436224,1.00000000021357,0.505395044336232
28199.9999998701,125.866227369519,1.00000000021846,0.508007247066185
28299.9999998687,125.670947913727,1.00000000022632,0.509878517317427
28399.9999998672,125.472229261444,1.0000000002334,0.511642050639027
28499.9999998658,125.266819190283,1.00000000025517,0.514431364536225
28599.9999998643,125.051855746183,1.00000000026318,0.516272912450672
28699.9999998629,124.82501613033,1.00000000028416,0.514331230249088
28799.9999998614,124.584609120427,1.00000000030069,0.511027935494614
28899.9999998599,124.329880366668,1.00000000031398,0.50854008786906
28999.9999998585,124.060247786026,1.0000000003189,0.507778736960245
