Time,AGPnorm,Energy,Entropy
0,0,1,-7.60356162298366e-17
99.9999999999986,0.000727840507423099,1.00000000000193,0.00249618586763211
199.999999999993,0.00468558919553026,1.00000000000049,0.0074827556666108
300,0.00979157913347924,0.999999999998269,0.0137663457697905
400.000000000022,0.0149447509353838,0.999999999999004,0.0215207463280637
500.000000000045,0.0211817328128124,1.00000000000117,0.0310757168812203
600.000000000068,0.0292811461846042,1.00000000000129,0.0421660224210212
700.000000000091,0.0380639436111515,0.999999999999173,0.054228493451948
800.000000000113,0.0477472688936214,0.999999999998593,0.0672648677100748
900.000000000136,0.0576546950321311,1.00000000000025,0.0818815534377607
1000.00000000016,0.0682662372289902,1.00000000000137,0.0983047750722016
1100.0000000001,0.0796576388248787,1.00000000000015,0.116488860681045
1200,0.091039333409006,0.99999999999914,0.136506826733143
1299.99999999991,0.102211388045242,1.00000000000111,0.159353313950694
1399.99999999982,0.113192705317166,1.00000000000743,0.186241354947193
1499.99999999973,0.123974527644562,1.00000000002355,0.21779028941465
1599.99999999964,0.140096461884458,1.00000000006329,0.252905554284608
1699.99999999955,0.165272317604106,1.00000000013756,0.289568834657977
1799.99999999946,0.201539812109824,1.00000000023851,0.325792620749627
1899.99999999937,0.281422074436467,1.0000000003417,0.359728107563598
1999.99999999928,0.477016109381772,1.00000000045865,0.389848333847778
2099.99999999919,0.841433521761447,1.00000000058557,0.416453933751914
2199.99999999909,1.40593142699088,1.0000000006448,0.44001939983999
2299.999999999,2.23971166118487,1.00000000077577,0.460931808843335
2399.99999999891,3.44251598065571,1.00000000086107,0.478771015682979
2499.99999999882,5.06634313817199,1.00000000089773,0.494151725506173
2599.99999999873,7.10626467057502,1.00000000093854,0.507398954280619
2699.99999999864,9.56843300015129,1.00000000094993,0.518992789697581
2799.99999999855,12.481144286714,1.00000000103761,0.528342582602599
2899.99999999846,15.8411210997836,1.0000000010554,0.536247346722192
2999.99999999837,19.5990296811024,1.00000000103956,0.542641531213692
3099.99999999828,23.6988133108637,1.00000000102856,0.548206607161694
3199.99999999819,28.1046643842874,1.00000000099428,0.552683457199179
3299.99999999809,32.7760440777902,1.00000000102034,0.555879793947226
3399.999999998,37.6500904836734,1.00000000093885,0.558193088787149
3499.99999999791,42.6638016011421,1.00000000098599,0.559828616008664
3599.99999999782,47.757123108436,1.00000000093898,0.56173142457326
3699.99999999773,52.88247356617,1.00000000096064,0.562020814056788
3799.99999999764,57.9922265573827,1.00000000094558,0.561304538544972
3899.99999999755,63.0344882585627,1.00000000093852,0.561743020530277
3999.99999999746,67.9624519956874,1.00000000092157,0.561337414483597
4099.99999999738,72.7423274593647,1.00000000084765,0.559270813405597
4199.99999999775,77.3406096979932,1.00000000087351,0.558808172206384
4299.99999999811,81.7279166836563,1.00000000086212,0.557178663883282
4399.99999999848,85.8864302668778,1.00000000082152,0.555528512328311
4499.99999999884,89.7940110266631,1.000000000773,0.554353268318611
4599.9999999992,93.4367402781222,1.00000000079845,0.551908830515206
4699.99999999957,96.8046386060852,1.00000000074299,0.551557375884849
4799.99999999993,99.8901788161568,1.00000000075547,0.5482362911592
4900.00000000029,102.694339045491,1.00000000069863,0.54807854665831
5000.00000000066,105.212734364627,1.00000000067714,0.547437757797127
5100.00000000102,107.44879738738,1.00000000069248,0.543360908430912
5200.00000000139,109.403997867773,1.00000000065611,0.543581642527287
5300.00000000175,111.096194453007,1.00000000068028,0.546526673528884
5400.00000000211,112.528715541704,1.00000000061869,0.537612214881101
5500.00000000248,113.697347104537,1.00000000059797,0.534156290964983
5600.00000000284,114.625755472177,1.00000000062145,0.546699253894042
5700.00000000321,115.345667207625,1.00000000059945,0.541980442047719
5800.00000000357,115.838447682286,1.00000000048622,0.521685869358736
5900.00000000393,116.099856010081,1.0000000005384,0.533668791534352
6000.0000000043,116.202255949347,1.00000000063997,0.556430340470923
6100.00000000466,116.175449540219,1.00000000058783,0.536695339898706
6200.00000000502,115.959425226087,1.00000000042983,0.502986410980068
6300.00000000539,115.553700534199,1.00000000052437,0.526081412608961
6400.00000000575,115.064726499949,1.00000000070858,0.563799584811307
6500.00000000612,114.54011874342,1.00000000064158,0.546882902785605
6600.00000000648,113.904273228242,1.00000000042086,0.489996023306902
6700.00000000684,113.102231837045,1.00000000037869,0.487667849398735
6800.00000000721,112.221648139622,1.00000000063566,0.549505823486877
6900.00000000757,111.363429710396,1.0000000007652,0.572252995468239
7000.00000000793,110.518817875905,1.00000000061472,0.53072500559601
7100.0000000083,109.591451248161,1.00000000034336,0.456840842903063
7200.00000000866,108.543963711438,1.00000000037407,0.461839550982539
7300.00000000903,107.456326022577,1.00000000066142,0.537850337633525
7400.00000000939,106.415052246233,1.00000000086871,0.573364238480432
7500.00000000975,105.43097293376,1.0000000007542,0.551581973767193
7600.00000001012,104.437863515113,1.00000000046862,0.47183581695085
7700.00000001048,103.3702949006,1.00000000027146,0.411194829891178
7800.00000001084,102.241092232618,1.00000000044067,0.456705205516749
7900.00000001121,101.114188894263,1.00000000071569,0.53651334264591
8000.00000001157,100.040053937791,1.00000000086994,0.565869068008168
8100.00000001194,99.0252978054576,1.00000000080885,0.550843038067195
8200.0000000123,98.0318329166128,1.00000000056998,0.489149691810678
8300.00000001266,97.0118460140597,1.00000000032877,0.408322725675905
8400.00000001303,95.9536394609893,1.00000000032354,0.397398403397153
8500.00000001339,94.8821859531481,1.00000000053254,0.462876760500671
8600.00000001376,93.8303952137377,1.00000000073884,0.526866049968607
8700.00000001412,92.8193126349729,1.00000000082903,0.548773800099833
8800.00000001448,91.8520957053582,1.00000000078295,0.54427351513197
8900.00000001485,90.9119282409371,1.00000000067092,0.507523347960529
9000.00000001521,89.9751181754887,1.00000000045502,0.446217461646238
9100.00000001557,89.031948407197,1.00000000035834,0.400350464218062
9200.00000001594,88.0894173188981,1.00000000038639,0.410710922190223
9300.0000000163,87.1564395696538,1.00000000050888,0.455369917888842
9400.00000001667,86.2390740147139,1.00000000071106,0.505556988302555
9500.00000001703,85.3422326911912,1.0000000007644,0.527567866570007
9600.00000001739,84.4692749373667,1.00000000077915,0.535033995369356
9700.00000001776,83.6195359276821,1.000000000726,0.53304757565325
9800.00000001812,82.7868369575658,1.00000000054345,0.496984428855117
9900.00000001848,81.9657328153667,1.00000000044511,0.449691630336398
10000.0000000188,81.1586602609751,1.00000000041741,0.423571651504225
10100.0000000192,80.3719459562982,1.00000000046005,0.423359199537946
10200.0000000196,79.6062457796002,1.00000000050603,0.452317993473526
10300.0000000199,78.8578823008231,1.00000000060278,0.476304175768698
10400.0000000203,78.123735964044,1.00000000055151,0.498001362784784
10500.0000000207,77.4025123758818,1.00000000060848,0.507611854080902
10600.000000021,76.6912179544479,1.00000000069432,0.515841909466392
10700.0000000214,75.9873200935305,1.00000000075724,0.532645478328658
10800.0000000218,75.2928525503669,1.00000000069847,0.533780725595265
10900.0000000221,74.612520265599,1.00000000057367,0.499246745928454
11000.0000000225,73.9537203895534,1.00000000039749,0.450862538923424
11100.0000000229,73.3230522052496,1.0000000004061,0.428153617222759
11200.0000000232,72.7201900889407,1.00000000049169,0.433884567872722
11300.0000000236,72.1387059727737,1.0000000005544,0.451651906239849
11400.0000000239,71.5718182927349,1.00000000057818,0.479209464504828
11500.0000000243,71.0163699883802,1.00000000061766,0.49083280913607
11600.0000000247,70.4734727310882,1.00000000052489,0.490424650922705
11700.000000025,69.9454533064042,1.00000000049982,0.491725664907786
11800.0000000254,69.4298582864117,1.0000000005424,0.495451203052743
11900.0000000258,68.9168353287368,1.00000000067519,0.511395578695293
12000.0000000261,68.3974045213527,1.00000000081195,0.530534696998466
12100.0000000265,67.8726834920753,1.00000000074497,0.539129248095319
12200.0000000269,67.3517750602323,1.00000000065307,0.524166361586483
12300.0000000272,66.8465512967576,1.00000000049102,0.487200857544397
12400.0000000276,66.3698158689375,1.0000000004036,0.450874139753038
12500.0000000279,65.9288553986707,1.00000000039423,0.434511134758143
12600.0000000283,65.5196778986198,1.0000000005003,0.437895869560079
12700.0000000287,65.1299404821122,1.00000000059301,0.456856968040102
12800.000000029,64.7485728337014,1.00000000063808,0.473283999159294
12900.0000000294,64.3704606095857,1.00000000060783,0.489155513018001
13000.0000000298,63.9963034510241,1.00000000061963,0.498809873594983
13100.0000000301,63.6288695583163,1.00000000058969,0.501454207108933
13200.0000000305,63.2709932077937,1.0000000005256,0.50284499875529
13300.0000000309,62.9237746045545,1.00000000050085,0.507762737358627
13400.0000000312,62.5841670454423,1.00000000054368,0.510969064080852
13500.0000000316,62.2455518158916,1.00000000058719,0.511519722938344
13600.0000000319,61.9011320424977,1.00000000069789,0.514769037104679
13700.0000000323,61.5469770138493,1.00000000074216,0.525173266665694
13800.0000000327,61.1837538786526,1.00000000070276,0.536223500901601
13900.000000033,60.8178674308025,1.00000000064887,0.535417650476479
14000.0000000334,60.4613271479733,1.00000000054504,0.515626952035617
14100.0000000338,60.1271498963687,1.0000000004768,0.485860641578509
14200.0000000341,59.8241947333007,1.00000000043304,0.461293677266554
14300.0000000345,59.5541336827448,1.00000000045573,0.456525565670293
14400.0000000349,59.3125709550301,1.000000000497,0.460703824836306
14500.0000000352,59.0906193481013,1.00000000055118,0.460829365950472
14600.0000000356,58.8787439054083,1.00000000057895,0.476153174648481
14700.0000000359,58.6694431154662,1.00000000063521,0.491396503360323
14800.0000000363,58.4657970838337,1.00000000057755,0.491446025488198
14900.0000000367,58.272161542151,1.00000000052976,0.489639104234608
15000.000000037,58.0882525236553,1.0000000005361,0.499023419378731
15100.0000000374,57.9034665416448,1.0000000006289,0.514154072002364
15200.0000000378,57.7096991151371,1.00000000066673,0.531752920875861
15300.0000000381,57.5037922818526,1.00000000063973,0.539021300184495
15400.0000000385,57.2903470283496,1.00000000057605,0.544497438715427
15500.0000000389,57.0750185408461,1.00000000055514,0.541220493561837
15600.0000000392,56.8632552187953,1.00000000048383,0.527376052512686
15700.0000000396,56.657063900775,1.00000000050333,0.515286875732118
15800.0000000399,56.4538016902255,1.00000000058404,0.507477619364793
15900.0000000403,56.2464764276729,1.00000000065435,0.512734190191621
16000.0000000407,56.0290497005939,1.00000000072467,0.529940374580669
16100.000000041,55.799518731751,1.00000000074574,0.543376024644005
16200.0000000414,55.5628340515299,1.00000000064966,0.544101524395291
16300.0000000418,55.3293425148864,1.00000000057808,0.535129715334437
16400.0000000418,55.1122764917974,1.00000000049992,0.513220562311914
16500.0000000404,54.9227345356285,1.00000000043714,0.49213970160803
16600.0000000389,54.765474823258,1.00000000041545,0.473310547837638
16700.0000000375,54.6386695222452,1.00000000045905,0.467857779783285
16800.000000036,54.5347499183357,1.00000000048683,0.468437645464375
16900.0000000346,54.4433521476271,1.00000000057578,0.476213054576544
17000.0000000331,54.3569536710315,1.00000000061997,0.480921818070276
17100.0000000317,54.2737561961311,1.00000000057167,0.482990575484062
17200.0000000302,54.1934266388746,1.00000000059727,0.491800892318981
17300.0000000287,54.1150224799576,1.00000000061071,0.503500602290196
17400.0000000273,54.0389782695949,1.00000000057619,0.514967609731904
17500.0000000258,53.968936265175,1.00000000056316,0.519843167590253
17600.0000000244,53.9082110828976,1.00000000053585,0.521405327531343
17700.0000000229,53.8570627788924,1.0000000005205,0.523632272634017
17800.0000000215,53.8086324369509,1.00000000058105,0.53094177359955
17900.00000002,53.7530286743155,1.00000000062164,0.536257237541206
18000.0000000186,53.6814409003099,1.00000000063056,0.541680646292276
18100.0000000171,53.5906953151497,1.00000000065465,0.546923550395711
18200.0000000156,53.4798675522389,1.0000000006484,0.54596214793986
18300.0000000142,53.3535088262879,1.00000000059102,0.550336580305794
18400.0000000127,53.2183750593007,1.0000000005878,0.55976373060468
18500.0000000113,53.0812755546998,1.00000000054053,0.561948081567477
18600.0000000098,52.9468471499631,1.00000000051627,0.553209595290813
18700.0000000084,52.8177141162672,1.00000000049708,0.546954360860088
18800.0000000069,52.693613646444,1.00000000052206,0.546999916721156
18900.0000000055,52.5715177569426,1.00000000053633,0.539261383688025
19000.000000004,52.448922141186,1.00000000061203,0.533403232399418
19100.0000000026,52.3225312417308,1.00000000066656,0.534672637526578
19200.0000000011,52.1895728996072,1.00000000070334,0.543596988408871
19299.9999999996,52.0476204589796,1.00000000071193,0.553873149017349
19399.9999999982,51.8975768894838,1.00000000071791,0.559559680203345
19499.9999999967,51.7459315360567,1.00000000061427,0.557012178828258
19599.9999999953,51.6021857173511,1.00000000053908,0.545133845173448
19699.9999999938,51.4765418729842,1.00000000048278,0.529055195991713
19799.9999999924,51.3757849050947,1.00000000048333,0.511943473329889
19899.9999999909,51.3019992996182,1.00000000048462,0.498577051678298
19999.9999999895,51.2538891051077,1.00000000048357,0.489705280849956
20099.999999988,51.2271072578253,1.0000000005484,0.491009867033771
20199.9999999865,51.2154558754649,1.00000000054833,0.496205777750932
20299.9999999851,51.2130721720618,1.00000000056453,0.496245354066581
20399.9999999836,51.2162966727761,1.00000000060587,0.492023288372802
20499.9999999822,51.2211711967353,1.00000000057146,0.491249623347804
20599.9999999807,51.2268953824969,1.00000000060838,0.493634621700258
20699.9999999793,51.2370324903223,1.00000000056455,0.490374002613891
20799.9999999778,51.2557813314918,1.00000000052592,0.488880792881967
20899.9999999764,51.2832753988781,1.00000000053439,0.498734590578097
20999.9999999749,51.313551787404,1.00000000058787,0.518114511893662
21099.9999999734,51.3395512847644,1.00000000061233,0.533136159049652
21199.999999972,51.3566558037142,1.00000000064476,0.54073828486065
21299.9999999705,51.3630432118614,1.00000000066515,0.549580416045222
21399.9999999691,51.3612503846436,1.0000000006617,0.552851982420855
21499.9999999676,51.3562664128273,1.00000000058465,0.552074724156171
21599.9999999662,51.3518653535796,1.00000000057168,0.550064880832903
21699.9999999647,51.3480563041759,1.00000000057625,0.550518057208976
21799.9999999633,51.3430029267554,1.00000000058013,0.561387027157901
21899.9999999618,51.3349051031304,1.00000000055659,0.570578763449675
21999.9999999603,51.321986984767,1.00000000061208,0.573499624086505
22099.9999999589,51.3014575805061,1.00000000059356,0.571082008000238
22199.9999999574,51.2705300643162,1.00000000060652,0.566958058484201
22299.999999956,51.2288041686519,1.00000000062059,0.566336920855564
22399.9999999545,51.1765400882898,1.00000000061455,0.559908668116767
22499.9999999531,51.1141435640746,1.00000000066314,0.545809442832228
22599.9999999516,51.0423617241165,1.00000000067764,0.540671877393701
22699.9999999502,50.9615090050209,1.00000000062797,0.549678464191295
22799.9999999487,50.8714367645512,1.00000000063926,0.562621085636419
22899.9999999473,50.7743842333231,1.00000000064406,0.569683834884485
22999.9999999458,50.6730554802734,1.00000000059301,0.568177388388235
23099.9999999443,50.5717035607161,1.00000000055475,0.564481805675814
23199.9999999429,50.4732326927857,1.00000000051228,0.562351464940118
23299.9999999414,50.3792678766348,1.00000000051092,0.564883285174491
23399.99999994,50.2888087427346,1.00000000051697,0.567066413449867
23499.9999999385,50.1999971214412,1.00000000054341,0.562786869964455
23599.9999999371,50.1117372897107,1.00000000054706,0.559540994661855
23699.9999999356,50.0232839824703,1.00000000057795,0.561322088980714
23799.9999999342,49.9337506264331,1.00000000062245,0.559476014169581
23899.9999999327,49.8418098988781,1.00000000065523,0.555207327509481
23999.9999999312,49.7455950926762,1.00000000068531,0.550315046665503
24099.9999999298,49.644805242586,1.0000000006996,0.550865138769923
24199.9999999283,49.5390026767158,1.00000000069038,0.553296262461995
24299.9999999269,49.429512559965,1.0000000006541,0.552572637862489
24399.9999999254,49.3211338653213,1.00000000060275,0.554932486079317
24499.999999924,49.2208089480028,1.00000000056732,0.551550001321885
24599.9999999225,49.1344335837026,1.00000000050708,0.543555251534749
24699.9999999211,49.0665929288452,1.00000000049259,0.530738881221802
24799.9999999196,49.0197607821879,1.00000000046889,0.52419681372176
24899.9999999181,48.9953953555614,1.0000000004729,0.520961697879947
24999.9999999167,48.9927255937284,1.0000000004711,0.510672607714526
25099.9999999152,49.0070457153493,1.00000000053729,0.506851874855149
25199.9999999138,49.0337403010773,1.00000000057494,0.506858039136318
25299.9999999123,49.0707126008359,1.00000000056004,0.505310261538263
25399.9999999109,49.1162750867424,1.00000000056581,0.506146467767867
25499.9999999094,49.1657783362552,1.00000000063163,0.507159411032893
25599.999999908,49.2169974824811,1.00000000059491,0.510794284225266
25699.9999999065,49.2720185138318,1.00000000058628,0.511694693599004
25799.9999999051,49.332362253657,1.0000000005714,0.50475496689421
25899.9999999036,49.3990048926172,1.00000000052564,0.500618363055507
25999.9999999021,49.4699369278916,1.00000000060096,0.506818553740532
26099.9999999007,49.5422354392491,1.00000000059914,0.517897699463494
26199.9999998992,49.6132768930659,1.00000000058399,0.528274542779571
26299.9999998978,49.6822868341379,1.00000000058742,0.537555320569913
26399.9999998963,49.7481959942739,1.00000000057557,0.547115680976077
26499.9999998949,49.8086763300462,1.00000000061566,0.552112027223605
26599.9999998934,49.8624144890717,1.00000000060936,0.56027362675274
26699.999999892,49.9103131515346,1.00000000061853,0.570468704126848
26799.9999998905,49.9533602861345,1.00000000060076,0.57340506319781
26899.999999889,49.9931755041198,1.00000000056944,0.578271752001502
26999.9999998876,50.0303867513393,1.00000000057172,0.580947121638684
27099.9999998861,50.0640694265256,1.0000000005751,0.58009403319928
27199.9999998847,50.0926440069429,1.00000000060632,0.578520527196738
27299.9999998832,50.1154693443089,1.00000000063505,0.57934290931737
27399.9999998818,50.1321832262486,1.00000000061789,0.581088645629599
27499.9999998803,50.1414616306999,1.00000000062482,0.582215154039396
27599.9999998789,50.1438037224374,1.00000000061854,0.58683468966664
27699.9999998774,50.1417174319332,1.00000000061567,0.592836643093941
27799.9999998759,50.1384105584238,1.00000000057379,0.590752066715904
27899.9999998745,50.1355304990033,1.00000000055634,0.586705292408858
27999.999999873,50.1316581897983,1.00000000057174,0.586504622024538
28099.9999998716,50.1249402389281,1.00000000061019,0.585169580945813
28199.9999998701,50.1148933168734,1.00000000057834,0.585640917793022
28299.9999998687,50.1011894064251,1.00000000059732,0.580877117577677
28399.9999998672,50.0823734216947,1.00000000066573,0.577355221922873
28499.9999998658,50.057123659566,1.00000000064167,0.576172861576523
28599.9999998643,50.0261979049638,1.00000000061948,0.576329917964109
28699.9999998629,49.9914381240289,1.00000000064033,0.580230529263628
28799.9999998614,49.9534983830061,1.00000000060155,0.581509880104389
28899.9999998599,49.9116899981304,1.00000000060315,0.582364215743483
28999.9999998585,49.8667370122199,1.00000000064923,0.587692546302234
