Time,AGPnorm,Energy,Entropy
0,0,1,-1.3394327069076e-17
99.9999999999986,2.54251771113665e-05,0.999999999997539,0.00111136822651341
199.999999999993,0.00231370049671371,1.00000000000077,0.0017803836460099
300,0.00573901098137113,0.999999999998352,0.0030622827138612
400.000000000022,0.00807194081642708,0.999999999998853,0.00528890616788745
500.000000000045,0.00966192480219895,1.0000000000004,0.00701263378833967
600.000000000068,0.0136694071976805,0.999999999997518,0.00979055625246044
700.000000000091,0.0168894416744521,1.0000000000004,0.0125658855589233
800.000000000113,0.0218705598630407,0.999999999999002,0.0153321811275774
900.000000000136,0.0273245893473436,0.999999999998291,0.0189586913173007
1000.00000000016,0.031271831027067,1.00000000000053,0.0221980555097987
1100.0000000001,0.0374972918559196,0.999999999997788,0.0260089392214273
1200,0.0442459192064363,0.999999999999936,0.0301096325616165
1299.99999999991,0.0510674523093677,0.999999999999553,0.034017913288112
1399.99999999982,0.0581241963712503,0.999999999997873,0.0386736946283741
1499.99999999973,0.0645084012855307,1.00000000000045,0.0431263945985985
1599.99999999964,0.0728781405325554,0.999999999998313,0.0478830831800951
1699.99999999955,0.0819286786168508,0.999999999999412,0.0531572955175319
1799.99999999946,0.089952437583112,0.99999999999987,0.0581827364097355
1899.99999999937,0.0982580460960673,0.999999999997702,0.0638191918100251
1999.99999999928,0.106903065367283,1.0000000000003,0.0695149725771827
2099.99999999919,0.116770349260599,0.99999999999893,0.0753815066370334
2199.99999999909,0.126798282333003,0.999999999998861,0.0819263480236031
2299.999999999,0.135472691529201,0.999999999999962,0.088255094748079
2399.99999999891,0.144802726350162,0.999999999997854,0.0951436110784622
2499.99999999882,0.155138223216408,1.00000000000009,0.102419205913589
2599.99999999873,0.16568924010481,0.999999999999401,0.109866836831465
2699.99999999864,0.175648359958824,0.999999999998411,0.118131277590969
2799.99999999855,0.184778051227588,0.999999999999945,0.126424440375676
2899.99999999846,0.194837648787098,0.999999999998409,0.13543061629514
2999.99999999837,0.205887792437327,1.00000000000002,0.145386912023009
3099.99999999828,0.216240499869939,1.00000000000046,0.155746891067256
3199.99999999819,0.225756916902787,1.00000000000023,0.167420014588697
3299.99999999809,0.234799497969018,1.00000000000534,0.17980499445385
3399.999999998,0.246078241625174,1.00000000001026,0.193313963476863
3499.99999999791,0.255992087399427,1.00000000002072,0.208232309904868
3599.99999999782,0.266195331296705,1.00000000003774,0.223252660104786
3699.99999999773,0.279505805387625,1.00000000005596,0.239016400228614
3799.99999999764,0.288970374971749,1.00000000008836,0.254698958311612
3899.99999999755,0.313891327453965,1.00000000011741,0.270259816865218
3999.99999999746,0.33991703783544,1.00000000014526,0.286043031104525
4099.99999999738,0.376681552857928,1.00000000018861,0.300852970172391
4199.99999999775,0.448292088521841,1.00000000022396,0.315513495754228
4299.99999999811,0.528295138699126,1.00000000026502,0.330092616949048
4399.99999999848,0.665635695050177,1.00000000030395,0.34379706233728
4499.99999999884,0.851587320638896,1.00000000033829,0.357511382132949
4599.9999999992,1.08609015466499,1.0000000003947,0.370285783606487
4699.99999999957,1.42939063545166,1.00000000041984,0.382651682202262
4799.99999999993,1.83958124992944,1.00000000044925,0.395119689746748
4900.00000000029,2.37157228143911,1.00000000049786,0.406377221331306
5000.00000000066,3.04345549305043,1.00000000052065,0.417463727367271
5100.00000000102,3.82495985107278,1.00000000055676,0.428134993916567
5200.00000000139,4.79656928451104,1.00000000060081,0.437958399846193
5300.00000000175,5.92043516456371,1.00000000061034,0.447946520812663
5400.00000000211,7.22218141745645,1.00000000061963,0.456953386690927
5500.00000000248,8.74789325212442,1.00000000066554,0.465361312635992
5600.00000000284,10.4413817706428,1.00000000068614,0.473899108409055
5700.00000000321,12.3722510472839,1.00000000069932,0.481500391363318
5800.00000000357,14.5236445808239,1.00000000071761,0.488959913386956
5900.00000000393,16.8782739208083,1.00000000071797,0.495862864497292
6000.0000000043,19.4939827867577,1.00000000075319,0.50213716621832
6100.00000000466,22.3108715544639,1.00000000073362,0.508660781701737
6200.00000000502,25.3644928832281,1.00000000074544,0.514290230176971
6300.00000000539,28.6621025248808,1.00000000076912,0.519600011313024
6400.00000000575,32.1553793877373,1.0000000007804,0.524780403442705
6500.00000000612,35.8929447355837,1.00000000079614,0.529376940579874
6600.00000000648,39.8312350510004,1.00000000078647,0.534055669603683
6700.00000000684,43.96795234225,1.00000000076448,0.538222600030356
6800.00000000721,48.3246202392532,1.00000000080549,0.541702204598345
6900.00000000757,52.8446424935733,1.00000000078619,0.545615268312032
7000.00000000793,57.5539456643856,1.00000000079145,0.548955273777357
7100.0000000083,62.4322802150719,1.00000000080284,0.551941811354921
7200.00000000866,67.4504785529677,1.00000000078216,0.554829098920109
7300.00000000903,72.6314501686045,1.00000000077998,0.55745429248725
7400.00000000939,77.9280857633223,1.00000000077682,0.560128251566596
7500.00000000975,83.34172655957,1.00000000080802,0.562291465553328
7600.00000001012,88.8711128042514,1.00000000077898,0.564181723070321
7700.00000001048,94.4770713774468,1.00000000078418,0.566235574160999
7800.00000001084,100.173778195904,1.00000000076147,0.568061267153008
7900.00000001121,105.93098718291,1.00000000074565,0.569784897810184
8000.00000001157,111.733961591622,1.00000000074128,0.571059392597381
8100.00000001194,117.589667382066,1.00000000075734,0.572189896584535
8200.0000000123,123.461985229305,1.00000000075217,0.573647905271185
8300.00000001266,129.354334377612,1.00000000075448,0.57462104618179
8400.00000001303,135.252055610461,1.00000000073785,0.575364309723732
8500.00000001339,141.133330795758,1.00000000073135,0.576294513495735
8600.00000001376,147.00599520415,1.00000000072819,0.577103166368863
8700.00000001412,152.843904268016,1.0000000007131,0.577645495157813
8800.00000001448,158.641090082613,1.00000000070007,0.578298309460422
8900.00000001485,164.394251238679,1.00000000070386,0.578437235972166
9000.00000001521,170.081480508838,1.00000000068754,0.579001829532893
9100.00000001557,175.707559047162,1.00000000068032,0.579146633796986
9200.00000001594,181.257169194488,1.00000000068733,0.579395416297519
9300.0000000163,186.720132934374,1.00000000067981,0.579316957297108
9400.00000001667,192.097121561412,1.00000000067545,0.579568517960883
9500.00000001703,197.373831153339,1.00000000064433,0.579798420707623
9600.00000001739,202.547832515192,1.00000000065405,0.579395856593472
9700.00000001776,207.615224211251,1.00000000064518,0.579998509711464
9800.00000001812,212.562561505611,1.00000000062923,0.578878593379878
9900.00000001848,217.393803677027,1.00000000064309,0.57965992920608
10000.0000000188,222.101797534416,1.00000000064676,0.578790437665883
10100.0000000192,226.678786752214,1.0000000006151,0.578525625807217
10200.0000000196,231.129357255983,1.00000000061963,0.579224726644096
10300.0000000199,235.441100685582,1.00000000061176,0.577652982127117
10400.0000000203,239.617627886827,1.00000000062143,0.578384561308343
10500.0000000207,243.657079414688,1.00000000060486,0.578143332669934
10600.000000021,247.552683117678,1.00000000058259,0.577059964617405
10700.0000000214,251.308402552103,1.00000000061169,0.577598770853912
10800.0000000218,254.918056338362,1.00000000058345,0.576830036396544
10900.0000000221,258.383754087644,1.0000000005602,0.575979286034727
11000.0000000225,261.704806058127,1.0000000005712,0.576415388063087
11100.0000000229,264.878735666606,1.00000000055822,0.575701418516993
11200.0000000232,267.90810978017,1.00000000053958,0.574701180561957
11300.0000000236,270.78916014681,1.00000000055582,0.575531907964615
11400.0000000239,273.527494355227,1.00000000052815,0.574264374089667
11500.0000000243,276.120820034551,1.00000000052504,0.573399700813226
11600.0000000247,278.56829355178,1.00000000053039,0.574278242309902
11700.000000025,280.876801365387,1.0000000005067,0.572873202068561
11800.0000000254,283.040854932078,1.00000000051457,0.572114338305239
11900.0000000258,285.065591321806,1.00000000049724,0.573049537457629
12000.0000000261,286.955363601882,1.000000000497,0.57194083544051
12100.0000000265,288.704922047532,1.00000000048253,0.571905262231988
12200.0000000269,290.322909269402,1.00000000047646,0.571017581363961
12300.0000000272,291.808075586614,1.00000000047844,0.570211674545379
12400.0000000276,293.162375768222,1.00000000047299,0.571717123863638
12500.0000000279,294.39347235097,1.00000000046553,0.57084067827261
12600.0000000283,295.497668852851,1.00000000045252,0.568422866665058
12700.0000000287,296.478444777693,1.0000000004417,0.56898013606656
12800.000000029,297.340580449605,1.00000000045064,0.571420036329436
12900.0000000294,298.088752794054,1.00000000045387,0.571366400640675
13000.0000000298,298.727634492924,1.00000000044057,0.567308433414556
13100.0000000301,299.251066246421,1.00000000042026,0.565061174256894
13200.0000000305,299.665168978228,1.00000000042887,0.569525251155419
13300.0000000309,299.981771382905,1.00000000043531,0.572913451692093
13400.0000000312,300.205398121813,1.00000000043953,0.56886106229675
13500.0000000316,300.333461786222,1.00000000040255,0.561939739338959
13600.0000000319,300.358254009388,1.0000000003899,0.562216482813364
13700.0000000323,300.294591493368,1.00000000043795,0.571268491051656
13800.0000000327,300.160192295048,1.00000000045771,0.573792890419398
13900.000000033,299.954935004321,1.00000000041892,0.564902758177624
14000.0000000334,299.667972012281,1.00000000038911,0.555387637373519
14100.0000000338,299.292169837511,1.00000000038428,0.557451332816295
14200.0000000341,298.847805182529,1.00000000045369,0.572247917370098
14300.0000000345,298.359706196549,1.00000000048989,0.575602122425047
14400.0000000349,297.822172711968,1.00000000043281,0.561511948567395
14500.0000000352,297.220352160735,1.00000000037269,0.548282295262302
14600.0000000356,296.541128775782,1.00000000037269,0.548644353606993
14700.0000000359,295.805938309155,1.00000000043451,0.568465765907865
14800.0000000363,295.04536511881,1.00000000050899,0.578814407513885
14900.0000000367,294.2601220186,1.00000000045757,0.565171975134731
15000.000000037,293.434089326128,1.00000000037513,0.545494260724278
15100.0000000374,292.543611032327,1.00000000034212,0.535749065627756
15200.0000000378,291.598662999206,1.00000000039488,0.551363479328712
15300.0000000381,290.629949900549,1.00000000053112,0.577370052914356
15400.0000000385,289.658670696663,1.00000000053406,0.576299892548933
15500.0000000389,288.675708976459,1.00000000044972,0.554110791138406
15600.0000000392,287.657076891552,1.00000000035804,0.531777025687139
15700.0000000396,286.584576114091,1.00000000032358,0.52373605969964
15800.0000000399,285.472717722352,1.00000000040547,0.549489343492308
15900.0000000403,284.352183539548,1.00000000054808,0.579416104102383
16000.0000000407,283.245691375494,1.0000000005671,0.577783560113121
16100.000000041,282.140099112489,1.00000000044365,0.549830637424767
16200.0000000414,281.009816854894,1.0000000003471,0.523221729531901
16300.0000000418,279.837976826636,1.00000000030378,0.511532370051838
16400.0000000418,278.629351003399,1.00000000038782,0.532780579972788
16500.0000000404,277.415245904475,1.00000000052682,0.571603161805202
16600.0000000389,276.219318530635,1.00000000058644,0.583159479430437
16700.0000000375,275.039682265128,1.00000000052748,0.561059042336474
16800.000000036,273.857441324445,1.00000000039605,0.52791821145478
16900.0000000346,272.648703179671,1.00000000031369,0.506731708306067
17000.0000000331,271.409056285026,1.00000000032318,0.507377095432698
17100.0000000317,270.150324616203,1.0000000004232,0.536131533548504
17200.0000000302,268.897171217404,1.00000000056357,0.574007569410448
17300.0000000287,267.667550848257,1.0000000006161,0.580610687467383
17400.0000000273,266.456561631163,1.00000000052789,0.555784045712692
17500.0000000258,265.247211593893,1.00000000041726,0.521407765340223
17600.0000000244,264.022593242325,1.0000000003323,0.501593446757389
17700.0000000229,262.775615915744,1.00000000033254,0.501626395030487
17800.0000000215,261.51581794892,1.00000000040034,0.521742677269217
17900.00000002,260.257944805848,1.00000000052383,0.556250629974289
18000.0000000186,259.018253407247,1.00000000059774,0.576980818530809
18100.0000000171,257.800993434203,1.00000000059569,0.565624928277791
18200.0000000156,256.596297686894,1.00000000050046,0.53475337458097
18300.0000000142,255.391207696792,1.00000000038644,0.506769782364832
18400.0000000127,254.175582368913,1.00000000035772,0.498645580085178
18500.0000000113,252.949536800595,1.00000000036784,0.504981336354043
18600.0000000098,251.719156113013,1.00000000041165,0.520088195584051
18700.0000000084,250.493402212428,1.00000000050554,0.545685610655889
18800.0000000069,249.283107264357,1.00000000056933,0.566616184434955
18900.0000000055,248.091774430997,1.00000000057513,0.561005566889714
19000.000000004,246.913830290816,1.00000000051429,0.536116252577059
19100.0000000026,245.74194468387,1.00000000041718,0.511474934386859
19200.0000000011,244.568551537805,1.00000000037642,0.501305085559611
19299.9999999996,243.393408899331,1.00000000036925,0.503713088326386
19399.9999999982,242.216374236287,1.00000000038019,0.510522775156163
19499.9999999967,241.041502982107,1.00000000044493,0.521116314703562
19599.9999999953,239.875129936475,1.0000000004926,0.538059096532955
19699.9999999938,238.721294911746,1.00000000053974,0.551737892550044
19799.9999999924,237.581338814264,1.00000000054256,0.548782031112083
19899.9999999909,236.453332625267,1.00000000050086,0.533288742592549
19999.9999999895,235.332858269547,1.00000000046592,0.515916133836222
20099.999999988,234.217756997011,1.00000000039903,0.50717869727091
20199.9999999865,233.105443986042,1.00000000037318,0.507495629409102
20299.9999999851,231.997061456162,1.00000000040969,0.51075363251263
20399.9999999836,230.892917085384,1.00000000042827,0.514670279412572
20499.9999999822,229.794558945225,1.00000000045612,0.519524201825808
20599.9999999807,228.705027654743,1.00000000049463,0.527063357917914
20699.9999999793,227.62556452498,1.00000000051819,0.535912969323572
20799.9999999778,226.556470829156,1.00000000051577,0.54016923329604
20899.9999999764,225.497736725202,1.00000000047128,0.532195331329999
20999.9999999749,224.447325684035,1.00000000046811,0.522989453917852
21099.9999999734,223.40499078964,1.0000000004375,0.516348432163199
21199.999999972,222.369548309795,1.00000000040464,0.514685535078551
21299.9999999705,221.341361318415,1.00000000041747,0.516492007308884
21399.9999999691,220.320019099434,1.00000000041052,0.515506462158721
21499.9999999676,219.305129148727,1.00000000041908,0.512678498297845
21599.9999999662,218.298032229082,1.00000000043641,0.511996968671416
21699.9999999647,217.299089534155,1.00000000045457,0.516990938781113
21799.9999999633,216.308766436119,1.00000000050696,0.526118952801877
21899.9999999618,215.32757478052,1.00000000049749,0.53276464920958
21999.9999999603,214.354929513895,1.00000000048912,0.535348743110785
22099.9999999589,213.390774197798,1.0000000004492,0.529907839010028
22199.9999999574,212.435031289175,1.00000000043992,0.524603899379003
22299.999999956,211.487654824264,1.00000000042958,0.525823583197162
22399.9999999545,210.549127570035,1.00000000042861,0.528028369346164
22499.9999999531,209.619064402162,1.00000000040877,0.522757706010378
22599.9999999516,208.698030383189,1.00000000038947,0.513491830061634
22699.9999999502,207.785423523964,1.00000000038523,0.505379335746131
22799.9999999487,206.881556129004,1.00000000041008,0.503656403829464
22899.9999999473,205.986690798402,1.00000000043446,0.50876667473607
22999.9999999458,205.100301790069,1.00000000048045,0.519042135193336
23099.9999999443,204.221563467738,1.00000000050197,0.52811302771685
23199.9999999429,203.350445287278,1.00000000048,0.533512437073495
23299.9999999414,202.486764444841,1.00000000045626,0.536004097736257
23399.99999994,201.631142733461,1.0000000004358,0.529861411187508
23499.9999999385,200.783338538614,1.00000000046066,0.53060246497481
23599.9999999371,199.943310744215,1.00000000047002,0.537715478651221
23699.9999999356,199.111324130219,1.00000000047627,0.536837531680991
23799.9999999342,198.288265337412,1.00000000043903,0.526630745549079
23899.9999999327,197.475461672714,1.00000000038375,0.513500966766191
23999.9999999312,196.673651631977,1.00000000034972,0.497028995305337
24099.9999999298,195.883456633598,1.00000000037578,0.491988831552155
24199.9999999283,195.103788241511,1.00000000042346,0.496866513704475
24299.9999999269,194.332848343781,1.00000000046315,0.509662745590908
24399.9999999254,193.568816322335,1.00000000050617,0.518373985018696
24499.999999924,192.810491353356,1.00000000050929,0.52300755722813
24599.9999999225,192.057521692919,1.00000000047214,0.530198028254461
24699.9999999211,191.311211788429,1.00000000043673,0.532976471501493
24799.9999999196,190.571843031689,1.00000000043936,0.532113018180538
24899.9999999181,189.839004794062,1.00000000046547,0.532473623996149
24999.9999999167,189.111590314558,1.00000000049522,0.542795363504088
25099.9999999152,188.389310798967,1.00000000050872,0.545783921424591
25199.9999999138,187.673538056549,1.00000000046226,0.535395526757175
25299.9999999123,186.966820547314,1.00000000041853,0.518998479359282
25399.9999999109,186.272431600301,1.00000000034244,0.502930803531318
25499.9999999094,185.591923912084,1.00000000033445,0.487677456384243
25599.999999908,184.925899200122,1.00000000033616,0.481788163331182
25699.9999999065,184.271853144569,1.00000000041319,0.489744433271476
25799.9999999051,183.625982651509,1.00000000048102,0.503524651774459
25899.9999999036,182.985268099187,1.00000000051776,0.513426725479178
25999.9999999021,182.348357985001,1.00000000050504,0.515544861633635
26099.9999999007,181.714632453234,1.00000000048395,0.516436327869095
26199.9999998992,181.085237649039,1.00000000045623,0.5222686115223
26299.9999998978,180.460874441173,1.00000000045714,0.532010803326562
26399.9999998963,179.841094697582,1.0000000004609,0.534657052603199
26499.9999998949,179.225252560029,1.00000000047858,0.53465413269017
26599.9999998934,178.612345534844,1.00000000050052,0.541271074210952
26699.999999892,178.001850814753,1.00000000051931,0.546442934493436
26799.9999998905,177.395194822143,1.00000000047829,0.537765314298858
26899.999999889,176.795357861379,1.00000000045191,0.521794584917175
26999.9999998876,176.206142739328,1.00000000038596,0.505368093185924
27099.9999998861,175.631295619197,1.000000000337,0.49382549748209
27199.9999998847,175.071681147514,1.00000000034346,0.487245135528347
27299.9999998832,174.526466425028,1.00000000035255,0.482838875064102
27399.9999998818,173.993283794854,1.00000000041333,0.486786923769256
27499.9999998803,173.46838007952,1.00000000044731,0.4948702841197
27599.9999998789,172.94835298085,1.00000000048695,0.505131548984876
27699.9999998774,172.431282691562,1.00000000050216,0.510348128968234
27799.9999998759,171.915833561723,1.00000000050542,0.513709782962569
27899.9999998745,171.401330846941,1.00000000049332,0.51543533139199
27999.999999873,170.888592588114,1.00000000046102,0.520998378207636
28099.9999998716,170.378082914477,1.00000000047288,0.53092387301311
28199.9999998701,169.86923491526,1.00000000046679,0.537756846603213
28299.9999998687,169.362025539603,1.00000000045873,0.534895921789117
28399.9999998672,168.856660952287,1.00000000048157,0.534488715250391
28499.9999998658,168.35300860298,1.00000000048804,0.535212526246614
28599.9999998643,167.851968431154,1.00000000049693,0.533667883943889
28699.9999998629,167.355453175472,1.00000000047283,0.527213265128398
28799.9999998614,166.865718550673,1.00000000043879,0.517148045293406
28899.9999998599,166.385775855555,1.00000000040447,0.506545958068373
