Time,AGPnorm,Energy,Entropy
0,0,1,-7.38847441487036e-17
99.9999999999986,0.00164748495563967,1.00000000000018,0.00514272734442167
199.999999999993,0.011088442653674,0.999999999999143,0.0149963360097992
300,0.0224996783312022,0.999999999998975,0.0275210698619087
400.000000000022,0.0335675308307297,0.999999999999875,0.0433673043247396
500.000000000045,0.0471312321944616,0.999999999999825,0.0627682670271395
600.000000000068,0.0642370335187365,0.999999999999293,0.0854731995824192
700.000000000091,0.0811620358118284,0.999999999999244,0.111479225283819
800.000000000113,0.097779621384177,1.00000000000048,0.142292779195998
900.000000000136,0.114617739800761,1.000000000009,0.180983726960414
1000.00000000016,0.130182365699898,1.00000000006834,0.2304558332511
1100.0000000001,0.152105070300959,1.00000000027776,0.287459262828669
1200,0.208399883039446,1.00000000061031,0.343103304493799
1299.99999999991,0.321749231562251,1.00000000103425,0.392319765177984
1399.99999999982,0.573712732943124,1.00000000137529,0.434867673210799
1499.99999999973,1.10325817081659,1.00000000170833,0.469801920567518
1599.99999999964,1.9936206741233,1.00000000188019,0.498733543980352
1699.99999999955,3.26641395418441,1.0000000021494,0.522528393888854
1799.99999999946,4.96011306574123,1.00000000209815,0.542008907489763
1899.99999999937,7.08998581447589,1.00000000231609,0.556356834411047
1999.99999999928,9.59351284493025,1.00000000222679,0.568024870646059
2099.99999999919,12.3914482687296,1.00000000233434,0.576700468921949
2199.99999999909,15.4289480716647,1.00000000227643,0.582890476122707
2299.999999999,18.6329444156329,1.00000000214943,0.586532996363888
2399.99999999891,21.8994839891972,1.00000000217978,0.588704359895469
2499.99999999882,25.1422946886356,1.00000000209747,0.590728363120345
2599.99999999873,28.3135053593714,1.00000000197149,0.590742880104364
2699.99999999864,31.3638492824777,1.00000000196353,0.589341102255803
2799.99999999855,34.2341689549579,1.00000000194869,0.588123102879808
2899.99999999846,36.8743390897656,1.00000000182203,0.587074400236754
2999.99999999837,39.26529890145,1.00000000173125,0.58461203033202
3099.99999999828,41.4044586827524,1.00000000161652,0.580834664287347
3199.99999999819,43.2783012588832,1.00000000158225,0.578714867091767
3299.99999999809,44.8724261034144,1.00000000155936,0.577163193235962
3399.999999998,46.1883864516127,1.00000000142455,0.575630218808744
3499.99999999791,47.2414660597692,1.00000000141533,0.574052887187167
3599.99999999782,48.0473027828922,1.00000000140527,0.573865041227019
3699.99999999773,48.6133976772083,1.00000000128956,0.57068086802909
3799.99999999764,48.9678917245681,1.00000000125744,0.568380324982559
3899.99999999755,49.1081728242432,1.00000000137057,0.575607186975353
3999.99999999746,49.0972846746725,1.0000000011999,0.559633736614078
4099.99999999738,48.9182105599145,1.0000000012997,0.570787506953901
4199.99999999775,48.644629515409,1.00000000127059,0.561457644695472
4299.99999999811,48.2402003365257,1.00000000114741,0.546790281669763
4399.99999999848,47.7766406186416,1.00000000153887,0.576169822343158
4499.99999999884,47.2473965249855,1.00000000098419,0.527664064463403
4599.9999999992,46.645755277107,1.00000000150759,0.573145786363269
4699.99999999957,46.0510079744482,1.00000000140395,0.550239751782763
4799.99999999993,45.3990811539454,1.00000000102296,0.508144494782042
4900.00000000029,44.7241503049327,1.00000000171157,0.581681250205245
5000.00000000066,44.0746805962763,1.00000000131786,0.533435846432543
5100.00000000102,43.3926004708489,1.00000000101686,0.49389664079871
5200.00000000139,42.69738210872,1.00000000159722,0.560423503173399
5300.00000000175,42.0361308794297,1.00000000147033,0.542616280874936
5400.00000000211,41.3725634988574,1.00000000108921,0.490094914753501
5500.00000000248,40.6939422727087,1.00000000121706,0.505889200960533
5600.00000000284,40.0351601328867,1.00000000174071,0.557519075058852
5700.00000000321,39.4027715625003,1.00000000136173,0.510713688858896
5800.00000000357,38.774473571056,1.00000000113071,0.489307355777358
5900.00000000393,38.1468486154578,1.00000000125575,0.506785984475421
6000.0000000043,37.5356333116665,1.00000000164175,0.536618689410909
6100.00000000466,36.9463583356283,1.00000000146892,0.523888236135705
6200.00000000502,36.3722765388227,1.00000000110193,0.489131208140724
6300.00000000539,35.8104858557905,1.00000000115067,0.508646619929459
6400.00000000575,35.2608070513453,1.0000000012139,0.516035731210276
6500.00000000612,34.7277277867906,1.0000000014332,0.524069901622259
6600.00000000648,34.2099615381129,1.00000000151873,0.525096720181932
6700.00000000684,33.7091915380622,1.00000000116308,0.496890218937474
6800.00000000721,33.2277098219045,1.00000000123926,0.510866071767822
6900.00000000757,32.7596841503145,1.00000000140069,0.532841476876493
7000.00000000793,32.3086293936685,1.00000000115385,0.503275496329853
7100.0000000083,31.8738432618098,1.00000000139863,0.517774929409561
7200.00000000866,31.4489451227573,1.00000000155521,0.523072121532345
7300.00000000903,31.0393391965067,1.00000000123303,0.505161359359587
7400.00000000939,30.6514642537349,1.00000000116951,0.506803464126902
7500.00000000975,30.275677988377,1.00000000150465,0.531700923123274
7600.00000001012,29.9097976143577,1.00000000129281,0.528380859209875
7700.00000001048,29.5638254875197,1.00000000113484,0.493849412536861
7800.00000001084,29.2325749461914,1.00000000141815,0.51771843158094
7900.00000001121,28.9066818013254,1.00000000158502,0.527821547504587
8000.00000001157,28.5899623125377,1.00000000134915,0.507714509446208
8100.00000001194,28.2920416273068,1.00000000126203,0.509636845893837
8200.0000000123,28.0080332174668,1.00000000129663,0.524217752573515
8300.00000001266,27.7298519845632,1.00000000153621,0.525140326590375
8400.00000001303,27.4575573949368,1.00000000126089,0.525671076427868
8500.00000001339,27.2013215709406,1.00000000115796,0.513987079569106
8600.00000001376,26.9590744236009,1.00000000142098,0.514671820664192
8700.00000001412,26.7236742272988,1.00000000145377,0.533551350297207
8800.00000001448,26.4933990369634,1.00000000143457,0.526739033064847
8900.00000001485,26.2727595743894,1.00000000123876,0.51683730292377
9000.00000001521,26.0667141533683,1.00000000128994,0.521164999546455
9100.00000001557,25.8686768978682,1.0000000013982,0.540280363766365
9200.00000001594,25.6800614539629,1.00000000123118,0.527453212350687
9300.0000000163,25.4984506713523,1.00000000132502,0.523484711273069
9400.00000001667,25.3197636115028,1.00000000141377,0.532624213765905
9500.00000001703,25.144984129819,1.00000000138423,0.551268231141141
9600.00000001739,24.9774683482424,1.00000000131679,0.533580036404913
9700.00000001776,24.8204373252027,1.0000000013181,0.527520478134375
9800.00000001812,24.6713053482496,1.00000000144488,0.543248723267937
9900.00000001848,24.52673215882,1.00000000143941,0.53598875933207
10000.0000000188,24.3872255424868,1.00000000128884,0.535783791499974
10100.0000000192,24.2603677008975,1.00000000132154,0.535824137379547
10200.0000000196,24.1418857134012,1.00000000141491,0.536216512256453
10300.0000000199,24.0210593785794,1.00000000146413,0.54832534445569
10400.0000000203,23.9070520232489,1.00000000124061,0.529913909051293
10500.0000000207,23.8087677994965,1.00000000121694,0.526610465286521
10600.000000021,23.714225610003,1.00000000150125,0.537015635806941
10700.0000000214,23.6142804755314,1.00000000157747,0.55172561744049
10800.0000000218,23.5063955192904,1.00000000149537,0.563318300473744
10900.0000000221,23.3986483824627,1.00000000137432,0.560686199852997
11000.0000000225,23.2978120951002,1.00000000133659,0.547655263041233
11100.0000000229,23.2035031613123,1.00000000140676,0.555526191908841
11200.0000000232,23.1152913690953,1.00000000147058,0.551633190874671
11300.0000000236,23.0327965349547,1.00000000131306,0.541882253147558
11400.0000000239,22.9556083525572,1.0000000014024,0.53559493513799
11500.0000000243,22.8862011522356,1.00000000133019,0.549246868393955
11600.0000000247,22.8237518618584,1.00000000146115,0.552876688067145
11700.000000025,22.7653833769866,1.00000000136458,0.552323108365518
11800.0000000254,22.7084247820145,1.00000000142712,0.548571706481719
11900.0000000258,22.6520128764541,1.00000000135834,0.551231972870525
12000.0000000261,22.6031050170608,1.00000000137306,0.540833718471795
12100.0000000265,22.5646199088742,1.00000000129626,0.543054154615974
12200.0000000269,22.5275095349525,1.00000000149407,0.561953573963803
12300.0000000272,22.4853857315493,1.00000000146152,0.567965353675552
12400.0000000276,22.4405782149536,1.00000000148169,0.564556314788628
12500.0000000279,22.3914577508985,1.00000000145552,0.565415269903894
12600.0000000283,22.3374453639281,1.00000000149224,0.568683681688486
12700.0000000287,22.2760398314149,1.0000000015793,0.585372831705863
12800.000000029,22.2122750269731,1.00000000136811,0.583174118935788
12900.0000000294,22.151796924179,1.00000000130224,0.571942712750631
13000.0000000298,22.0984759944347,1.00000000148528,0.569726289384402
13100.0000000301,22.053493778295,1.00000000147632,0.565118355145155
13200.0000000305,22.0149837066571,1.00000000132501,0.548440192649852
13300.0000000309,21.9819500190924,1.00000000142154,0.550393305119593
13400.0000000312,21.9560100115647,1.00000000146011,0.560906480054668
13500.0000000316,21.9354633688452,1.00000000143184,0.56883111828686
13600.0000000319,21.9177600132866,1.00000000154216,0.571280548656144
13700.0000000323,21.8982250110429,1.00000000147192,0.565602538069694
13800.0000000327,21.8794894439632,1.00000000132309,0.561179572172604
13900.000000033,21.8674970918606,1.00000000134575,0.555128660895265
14000.0000000334,21.8612875156845,1.00000000138791,0.553551915748947
14100.0000000338,21.8571206699082,1.00000000142833,0.564119677585486
14200.0000000341,21.8552398508619,1.00000000140109,0.574149177666394
14300.0000000345,21.8544451553548,1.00000000142667,0.579225621249781
14400.0000000349,21.8502944074559,1.00000000150581,0.584966635837518
14500.0000000352,21.8400153482872,1.00000000157051,0.595685273366913
14600.0000000356,21.8242349631312,1.00000000148889,0.591851539671305
14700.0000000359,21.8075591505662,1.00000000138451,0.591896447149598
14800.0000000363,21.7913955705468,1.00000000136694,0.590054615645675
14900.0000000367,21.7752006037858,1.00000000146991,0.590427300950331
15000.000000037,21.7536855408897,1.00000000152903,0.588062925506322
15100.0000000374,21.7213435690601,1.00000000162406,0.587268778553421
15200.0000000378,21.6798211191693,1.00000000159872,0.594592724807469
15300.0000000381,21.6324112467345,1.00000000152912,0.603262494316989
15400.0000000385,21.5843236631656,1.00000000144762,0.598945916387978
15500.0000000389,21.5411917873251,1.00000000137506,0.585945928396702
15600.0000000392,21.5051198933053,1.00000000139986,0.582583884653837
15700.0000000396,21.4777072612507,1.00000000151317,0.58374292638145
15800.0000000399,21.4576800113395,1.00000000141703,0.580857767668271
15900.0000000403,21.443620808275,1.0000000014105,0.58096001679057
16000.0000000407,21.4373657294196,1.00000000145685,0.578757354025127
16100.000000041,21.4347939860504,1.00000000147805,0.585178565570214
16200.0000000414,21.4377699721782,1.00000000144019,0.587821816673685
16300.0000000418,21.4425374178217,1.0000000015747,0.59110499583046
16400.0000000418,21.4464517704849,1.00000000148507,0.584325469155958
16500.0000000404,21.4518205079247,1.00000000151504,0.582900708525667
16600.0000000389,21.4627467362887,1.00000000138527,0.571098139579768
16700.0000000375,21.4765547225132,1.00000000142895,0.571718834850906
16800.000000036,21.4943976830702,1.00000000145774,0.581769846978376
16900.0000000346,21.5158646168604,1.00000000142222,0.587334620646025
17000.0000000331,21.5378014285534,1.00000000150179,0.588768256747369
17100.0000000317,21.5582141080818,1.00000000150589,0.59227890464554
17200.0000000302,21.5723520168298,1.00000000162408,0.586717845898629
17300.0000000287,21.5852100227907,1.00000000155329,0.583626947074067
17400.0000000273,21.5968689698311,1.00000000144315,0.591133668629581
17500.0000000258,21.6095321429319,1.00000000146026,0.607548383603509
17600.0000000244,21.6216316762503,1.00000000154327,0.611405747586566
17700.0000000229,21.6292313924746,1.00000000154066,0.622759668542412
17800.0000000215,21.6331725318714,1.00000000150388,0.632606016874207
17900.00000002,21.6346179909873,1.00000000151162,0.628512313530057
18000.0000000186,21.6337595027715,1.00000000149395,0.626663952575218
18100.0000000171,21.630907270873,1.00000000155495,0.638482340645902
18200.0000000156,21.6238896576111,1.00000000159046,0.641242999339816
18300.0000000142,21.6140515024754,1.00000000157894,0.646410812248935
18400.0000000127,21.600809133265,1.00000000151538,0.645318672688985
18500.0000000113,21.5846769402457,1.00000000147932,0.638638971947363
18600.0000000098,21.5630616466407,1.00000000157616,0.641750040398159
18700.0000000084,21.5365297437342,1.00000000161746,0.644562622663705
18800.0000000069,21.5052290002043,1.00000000169991,0.644391938035479
18900.0000000055,21.4673420296018,1.0000000016798,0.641375595348325
19000.000000004,21.4264351839515,1.00000000159465,0.637726036166684
19100.0000000026,21.3828317748745,1.00000000156104,0.642147563321172
19200.0000000011,21.3402136141293,1.00000000148705,0.640748572127035
19299.9999999996,21.3004648580863,1.00000000149668,0.64056451766539
19399.9999999982,21.2650929369991,1.00000000146269,0.640035144201465
19499.9999999967,21.2362971577308,1.00000000148933,0.638852217944788
19599.9999999953,21.2142735179639,1.00000000148393,0.631128986182865
19699.9999999938,21.1972520418534,1.00000000146524,0.633281158110478
19799.9999999924,21.1863620782637,1.0000000014535,0.622953476761538
19899.9999999909,21.1824100574902,1.00000000146982,0.612690643119617
19999.9999999895,21.1843299828233,1.00000000147981,0.603636525599478
20099.999999988,21.1905558232172,1.00000000153312,0.606557545131106
20199.9999999865,21.2013406224452,1.00000000157477,0.610407477669147
20299.9999999851,21.2146647082855,1.00000000157156,0.611069057722303
20399.9999999836,21.228905665233,1.00000000162656,0.619863005711141
20499.9999999822,21.2440738154479,1.00000000151546,0.611086137649073
20599.9999999807,21.2602033510156,1.00000000164016,0.608913571229262
20699.9999999793,21.2774685409539,1.00000000145494,0.606247800666155
20799.9999999778,21.3006131778934,1.00000000147556,0.595934029531749
20899.9999999764,21.3276049189179,1.00000000143448,0.594425939377694
20999.9999999749,21.3569961219132,1.00000000157641,0.604915697190702
21099.9999999734,21.386999573335,1.00000000152982,0.608734013045411
21199.999999972,21.4182212585699,1.00000000163009,0.609692682995143
21299.9999999705,21.4480716608571,1.00000000153428,0.613371601886715
21399.9999999691,21.47773689062,1.00000000150935,0.617034118945978
21499.9999999676,21.5054335862931,1.00000000160159,0.615107130586257
21599.9999999662,21.5305114876803,1.00000000162206,0.616322644105491
21699.9999999647,21.5491854201493,1.000000001707,0.616671679469921
21799.9999999633,21.5610313771848,1.00000000158216,0.622756655397711
21899.9999999618,21.5712008584444,1.0000000015659,0.629261427874705
21999.9999999603,21.5818089796123,1.00000000158675,0.638498296686436
22099.9999999589,21.5936035141088,1.00000000164333,0.638340902864366
22199.9999999574,21.6064660853084,1.00000000154153,0.636555236788864
22299.999999956,21.6190600731457,1.0000000016881,0.636056135341429
22399.9999999545,21.6288063206463,1.00000000161456,0.641588075480278
22499.9999999531,21.640567875212,1.00000000155233,0.642826438571344
22599.9999999516,21.6523759149616,1.00000000158885,0.643142934923199
22699.9999999502,21.6624741497517,1.00000000161851,0.641494039636541
22799.9999999487,21.6694247399941,1.00000000167479,0.643621354837716
22899.9999999473,21.6711231310237,1.0000000017557,0.639513728502138
22999.9999999458,21.6681450735476,1.00000000164808,0.641487352000424
23099.9999999443,21.6635909463197,1.00000000162746,0.643719117354795
23199.9999999429,21.6586238383284,1.00000000167876,0.641879820005966
23299.9999999414,21.6556378856477,1.00000000157984,0.640803362052035
23399.99999994,21.6536974844953,1.00000000158061,0.647214168302569
23499.9999999385,21.6511278247311,1.00000000162716,0.646023336013546
23599.9999999371,21.6501584184621,1.00000000157168,0.644788295374763
23699.9999999356,21.6473663956559,1.00000000166872,0.647298478859759
23799.9999999342,21.640777992208,1.00000000172154,0.65743923260201
23899.9999999327,21.6305794198119,1.00000000167522,0.660565923480113
23999.9999999312,21.6174256499169,1.00000000168099,0.661683067539379
24099.9999999298,21.6022894834041,1.0000000016476,0.656845922591092
24199.9999999283,21.5867110614534,1.00000000172401,0.657190747927855
24299.9999999269,21.5689853100811,1.00000000172478,0.655173885201998
24399.9999999254,21.5505601270957,1.00000000157555,0.654081797699517
24499.999999924,21.5310940505519,1.00000000172475,0.662069489147622
24599.9999999225,21.5100727186474,1.00000000163049,0.659842493542377
24699.9999999211,21.4883063657902,1.00000000159301,0.651940291323101
24799.9999999196,21.4655821906235,1.00000000173789,0.657107107974626
24899.9999999181,21.4396912245811,1.00000000172272,0.663681041943887
24999.9999999167,21.4107847108141,1.00000000167189,0.663186347766557
25099.9999999152,21.3798288907105,1.00000000172085,0.661619223485254
25199.9999999138,21.3464024208391,1.00000000172233,0.661490960740532
25299.9999999123,21.3102474074491,1.00000000180909,0.660760369844342
25399.9999999109,21.2714163140282,1.00000000172849,0.658709235964381
25499.9999999094,21.2322228949351,1.0000000016287,0.656941725845841
25599.999999908,21.1932539044844,1.00000000163957,0.659523152039635
25699.9999999065,21.1555268364017,1.000000001571,0.654126495145801
25799.9999999051,21.1200058307609,1.00000000161404,0.646049361571093
25899.9999999036,21.0876141012982,1.00000000162534,0.632791239138969
25999.9999999021,21.0594038568292,1.00000000160675,0.628329068160858
26099.9999999007,21.0359565670617,1.00000000160752,0.632467130247644
26199.9999998992,21.0185913218794,1.00000000166022,0.633776495086441
26299.9999998978,21.0056567224666,1.00000000174313,0.635616414248502
26399.9999998963,20.9975088078794,1.00000000168505,0.634037296059594
26499.9999998949,20.995647398214,1.00000000160616,0.622800720275111
26599.9999998934,20.9989457166321,1.00000000167476,0.622659969482307
26699.999999892,21.0084933434497,1.0000000015765,0.611202513691266
26799.9999998905,21.0246161309365,1.0000000017032,0.602794042968476
26899.999999889,21.0427599276027,1.00000000167944,0.605581578986771
26999.9999998876,21.0648822844137,1.00000000160182,0.604752098948029
27099.9999998861,21.0903725242542,1.00000000178436,0.612430677915297
27199.9999998847,21.1162696803418,1.00000000185996,0.612008496937908
27299.9999998832,21.1422403453173,1.00000000167246,0.603392623218014
27399.9999998818,21.1708858772426,1.00000000166191,0.602219006646346
27499.9999998803,21.2007428983939,1.00000000180937,0.595799628487127
27599.9999998789,21.2330207210341,1.00000000159673,0.594788152844291
27699.9999998774,21.271518705481,1.00000000166278,0.599114905118765
27799.9999998759,21.3111081607223,1.00000000178541,0.59864320879588
27899.9999998745,21.3503827958339,1.00000000175633,0.596838624671078
27999.999999873,21.3933375513602,1.0000000017079,0.597584305810336
28099.9999998716,21.4402940252174,1.00000000164326,0.603806822665505
28199.9999998701,21.4882919005091,1.00000000181811,0.609813559102598
28299.9999998687,21.5375552652026,1.00000000171165,0.612855083026966
28399.9999998672,21.5872828201362,1.00000000178506,0.628019563279166
28499.9999998658,21.6369491555072,1.00000000179323,0.627476134903668
28599.9999998643,21.6869146787357,1.00000000175364,0.627577218534249
28699.9999998629,21.7310671584316,1.00000000184009,0.628136749220958
28799.9999998614,21.7711124278163,1.00000000176765,0.630782948229073
28899.9999998599,21.8089623323167,1.00000000181531,0.633731983665265
28999.9999998585,21.8406026374829,1.00000000185828,0.644786714972981
