Time,AGPnorm,Energy,Entropy
0,0,1,-7.41135603275476e-17
99.9999999999986,0.000509748005962414,0.999999999998836,0.00186303783158667
199.999999999993,0.00339832244565662,0.999999999998324,0.0055902765621473
300,0.00710553884923071,0.99999999999943,0.0104288021377489
400.000000000022,0.0107471814710384,1.00000000000024,0.0165311790150178
500.000000000045,0.015441986091617,0.999999999999291,0.0239635086771758
600.000000000068,0.0216581648059104,0.999999999998226,0.0324032714196061
700.000000000091,0.0283809086827878,0.999999999998924,0.0416217423148373
800.000000000113,0.0355584104951902,1.0000000000002,0.0517174365926478
900.000000000136,0.0432306565829946,0.999999999999798,0.0628763144396582
1000.00000000016,0.0520325805329748,0.99999999999849,0.0750379791508937
1100.0000000001,0.0609259057843949,0.999999999998391,0.088156014859983
1200,0.0703685979044196,0.999999999999965,0.102425173266748
1299.99999999991,0.0792765854832458,1.00000000000019,0.118134063529618
1399.99999999982,0.0893450360319125,0.999999999999356,0.13552218186597
1499.99999999973,0.0990091087002293,0.999999999998951,0.15489900082984
1599.99999999964,0.1093466993219,1.00000000000275,0.176713883536977
1699.99999999955,0.119482616387702,1.000000000011,0.201735518788087
1799.99999999946,0.129249185469119,1.00000000002785,0.229879135074661
1899.99999999937,0.140461281944238,1.00000000005667,0.260555034434845
1999.99999999928,0.165247139841062,1.00000000011175,0.291705651538981
2099.99999999919,0.217632664016388,1.00000000016947,0.322501870550543
2199.99999999909,0.309337477844555,1.00000000023476,0.351383706416857
2299.999999999,0.479481654902132,1.00000000031382,0.377871328405994
2399.99999999891,0.791674857343773,1.0000000003954,0.401469976149512
2499.99999999882,1.30044467543559,1.00000000043727,0.42277934797771
2599.99999999873,2.04438784063005,1.00000000047591,0.441930100663577
2699.99999999864,3.08454782452735,1.00000000056391,0.45872671128082
2799.99999999855,4.4927131329797,1.0000000006169,0.473431127352711
2899.99999999846,6.30483806327675,1.00000000063342,0.486268001565207
2999.99999999837,8.53212470705804,1.00000000062701,0.497860185389453
3099.99999999828,11.2005363792043,1.00000000069903,0.507709473716202
3199.99999999819,14.3363358820178,1.00000000068906,0.516204111234529
3299.99999999809,17.9251113344102,1.00000000081389,0.522867879697735
3399.999999998,21.9236743241248,1.00000000073669,0.529338015738615
3499.99999999791,26.3174174950488,1.00000000072701,0.534694782313978
3599.99999999782,31.092629523523,1.00000000081073,0.53896717528385
3699.99999999773,36.2041675119293,1.00000000076224,0.542132246908805
3799.99999999764,41.5780484023505,1.0000000007714,0.544860424759018
3899.99999999755,47.1714144452303,1.0000000007676,0.54740697782742
3999.99999999746,52.9586348170883,1.00000000073412,0.549559381506561
4099.99999999738,58.8930778842619,1.00000000073092,0.549552269879773
4199.99999999775,64.9040968965624,1.00000000070178,0.550883669060727
4299.99999999811,70.9292653347294,1.00000000069655,0.551426379798424
4399.99999999848,76.9501604548192,1.00000000068885,0.55107052934733
4499.99999999884,82.9375087550821,1.00000000067764,0.550280318205812
4599.9999999992,88.8351549461902,1.00000000068146,0.549428655784534
4699.99999999957,94.5929077886646,1.00000000066468,0.549710512895621
4799.99999999993,100.188994015062,1.00000000066628,0.547768574838603
4900.00000000029,105.614714653962,1.00000000064273,0.546780124497488
5000.00000000066,110.837697248793,1.00000000063001,0.545717425410981
5100.00000000102,115.826358491208,1.00000000058757,0.543881786577277
5200.00000000139,120.558386817474,1.00000000059741,0.543262540882709
5300.00000000175,125.037253305492,1.00000000059354,0.542019650542046
5400.00000000211,129.256445257479,1.00000000057125,0.540272175882589
5500.00000000248,133.200570147328,1.00000000056285,0.5378093177991
5600.00000000284,136.856284214097,1.00000000056156,0.537905793342506
5700.00000000321,140.222970910496,1.00000000052761,0.536264295681745
5800.00000000357,143.307599973758,1.00000000050979,0.532610108646037
5900.00000000393,146.109037241586,1.00000000051132,0.53149261157415
6000.0000000043,148.62572917558,1.00000000050865,0.534040457103064
6100.00000000466,150.860878291947,1.00000000049632,0.530747528664921
6200.00000000502,152.817712559745,1.00000000045436,0.523137869711022
6300.00000000539,154.504532030351,1.00000000045993,0.524209992910398
6400.00000000575,155.938577672134,1.00000000045259,0.534245132085697
6500.00000000612,157.138765609606,1.00000000045292,0.532272106958685
6600.00000000648,158.094750241602,1.00000000041715,0.515616560202874
6700.00000000684,158.794352989821,1.00000000037847,0.509552075741965
6800.00000000721,159.270202533049,1.00000000043638,0.529422145306753
6900.00000000757,159.583529745252,1.00000000046451,0.54413697510643
7000.00000000793,159.748890813274,1.00000000043944,0.528634918961428
7100.0000000083,159.718061352987,1.00000000035611,0.496243938437341
7200.00000000866,159.464037389421,1.00000000032617,0.494831642285206
7300.00000000903,159.049379997533,1.00000000042595,0.531919141690833
7400.00000000939,158.568108020071,1.00000000053091,0.555563302264292
7500.00000000975,158.043462985302,1.00000000047821,0.540083145173256
7600.00000001012,157.409617840764,1.00000000032374,0.490466023539714
7700.00000001048,156.595488825295,1.00000000024768,0.459560925134899
7800.00000001084,155.628655943863,1.00000000033276,0.49827074572165
7900.00000001121,154.61274750761,1.00000000052802,0.548655307487075
8000.00000001157,153.625478915872,1.00000000060529,0.563473633411868
8100.00000001194,152.66335026248,1.00000000049748,0.537610731774363
8200.0000000123,151.646082271926,1.0000000003269,0.471306155024787
8300.00000001266,150.497553116289,1.00000000019261,0.422239029460956
8400.00000001303,149.230253189477,1.00000000028066,0.458327247041958
8500.00000001339,147.929615771325,1.00000000046215,0.526028436794489
8600.00000001376,146.674908351697,1.00000000064087,0.559930947207672
8700.00000001412,145.492239211488,1.00000000066419,0.561389146384894
8800.00000001448,144.348497819298,1.00000000052825,0.521429203659852
8900.00000001485,143.173811925266,1.00000000031487,0.441164911421875
9000.00000001521,141.914269150196,1.00000000018832,0.383357274637704
9100.00000001557,140.581381427908,1.00000000025019,0.410603454112525
9200.00000001594,139.228283447135,1.00000000047228,0.488584428317575
9300.0000000163,137.906683297408,1.00000000057485,0.540697298650771
9400.00000001667,136.648008403142,1.00000000063411,0.555202430408785
9500.00000001703,135.454608132668,1.00000000059462,0.547894310483097
9600.00000001739,134.298881027689,1.00000000048218,0.51111227622013
9700.00000001776,133.135623438036,1.00000000033055,0.436487284236991
9800.00000001812,131.931955875405,1.00000000020574,0.369899110201856
9900.00000001848,130.689379136611,1.00000000021298,0.366170056285921
10000.0000000188,129.434314644386,1.00000000031568,0.423645600982737
10100.0000000192,128.192416041655,1.00000000048896,0.492572792433437
10200.0000000196,126.980888911969,1.00000000058883,0.530038362463428
10300.0000000199,125.811835098164,1.00000000063332,0.541531531268898
10400.0000000203,124.687841163942,1.0000000005994,0.540759833457727
10500.0000000207,123.598295927696,1.00000000052559,0.521540828171005
10600.000000021,122.523620874204,1.00000000041897,0.477351659821728
10700.0000000214,121.446424094406,1.00000000032239,0.420041909934559
10800.0000000218,120.362647276888,1.00000000024795,0.375374564221694
10900.0000000221,119.280779200435,1.00000000024406,0.373580658055724
11000.0000000225,118.211149460142,1.00000000029854,0.406527523305155
11100.0000000229,117.158062280592,1.00000000038817,0.45865540200493
11200.0000000232,116.12156276309,1.00000000050389,0.502254427725008
11300.0000000236,115.102174372772,1.00000000053219,0.516804426566719
11400.0000000239,114.101630668969,1.00000000055496,0.520265251067338
11500.0000000243,113.121863116269,1.00000000055961,0.530308017242363
11600.0000000247,112.163130524233,1.00000000055854,0.534452336750938
11700.000000025,111.221934728875,1.00000000047233,0.509085539856373
11800.0000000254,110.293569493013,1.00000000034833,0.462719352628664
11900.0000000258,109.378096789306,1.00000000028003,0.419747507572169
12000.0000000261,108.481261466819,1.00000000029103,0.395016299001671
12100.0000000265,107.609356706513,1.00000000032074,0.391789546599412
12200.0000000269,106.764355752376,1.00000000034355,0.416714093710151
12300.0000000272,105.942842162394,1.00000000039696,0.444505908194488
12400.0000000276,105.138493573876,1.0000000004406,0.470038341120495
12500.0000000279,104.345942153081,1.00000000043066,0.496509060344442
12600.0000000283,103.564018444998,1.0000000004112,0.503706298204908
12700.0000000287,102.79244008892,1.00000000044455,0.49657424369702
12800.000000029,102.027289600884,1.00000000051974,0.501661772659455
12900.0000000294,101.263905007328,1.00000000056439,0.519556721493636
13000.0000000298,100.502655591424,1.00000000057541,0.537842637129841
13100.0000000301,99.7482936615143,1.00000000054293,0.533925816182878
13200.0000000305,99.0060649885427,1.00000000041271,0.50200158954717
13300.0000000309,98.2830824431204,1.00000000030023,0.454877967269054
13400.0000000312,97.5893099836308,1.00000000023794,0.416674431638302
13500.0000000316,96.9314444458238,1.00000000025064,0.397117235611873
13600.0000000319,96.3079385924786,1.00000000034358,0.40119534735011
13700.0000000323,95.711942366182,1.00000000041141,0.417152170189883
13800.0000000327,95.1363430891304,1.00000000045119,0.444895880045308
13900.000000033,94.573868476598,1.00000000045524,0.468936832280499
14000.0000000334,94.0189585087272,1.00000000046025,0.482233188680797
14100.0000000338,93.4685376339347,1.00000000044985,0.491869512568101
14200.0000000341,92.9244741257094,1.00000000041102,0.497807736580104
14300.0000000345,92.3908847956793,1.00000000038583,0.496290458912324
14400.0000000349,91.8701765794044,1.0000000003602,0.490697195657057
14500.0000000352,91.3564999937079,1.00000000041156,0.48893459847479
14600.0000000356,90.8387857676089,1.00000000050067,0.499240491353225
14700.0000000359,90.3079556031221,1.0000000005829,0.514264050833531
14800.0000000363,89.7633420876318,1.00000000059082,0.529474652157857
14900.0000000367,89.2115347945042,1.00000000054742,0.537225819806685
15000.000000037,88.6620131414531,1.00000000049092,0.526052685292326
15100.0000000374,88.1235616876903,1.00000000040947,0.498332393315601
15200.0000000378,87.6069601041681,1.0000000003066,0.461075993814598
15300.0000000381,87.1230056077684,1.0000000002899,0.433154758473275
15400.0000000385,86.6803328528636,1.00000000026201,0.415232475012029
15500.0000000389,86.2795692803193,1.00000000029827,0.40631889878163
15600.0000000392,85.9136984025223,1.00000000035513,0.411726699897599
15700.0000000396,85.5702061464248,1.00000000042242,0.433881492952818
15800.0000000399,85.2382607558212,1.00000000044678,0.455863066507512
15900.0000000403,84.9131868404711,1.00000000044384,0.469297263720664
16000.0000000407,84.5928340076611,1.00000000042569,0.479623822143352
16100.000000041,84.2763031283181,1.00000000043147,0.486322372316461
16200.0000000414,83.9599949276896,1.0000000004492,0.49494777575637
16300.0000000418,83.6415651615853,1.00000000045367,0.507366527545987
16400.0000000418,83.3183390141327,1.00000000045443,0.516974191181129
16500.0000000404,82.993000399313,1.00000000041827,0.522963642760164
16600.0000000389,82.6693992697779,1.00000000038062,0.525044446728819
16700.0000000375,82.3511793048663,1.000000000364,0.51969123390848
16800.000000036,82.0363531131208,1.00000000039508,0.512547816793955
16900.0000000346,81.7210079109125,1.00000000041372,0.50365796358599
17000.0000000331,81.400032904595,1.00000000045085,0.496543703430193
17100.0000000317,81.0691421111031,1.00000000049185,0.502842739690505
17200.0000000302,80.7247901455202,1.00000000055397,0.517605028520376
17300.0000000287,80.3659576784623,1.00000000053705,0.535318394195033
17400.0000000273,79.9969561660878,1.00000000053197,0.543927275483138
17500.0000000258,79.6259489397485,1.00000000046241,0.537351629685452
17600.0000000244,79.2637422340173,1.00000000040175,0.514461221360364
17700.0000000229,78.9232398891094,1.00000000030593,0.484895800573474
17800.0000000215,78.6154655787234,1.0000000002649,0.455768558989896
17900.00000002,78.3464739716268,1.00000000027437,0.438726109050856
18000.0000000186,78.1168004393224,1.00000000030784,0.431864030366227
18100.0000000171,77.922712226683,1.00000000035177,0.4313166433168
18200.0000000156,77.7582007406932,1.00000000036391,0.434685386156415
18300.0000000142,77.6141901741254,1.00000000040576,0.438612057705784
18400.0000000127,77.4816300773606,1.00000000044755,0.448654740219227
18500.0000000113,77.3509888597117,1.00000000047798,0.465577288021212
18600.0000000098,77.2175476635958,1.00000000046766,0.48349352195229
18700.0000000084,77.0836982057013,1.00000000042698,0.491018041422626
18800.0000000069,76.9561698222823,1.00000000038029,0.491883555319203
18900.0000000055,76.8426316923076,1.00000000035796,0.489717761170914
19000.000000004,76.7441266778355,1.00000000035234,0.489858387845534
19100.0000000026,76.6529670583144,1.00000000041648,0.499050102130966
19200.0000000011,76.5573488282471,1.00000000047273,0.513082786194037
19299.9999999996,76.4449291749422,1.00000000049508,0.523582351030529
19399.9999999982,76.3075334581136,1.00000000051821,0.530173994316285
19499.9999999967,76.1445251012115,1.00000000052034,0.533287514819693
19599.9999999953,75.9606249665461,1.00000000048158,0.536289134602174
19699.9999999938,75.7635188405964,1.00000000044002,0.54168865163127
19799.9999999924,75.5624841620345,1.0000000004074,0.542004579201303
19899.9999999909,75.3642377441297,1.00000000036248,0.530647373019088
19999.9999999895,75.1729685039799,1.00000000033745,0.518663449445888
20099.999999988,74.9906512473925,1.00000000034214,0.513201909851888
20199.9999999865,74.8145901692481,1.00000000037783,0.510710809992574
20299.9999999851,74.6382695267453,1.00000000042151,0.50852684435468
20399.9999999836,74.4556597764284,1.0000000004645,0.508734909027884
20499.9999999822,74.2623418003676,1.0000000005207,0.514570067874106
20599.9999999807,74.0554561076982,1.00000000053326,0.521866370731344
20699.9999999793,73.8333757096245,1.00000000052641,0.531262418443784
20799.9999999778,73.596962856315,1.00000000056398,0.541245661448554
20899.9999999764,73.35186771943,1.00000000050689,0.547483334302335
20999.9999999749,73.1056453889935,1.00000000045567,0.543199529414529
21099.9999999734,72.8673631032803,1.00000000041054,0.530232142421181
21199.999999972,72.6466114854076,1.00000000036212,0.508702367209379
21299.9999999705,72.4515802815849,1.00000000033336,0.485016061651683
21399.9999999691,72.2886806732043,1.00000000029842,0.467733655627748
21499.9999999676,72.1609941772775,1.00000000028784,0.452826146667874
21599.9999999662,72.0693866181354,1.00000000031153,0.44781031508406
21699.9999999647,72.0114615220712,1.00000000033584,0.446551626550688
21799.9999999633,71.9820284966974,1.00000000036444,0.444029448412296
21899.9999999618,71.9733214248364,1.00000000039222,0.443047517447127
21999.9999999603,71.9752377734885,1.00000000043745,0.447623685643079
22099.9999999589,71.9810021161617,1.00000000044819,0.454988888591716
22199.9999999574,71.9894455251164,1.00000000041344,0.457806041277792
22299.999999956,72.0031534879082,1.00000000040868,0.457694854075709
22399.9999999545,72.024421309518,1.00000000040232,0.463759224330378
22499.9999999531,72.0520280346617,1.0000000003886,0.478063788231674
22599.9999999516,72.0819379364871,1.00000000043017,0.491600148799216
22699.9999999502,72.1095995268952,1.00000000043073,0.502083954714176
22799.9999999487,72.1305888893152,1.00000000046399,0.513105328299142
22899.9999999473,72.1429443731484,1.00000000046092,0.526327166426858
22999.9999999458,72.1484406109955,1.00000000043653,0.53624033199479
23099.9999999443,72.1507091205679,1.0000000004212,0.538575541775382
23199.9999999429,72.1518747417399,1.00000000040995,0.538214234958585
23299.9999999414,72.1516226433181,1.00000000042477,0.538994116387854
23399.99999994,72.1484433480817,1.00000000041133,0.542207622606007
23499.9999999385,72.139787752426,1.00000000042389,0.54541421840645
23599.9999999371,72.1228093535775,1.00000000042482,0.545452768977159
23699.9999999356,72.0950070461476,1.00000000045793,0.543480255567212
23799.9999999342,72.054831381703,1.00000000045475,0.541243544566241
23899.9999999327,72.0009112104116,1.00000000047547,0.538028063138469
23999.9999999312,71.9311560646141,1.00000000047892,0.53612020770357
24099.9999999298,71.8448888675407,1.00000000049502,0.531652913507366
24199.9999999283,71.7440850058125,1.00000000051963,0.530338387764663
24299.9999999269,71.6319732152518,1.00000000049759,0.535822227053413
24399.9999999254,71.511627508577,1.000000000468,0.54193270255658
24499.999999924,71.3859635962104,1.00000000044606,0.546107446213672
24599.9999999225,71.2569462252337,1.00000000041584,0.548721474344078
24699.9999999211,71.1267170873088,1.0000000004066,0.549762199914743
24799.9999999196,70.9978934235531,1.00000000040352,0.547419981809918
24899.9999999181,70.8728890677893,1.00000000037179,0.543931189250188
24999.9999999167,70.7531997155797,1.00000000037351,0.544561520726162
25099.9999999152,70.6378832565131,1.00000000037206,0.545034628363848
25199.9999999138,70.5247239360176,1.00000000039008,0.543765142033968
25299.9999999123,70.4116215887131,1.00000000041101,0.542379009759573
25399.9999999109,70.2956075478684,1.00000000043756,0.543221654689497
25499.9999999094,70.1745455784769,1.00000000046021,0.543332219212361
25599.999999908,70.0464440511327,1.00000000047631,0.539802408661742
25699.9999999065,69.9096796700252,1.00000000051063,0.534623951868444
25799.9999999051,69.7636658226841,1.00000000053204,0.531827715902525
25899.9999999036,69.6077404169243,1.0000000005661,0.534859776637358
25999.9999999021,69.4418524647739,1.00000000053502,0.540269195551112
26099.9999999007,69.2681232952068,1.00000000052833,0.545280595431298
26199.9999998992,69.0909189580695,1.0000000004898,0.546777620134498
26299.9999998978,68.9164095386966,1.00000000043752,0.543760625277777
26399.9999998963,68.7510522234279,1.00000000039825,0.534245357673575
26499.9999998949,68.6013193160214,1.0000000003527,0.51951811227382
26599.9999998934,68.4725736086759,1.00000000032584,0.50449455418725
26699.999999892,68.3692434978163,1.00000000030931,0.493839517321122
26799.9999998905,68.2946994558553,1.00000000030869,0.482473604733233
26899.999999889,68.2508423219633,1.00000000029733,0.474120015059951
26999.9999998876,68.2376201692368,1.00000000034637,0.46672628441011
27099.9999998861,68.25290472371,1.00000000032314,0.460538717029026
27199.9999998847,68.2928262340065,1.00000000037935,0.458171777591626
27299.9999998832,68.3511400299902,1.0000000003836,0.459782637595896
27399.9999998818,68.4212007547971,1.00000000044356,0.465394795186193
27499.9999998803,68.4988500256548,1.00000000042456,0.470830706526022
27599.9999998789,68.5824710900986,1.00000000042806,0.472542262925213
27699.9999998774,68.6729304456697,1.00000000041387,0.468874353519371
27799.9999998759,68.7699661492861,1.00000000041228,0.467524195563105
27899.9999998745,68.8708912787281,1.00000000040734,0.472772685215352
27999.999999873,68.9735994439315,1.00000000042318,0.480526457663005
28099.9999998716,69.0785230724936,1.00000000040896,0.487574701047183
28199.9999998701,69.1862663923642,1.00000000041606,0.496360295701925
28299.9999998687,69.2971300523348,1.00000000045174,0.5053056971102
28399.9999998672,69.4086947140432,1.00000000044286,0.513041649950021
28499.9999998658,69.5184975519446,1.00000000043884,0.520795919794039
28599.9999998643,69.6240974337652,1.00000000043495,0.528992419395621
28699.9999998629,69.7240022858576,1.00000000045407,0.536299654099773
28799.9999998614,69.8176246710414,1.00000000045228,0.542894997540074
28899.9999998599,69.9042687415772,1.00000000042491,0.549102703195241
28999.9999998585,69.9827277858374,1.00000000040252,0.554500058245764
