Time,AGPnorm,Energy,Entropy
0,0,1,-1.29338345091527e-17
99.9999999999986,9.98227852290388e-06,1.00000000000185,0.000472080426656918
199.999999999993,0.000872063034928652,0.999999999998922,0.000753439228594433
300,0.00215799306983945,1.00000000000159,0.00135688965667765
400.000000000022,0.00300034706851139,1.00000000000044,0.0023083641168256
500.000000000045,0.00372139583084296,0.999999999999507,0.0031424727764439
600.000000000068,0.00529845978813099,1.00000000000208,0.00439675313272392
700.000000000091,0.0065618042833406,0.999999999999058,0.00564911499647127
800.000000000113,0.00846427369762285,1.00000000000116,0.00702274457198804
900.000000000136,0.0106745778550065,1.00000000000098,0.00861708608198899
1000.00000000016,0.0124999260762813,0.999999999999104,0.0101906279065949
1100.0000000001,0.0149009122163982,1.00000000000213,0.011988384627901
1200,0.0175113413910744,0.999999999999385,0.0138352870885835
1299.99999999991,0.0203866919697681,1.00000000000063,0.0157765863665491
1399.99999999982,0.0235234914918672,1.00000000000147,0.0178514910389769
1499.99999999973,0.0264681927672755,0.999999999998853,0.019965185401385
1599.99999999964,0.0298112137342437,1.00000000000199,0.022224912863219
1699.99999999955,0.0335019533532361,0.99999999999986,0.0245354578892673
1799.99999999946,0.0372503433982337,1.00000000000007,0.0269591472218718
1899.99999999937,0.0411503001648214,1.00000000000184,0.0294551653283853
1999.99999999928,0.0451312178678617,0.999999999998799,0.0320187363086371
2099.99999999919,0.0494034225491533,1.0000000000017,0.0347127598938079
2199.99999999909,0.0539894045697073,1.00000000000042,0.0374374011367195
2299.999999999,0.0584794062471877,0.999999999999541,0.0403009665067885
2399.99999999891,0.0630083490609931,1.00000000000206,0.0432103189498022
2499.99999999882,0.0678636693877104,0.999999999998965,0.0461909310847905
2599.99999999873,0.0729496817696905,1.00000000000126,0.0493252728782599
2699.99999999864,0.0782223676602798,1.00000000000096,0.0524626954730452
2799.99999999855,0.0833627581226026,0.999999999999112,0.0557561396392461
2899.99999999846,0.0884477723762021,1.00000000000211,0.0591062773145655
2999.99999999837,0.0939871591295168,0.999999999999334,0.0625159014296296
3099.99999999828,0.0996782439843884,1.00000000000073,0.0661229012905857
3199.99999999819,0.10539439556849,1.00000000000143,0.0697141227804853
3299.99999999809,0.111086597153239,0.999999999998837,0.0734689027397109
3399.999999998,0.116691619886553,1.00000000000198,0.0773211076506009
3499.99999999791,0.122748012727137,0.999999999999844,0.0812246542468275
3599.99999999782,0.128818250192553,1.00000000000019,0.085365766987297
3699.99999999773,0.134766497253707,1.00000000000177,0.0895008742540671
3799.99999999764,0.140853493133551,0.999999999998775,0.0938060387240239
3899.99999999755,0.146919871584767,1.00000000000168,0.0982779387289526
3999.99999999746,0.153304188981787,1.00000000000041,0.102801086192986
4099.99999999738,0.159579240160501,0.999999999999695,0.107605307592211
4199.99999999775,0.165626156754729,1.00000000000197,0.112455811915441
4299.99999999811,0.171926817453355,0.999999999998995,0.11748943960589
4399.99999999848,0.178306238589735,1.00000000000127,0.122806448073431
4499.99999999884,0.184796824747801,1.00000000000096,0.128205353498248
4599.9999999992,0.191135982317517,0.999999999999343,0.133950027001273
4699.99999999957,0.197241585458666,1.00000000000215,0.139861623693548
4799.99999999993,0.20361666485222,0.999999999999581,0.146024158514623
4900.00000000029,0.210129878527955,1.00000000000119,0.15263067090257
5000.00000000066,0.216561698454794,1.00000000000202,0.159438410561767
5100.00000000102,0.222769413845837,1.00000000000009,0.166700564892461
5200.00000000139,0.229153985212145,1.00000000000383,0.174316359477392
5300.00000000175,0.235460682799889,1.000000000003,0.18226187769676
5400.00000000211,0.242167963079967,1.00000000000512,0.190760104351094
5500.00000000248,0.249103749166108,1.00000000000857,0.199486297417077
5600.00000000284,0.255326285093303,1.00000000000872,0.208571970555058
5700.00000000321,0.263786967752563,1.00000000001517,0.217975176800014
5800.00000000357,0.272051658648737,1.00000000001887,0.227447156695403
5900.00000000393,0.282261761904982,1.00000000002306,0.237210633768233
6000.0000000043,0.296470349424849,1.00000000003208,0.246868441247895
6100.00000000466,0.311438560901919,1.00000000003548,0.256544338360623
6200.00000000502,0.335693057469763,1.00000000004781,0.266244068016367
6300.00000000539,0.366126358427761,1.00000000005247,0.275730807275423
6400.00000000575,0.406598466838672,1.00000000006207,0.28521081125784
6500.00000000612,0.464887771730899,1.00000000007554,0.294393215930866
6600.00000000648,0.537078620958318,1.00000000008531,0.303384360296977
6700.00000000684,0.636834680485027,1.00000000009238,0.312391159819622
6800.00000000721,0.76499137416051,1.00000000010455,0.320979601284311
6900.00000000757,0.926945274079839,1.00000000011175,0.329542952900452
7000.00000000793,1.13541593050946,1.00000000012066,0.337887799480174
7100.0000000083,1.39056658524758,1.00000000013138,0.345881470902343
7200.00000000866,1.70742206683476,1.00000000013769,0.35395260340584
7300.00000000903,2.09185105347611,1.0000000001519,0.361533399917887
7400.00000000939,2.55260634751187,1.00000000015704,0.369090229091404
7500.00000000975,3.10152458573937,1.00000000017206,0.37644387017997
7600.00000001012,3.74581857017652,1.00000000017144,0.3834677325773
7700.00000001048,4.49959101561872,1.00000000018773,0.390489900800833
7800.00000001084,5.36826077280195,1.00000000020853,0.397069489714496
7900.00000001121,6.3676221296037,1.00000000020764,0.403578250420271
8000.00000001157,7.50239479456559,1.00000000022714,0.409954091667511
8100.00000001194,8.78477950037593,1.00000000022521,0.415985878865009
8200.0000000123,10.2299700185907,1.00000000023396,0.422006782291822
8300.00000001266,11.8340243534692,1.00000000023599,0.427771921142543
8400.00000001303,13.6222596101543,1.00000000024449,0.43318994454337
8500.00000001339,15.5910393963206,1.00000000024378,0.438754352112154
8600.00000001376,17.7496493792382,1.00000000025418,0.443810035095215
8700.00000001412,20.1201033299058,1.00000000026026,0.448835469801588
8800.00000001448,22.6823583130847,1.00000000027576,0.453749803641089
8900.00000001485,25.4689467546157,1.00000000026406,0.458336133709778
9000.00000001521,28.4728261407404,1.0000000002757,0.463006776695935
9100.00000001557,31.6902114966912,1.00000000028573,0.467231614983291
9200.00000001594,35.1550567810225,1.00000000028413,0.471420075885656
9300.0000000163,38.8310155179627,1.00000000028961,0.475559608114779
9400.00000001667,42.7501095439274,1.00000000029531,0.479312743552945
9500.00000001703,46.9111241568728,1.00000000030239,0.483121780952077
9600.00000001739,51.2892333061352,1.00000000030589,0.486731090832072
9700.00000001776,55.9307054866071,1.00000000030296,0.490063274130621
9800.00000001812,60.7899177725295,1.00000000031245,0.493501680509241
9900.00000001848,65.8875692958279,1.00000000031006,0.496602587664701
10000.0000000188,71.2370542485599,1.0000000003123,0.499642342764886
10100.0000000192,76.7906794430013,1.00000000030909,0.502747613720471
10200.0000000196,82.6015869492879,1.00000000031656,0.505340686202084
10300.0000000199,88.6258351174458,1.00000000031432,0.508212238735771
10400.0000000203,94.8638414753004,1.00000000031862,0.510698739213559
10500.0000000207,101.348066224894,1.00000000032615,0.512983149923363
10600.000000021,108.011995800603,1.00000000031699,0.515566884969072
10700.0000000214,114.907083099392,1.00000000032729,0.517611696707548
10800.0000000218,122.002073149635,1.0000000003173,0.51985853714198
10900.0000000221,129.272776922581,1.00000000032021,0.521882401408004
11000.0000000225,136.767954391574,1.00000000032029,0.523749533249312
11100.0000000229,144.413564285014,1.00000000032817,0.525634618239314
11200.0000000232,152.248123193895,1.00000000032321,0.527340592706456
11300.0000000236,160.261768985215,1.00000000032448,0.529068957169816
11400.0000000239,168.406001831451,1.00000000033195,0.530656396599816
11500.0000000243,176.738854447274,1.00000000032232,0.532021511952513
11600.0000000247,185.191489754292,1.00000000033093,0.533582908865937
11700.000000025,193.781250613512,1.0000000003199,0.534830731644661
11800.0000000254,202.520791895664,1.00000000032487,0.536042637667617
11900.0000000258,211.345575008045,1.00000000032923,0.537400159996588
12000.0000000261,220.313134035084,1.00000000031823,0.538202468037837
12100.0000000265,229.368951238,1.00000000031499,0.539654069861719
12200.0000000269,238.507475119319,1.00000000031066,0.540527870567266
12300.0000000272,247.762264088539,1.00000000032498,0.541050624031979
12400.0000000276,257.0584213935,1.0000000003166,0.542425402452828
12500.0000000279,266.447165842759,1.00000000029484,0.542972766880714
12600.0000000283,275.893175176656,1.00000000032011,0.543549418325233
12700.0000000287,285.369769525311,1.00000000031648,0.54451463910704
12800.000000029,294.924077546497,1.00000000029834,0.544771696955659
12900.0000000294,304.48150439691,1.00000000030464,0.545634070175901
13000.0000000298,314.079647106563,1.00000000031436,0.546212097262805
13100.0000000301,323.707042214481,1.00000000030755,0.546343760470307
13200.0000000305,333.317112809924,1.00000000031282,0.546920778862684
13300.0000000309,342.964760735931,1.00000000029495,0.547270266069817
13400.0000000312,352.585563414585,1.00000000031393,0.547551143309171
13500.0000000316,362.196368213245,1.0000000003008,0.548107626177911
13600.0000000319,371.807371778987,1.00000000030159,0.548006350639877
13700.0000000323,381.362992337906,1.00000000029021,0.548439347376764
13800.0000000327,390.913730881831,1.0000000002956,0.548621213514271
13900.000000033,400.413759857174,1.00000000029385,0.548840562331258
14000.0000000334,409.859902255536,1.00000000028731,0.548888930874714
14100.0000000338,419.278893903182,1.00000000029148,0.548573707369018
14200.0000000341,428.61120694525,1.00000000028825,0.549074290985151
14300.0000000345,437.900982477858,1.00000000028924,0.549162107085753
14400.0000000349,447.11882874005,1.00000000028308,0.54906637262265
14500.0000000352,456.246090087738,1.00000000028058,0.549190405985199
14600.0000000356,465.319691784528,1.00000000027651,0.548913939206165
14700.0000000359,474.284212408172,1.00000000027629,0.549045786615133
14800.0000000363,483.170885072094,1.00000000028023,0.548974696384894
14900.0000000367,491.968440868126,1.00000000028002,0.548817227480824
15000.000000037,500.647996821994,1.00000000027315,0.54897516499587
15100.0000000374,509.249218018878,1.00000000027112,0.548593013003116
15200.0000000378,517.725785047446,1.00000000027628,0.548382036703863
15300.0000000381,526.095539013361,1.00000000026149,0.548242510723623
15400.0000000385,534.361652685273,1.00000000026083,0.548170912184881
15500.0000000389,542.490687837877,1.00000000026375,0.548376766712737
15600.0000000392,550.518887919579,1.00000000025781,0.547773799328601
15700.0000000396,558.411957418101,1.00000000025976,0.547721588087125
15800.0000000399,566.175963983609,1.00000000026153,0.54747157025946
15900.0000000403,573.825228103442,1.00000000024993,0.547201719779107
16000.0000000407,581.322969665538,1.00000000024925,0.54728905765821
16100.000000041,588.702282299748,1.0000000002497,0.547019985421727
16200.0000000414,595.942213023901,1.00000000024859,0.547105737047965
16300.0000000418,603.035147009517,1.00000000024728,0.546278275825916
16400.0000000418,610.006369789314,1.00000000025197,0.5463703437551
16500.0000000404,616.818429604126,1.0000000002434,0.54579860075085
16600.0000000389,623.502203529564,1.00000000024548,0.546142194170726
16700.0000000375,630.04050977834,1.00000000023487,0.545029459002779
16800.000000036,636.424932554107,1.00000000023828,0.545900346701377
16900.0000000346,642.679123753126,1.00000000023308,0.544742351166403
17000.0000000331,648.774560495903,1.0000000002383,0.544960586512303
17100.0000000317,654.72831657839,1.00000000022985,0.543922383380001
17200.0000000302,660.538065125801,1.00000000023023,0.544100004343452
17300.0000000287,666.187857253246,1.00000000022425,0.543857472309917
17400.0000000273,671.702927349988,1.00000000022352,0.543483169347361
17500.0000000258,677.058715588508,1.00000000022817,0.543306083671092
17600.0000000244,682.266106881856,1.00000000022427,0.542983428564575
17700.0000000229,687.331345386255,1.00000000022066,0.542553844614997
17800.0000000215,692.234546912792,1.00000000021782,0.541896051398838
17900.00000002,697.000410309145,1.00000000022157,0.541513781818171
18000.0000000186,701.609895892213,1.00000000022197,0.54132118454751
18100.0000000171,706.069061040455,1.00000000021414,0.541783298888439
18200.0000000156,710.388928361207,1.00000000021713,0.541252535977692
18300.0000000142,714.548982861729,1.00000000020816,0.541137322327396
18400.0000000127,718.57141699193,1.00000000020973,0.540099521724395
18500.0000000113,722.4427637904,1.00000000020852,0.539396145439163
18600.0000000098,726.16433748837,1.00000000020516,0.539109733844464
18700.0000000084,729.749259314998,1.00000000019986,0.538840193318391
18800.0000000069,733.180170840999,1.00000000020212,0.539668654613334
18900.0000000055,736.475594693231,1.00000000020163,0.539892453114769
19000.000000004,739.629509270968,1.00000000020282,0.539953824007173
19100.0000000026,742.638093144827,1.00000000019662,0.538816248528286
19200.0000000011,745.515123777959,1.00000000020666,0.536962155063529
19299.9999999996,748.244584509136,1.0000000001953,0.535893471997363
19399.9999999982,750.838577475271,1.00000000019095,0.535443494968555
19499.9999999967,753.297563362113,1.0000000001849,0.536680870537315
19599.9999999953,755.615397868178,1.00000000019033,0.538391096507219
19699.9999999938,757.811447087815,1.00000000019273,0.540067219502384
19799.9999999924,759.874610792895,1.00000000019291,0.539960228657991
19899.9999999909,761.813876741421,1.00000000019034,0.538114863313011
19999.9999999895,763.630169293815,1.00000000018941,0.534587318581932
20099.999999988,765.310111485455,1.0000000001824,0.531631341691358
20199.9999999865,766.866908142399,1.00000000017821,0.53047218636096
20299.9999999851,768.29017903133,1.00000000017588,0.532019304654712
20399.9999999836,769.589201758645,1.00000000017678,0.536518997660098
20499.9999999822,770.777372340132,1.00000000018103,0.540509477296881
20599.9999999807,771.851828821257,1.00000000018183,0.542959468129331
20699.9999999793,772.830119597145,1.0000000001873,0.541780479445647
20799.9999999778,773.702809527922,1.00000000018078,0.53674300964534
20899.9999999764,774.464737085674,1.00000000017655,0.530447552553023
20999.9999999749,775.114674895865,1.00000000015729,0.524356693549803
21099.9999999734,775.636923781507,1.00000000015842,0.523378856216119
21199.999999972,776.045040558807,1.0000000001606,0.527503513226398
21299.9999999705,776.343482590737,1.00000000016406,0.534986334689243
21399.9999999691,776.54738094408,1.0000000001886,0.543140523051117
21499.9999999676,776.677443560145,1.00000000019125,0.547203858234227
21599.9999999662,776.733483737843,1.00000000019448,0.546823911512176
21699.9999999647,776.721803545427,1.00000000018386,0.540191775315497
21799.9999999633,776.629147805734,1.00000000017412,0.529394685774185
21899.9999999618,776.438213103714,1.00000000015356,0.518886712813747
21999.9999999603,776.144305094849,1.00000000013995,0.512320496334502
22099.9999999589,775.736204874582,1.00000000014358,0.51449185613988
22199.9999999574,775.231206937452,1.00000000015307,0.524645767182573
22299.999999956,774.646557528106,1.00000000017121,0.537296081912951
22399.9999999545,774.001526113888,1.00000000019233,0.548441069632823
22499.9999999531,773.320311159993,1.00000000020416,0.553171195434292
22599.9999999516,772.603240512147,1.00000000020363,0.550930674684624
22699.9999999502,771.849255077269,1.0000000001972,0.540957476304246
22799.9999999487,771.042124010718,1.00000000017011,0.525165436198173
22899.9999999473,770.156587612711,1.00000000014622,0.508733987602848
22999.9999999458,769.182158391347,1.00000000013021,0.497443836886423
23099.9999999443,768.107396492334,1.00000000012598,0.497680579208753
23199.9999999429,766.945416782148,1.00000000013558,0.510526833838533
23299.9999999414,765.718584624731,1.00000000016121,0.528929295970503
23399.99999994,764.449153362521,1.00000000019433,0.545595549889816
23499.9999999385,763.165393181004,1.00000000021916,0.555694117111912
23599.9999999371,761.876593509642,1.0000000002294,0.557941097604318
23699.9999999356,760.584513517849,1.00000000022063,0.551556146647224
23799.9999999342,759.279238387874,1.00000000019696,0.536280498096123
23899.9999999327,757.934345588904,1.000000000166,0.514927580453581
23999.9999999312,756.5308876018,1.00000000013383,0.492715988082129
24099.9999999298,755.046840348592,1.00000000010793,0.478100712942442
24199.9999999283,753.477634689202,1.00000000010624,0.479074909263702
24299.9999999269,751.83705771583,1.00000000012465,0.495662256406343
24399.9999999254,750.143095238385,1.00000000016215,0.519960481528123
24499.999999924,748.427454845612,1.00000000020526,0.542252700286482
24599.9999999225,746.71249760999,1.00000000022596,0.556568896824858
24699.9999999211,745.012070609231,1.00000000024602,0.562256004006172
24799.9999999196,743.334906161559,1.00000000024055,0.559787548126635
24899.9999999181,741.669684428712,1.00000000022671,0.547733992342971
24999.9999999167,740.001550091057,1.0000000001931,0.527332741301475
25099.9999999152,738.30611744523,1.00000000016189,0.500242553118026
25199.9999999138,736.557921608667,1.0000000001183,0.473845011216625
25299.9999999123,734.744982634626,1.00000000009278,0.458063858459264
25399.9999999109,732.86032871581,1.00000000009161,0.46053465578403
25499.9999999094,730.919217363178,1.00000000011634,0.481310309977341
25599.999999908,728.942125192784,1.00000000016223,0.510810963355535
25699.9999999065,726.952566214247,1.00000000020079,0.537316721509959
25799.9999999051,724.975690978946,1.00000000023486,0.554992226629842
25899.9999999036,723.024533265484,1.00000000025161,0.56339039123143
25999.9999999021,721.106326787808,1.00000000025684,0.564209604675964
26099.9999999007,719.22033351841,1.00000000025164,0.557339263874297
26199.9999998992,717.351527491653,1.00000000021336,0.541438256989906
26299.9999998978,715.485200464663,1.00000000019203,0.517724450570067
26399.9999998963,713.597591516934,1.00000000014407,0.486190459467136
26499.9999998949,711.669018066911,1.00000000011015,0.457322895922266
26599.9999998934,709.689247588499,1.00000000008734,0.440283871871948
26699.999999892,707.653811264286,1.00000000008777,0.44254291894145
26799.9999998905,705.576362788009,1.00000000011042,0.46375810603629
26899.999999889,703.472231190258,1.00000000015516,0.496857964633849
26999.9999998876,701.362450666693,1.00000000020238,0.526771863281354
27099.9999998861,699.266765006879,1.00000000024143,0.548441621903482
27199.9999998847,697.197108577124,1.00000000025379,0.559918099096562
27299.9999998832,695.162789500364,1.00000000027139,0.563239191998488
27399.9999998818,693.16554352698,1.00000000026977,0.561030381518407
27499.9999998803,691.198810286189,1.00000000025079,0.551374785767502
27599.9999998789,689.25409581358,1.0000000002272,0.536743930309529
27699.9999998774,687.315038404025,1.00000000018863,0.511138621135951
27799.9999998759,685.365144013667,1.00000000014995,0.479566804695878
27899.9999998745,683.389962545237,1.00000000011462,0.449556836598972
27999.999999873,681.37800700688,1.000000000091,0.428399875163138
28099.9999998716,679.329855258872,1.00000000008535,0.425423777043789
28199.9999998701,677.247928008461,1.00000000009832,0.440187279382425
28299.9999998687,675.145824188349,1.00000000013198,0.4690270750642
28399.9999998672,673.037118858753,1.00000000017926,0.502139497399024
28499.9999998658,670.93519854315,1.00000000021476,0.530156529919873
28599.9999998643,668.852888003113,1.00000000024911,0.547638415976636
28699.9999998629,666.797836654505,1.00000000026112,0.556912789539858
28799.9999998614,664.774313125889,1.00000000026226,0.557701882237349
