Time,AGPnorm,Energy,Entropy
0,0,1,-1.89536068142385e-18
99.9999999999986,0.0119403538563618,0.999999999997365,0.0291441413220065
199.999999999993,0.0292910896471993,1.00000000000108,0.0867926875504696
300,0.0565360920780416,1.00000000000866,0.178703143305131
400.000000000022,0.0891928361734139,1.00000000065973,0.326497639471618
500.000000000045,0.257174951427044,1.000000002493,0.468133594853793
600.000000000068,1.00368435631226,1.00000000367285,0.547869743863653
700.000000000091,2.5950207968889,1.0000000043138,0.582861598712774
800.000000000113,4.71634225359267,1.0000000043292,0.596425248364052
900.000000000136,7.10257350226223,1.00000000378184,0.593075501243465
1000.00000000016,9.2657422072264,1.00000000304623,0.586535404730528
1100.0000000001,11.059563537865,1.00000000329025,0.574740823337826
1200,12.3228089992038,1.0000000027252,0.563985492359475
1299.99999999991,13.07515060627,1.00000000242198,0.559706492808455
1399.99999999982,13.3880255145566,1.00000000254777,0.569721896592819
1499.99999999973,13.3375793713447,1.00000000258757,0.572233784595512
1599.99999999964,13.0888562460561,1.00000000176445,0.487518370268494
1699.99999999955,12.7474369139671,1.00000000284139,0.545361825076675
1799.99999999946,12.2791181420458,1.00000000254066,0.508449010810385
1899.99999999937,11.8456492507963,1.00000000218954,0.505334076748667
1999.99999999928,11.35597860248,1.00000000226875,0.46992319401384
2099.99999999919,10.9020482179625,1.00000000275966,0.552539410888376
2199.99999999909,10.472451260034,1.00000000184746,0.420644952111614
2299.999999999,10.0389283711554,1.00000000285185,0.523058228693902
2399.99999999891,9.63908691472185,1.0000000030445,0.555205162428311
2499.99999999882,9.28871151661719,1.00000000150934,0.418770628999119
2599.99999999873,8.95557244614063,1.0000000027875,0.516612180854417
2699.99999999864,8.63775183556046,1.0000000024858,0.530759052490249
2799.99999999855,8.3316642823138,1.00000000297683,0.558525836899604
2899.99999999846,8.08251382181599,1.00000000165376,0.434730540962558
2999.99999999837,7.88162162659188,1.00000000289332,0.48533527205878
3099.99999999828,7.66936797713821,1.00000000262183,0.540532324558819
3199.99999999819,7.46959130512038,1.00000000263029,0.550496089888217
3299.99999999809,7.26465324148374,1.00000000313179,0.551197665392095
3399.999999998,7.06858910467296,1.0000000023821,0.540409147652134
3499.99999999791,6.95035034180953,1.00000000168006,0.443241551465467
3599.99999999782,6.87578027653691,1.00000000257167,0.49725303191446
3699.99999999773,6.7838606301076,1.00000000257934,0.542991322409239
3799.99999999764,6.69553507317464,1.00000000256361,0.561781242935155
3899.99999999755,6.59052919794996,1.00000000313307,0.577595121402895
3999.99999999746,6.47665293332741,1.00000000242841,0.580862872446139
4099.99999999738,6.35843273509732,1.00000000300422,0.573738125793986
4199.99999999775,6.23144633441386,1.00000000322103,0.578796678894758
4299.99999999811,6.13815303420173,1.0000000018631,0.513512217956507
4399.99999999848,6.13163610485386,1.00000000192468,0.478244141804259
4499.99999999884,6.15629400180059,1.00000000284225,0.519162931357541
4599.9999999992,6.16585752086174,1.00000000256231,0.539801204374208
4699.99999999957,6.16276125150089,1.00000000272525,0.577982754457171
4799.99999999993,6.13772304546644,1.00000000274965,0.598538641029255
4900.00000000029,6.11222495722562,1.00000000255485,0.596151834030093
5000.00000000066,6.08207800845264,1.0000000026294,0.605742654636282
5100.00000000102,6.03390378060194,1.00000000281477,0.58979636170657
5200.00000000139,5.97031805462388,1.00000000279254,0.611584728372174
5300.00000000175,5.90427115418747,1.00000000247857,0.613978823192429
5400.00000000211,5.83416160813979,1.00000000260682,0.614407856427772
5500.00000000248,5.75714509738726,1.00000000320575,0.61827792388845
5600.00000000284,5.67678733511863,1.00000000306692,0.597532312815093
5700.00000000321,5.61030814707968,1.00000000226743,0.552806877488643
5800.00000000357,5.6117696911358,1.00000000178741,0.502637539552462
5900.00000000393,5.68988737814438,1.0000000022955,0.50949012452668
6000.0000000043,5.78397417232219,1.00000000304597,0.542400153103647
6100.00000000466,5.860630447431,1.00000000269126,0.562931264976416
6200.00000000502,5.92638776109685,1.0000000028342,0.574149221056709
6300.00000000539,5.9767611345004,1.00000000279123,0.603225235715758
6400.00000000575,6.00501360741461,1.00000000293516,0.624224533982985
6500.00000000612,6.02056184656729,1.00000000269843,0.627756384847368
6600.00000000648,6.02784032104934,1.00000000289635,0.632080176806931
6700.00000000684,6.0195281731819,1.00000000293181,0.637521308094394
6800.00000000721,6.00404834651138,1.00000000258933,0.627507978173188
6900.00000000757,5.99473906569673,1.00000000278082,0.620439112583888
7000.00000000793,5.9891781149608,1.0000000027682,0.611666695971216
7100.0000000083,5.96985587447838,1.00000000293569,0.618186641172359
7200.00000000866,5.94697312786737,1.00000000277287,0.634710725548281
7300.00000000903,5.9245316041384,1.00000000307258,0.638550057222186
7400.00000000939,5.89831262411306,1.00000000266159,0.6437383585415
7500.00000000975,5.87252232006561,1.00000000266421,0.631041371639487
7600.00000001012,5.84540010664581,1.00000000280945,0.620933300582384
7700.00000001048,5.81020768400137,1.00000000331505,0.639602649230489
7800.00000001084,5.76350096766173,1.00000000290775,0.651159721270668
7900.00000001121,5.71028487287815,1.00000000280045,0.653950407077772
8000.00000001157,5.65708635568271,1.00000000267346,0.656955579665454
8100.00000001194,5.60445464534166,1.00000000312268,0.653209227691346
8200.0000000123,5.5532042741149,1.00000000340263,0.660459472996721
8300.00000001266,5.50449651494312,1.00000000343683,0.661538245812582
8400.00000001303,5.4534097807597,1.00000000350946,0.628131636787597
8500.00000001339,5.39936349472458,1.00000000300259,0.591618480020186
8600.00000001376,5.36907717415624,1.00000000232534,0.55334881659652
8700.00000001412,5.39701868857999,1.00000000216019,0.526679172374717
8800.00000001448,5.49554260004415,1.00000000272426,0.522768113312508
8900.00000001485,5.63611191264794,1.00000000281689,0.535430253685191
9000.00000001521,5.7871168207911,1.00000000320427,0.550370185149167
9100.00000001557,5.93211721799608,1.0000000030062,0.564950085165595
9200.00000001594,6.06286870659538,1.00000000315841,0.579820263405413
9300.0000000163,6.18725617871642,1.00000000304099,0.595911772717087
9400.00000001667,6.28969630008571,1.0000000031868,0.604568994008718
9500.00000001703,6.37686371711795,1.0000000031661,0.619395317557253
9600.00000001739,6.44830464080461,1.00000000314213,0.63798409264259
9700.00000001776,6.50804382779956,1.00000000327509,0.635180746352965
9800.00000001812,6.56113130985771,1.00000000334459,0.627890912511855
9900.00000001848,6.60707561985061,1.00000000303591,0.651106991194958
10000.0000000188,6.63915297307397,1.00000000327485,0.673890459617307
10100.0000000192,6.66970678024753,1.00000000309195,0.6656049389696
10200.0000000196,6.69575474617235,1.000000003197,0.661351531092628
10300.0000000199,6.71455352186052,1.00000000331316,0.673612214935619
10400.0000000203,6.72369685324604,1.0000000032345,0.67551155312581
10500.0000000207,6.73583037173814,1.00000000300291,0.670386267101569
10600.000000021,6.73821159030931,1.0000000032693,0.682024415779077
10700.0000000214,6.73552263433041,1.00000000350378,0.678739396959494
10800.0000000218,6.7242711969665,1.00000000317296,0.666523419110802
10900.0000000221,6.71250185363819,1.00000000315722,0.671619855478634
11000.0000000225,6.69580383191578,1.00000000311059,0.671843427771797
11100.0000000229,6.67459917729055,1.00000000347654,0.684157457974648
11200.0000000232,6.65411402982,1.00000000315891,0.674156606286758
11300.0000000236,6.64103556178811,1.00000000294922,0.661670028762325
11400.0000000239,6.64105963948123,1.00000000309794,0.641942837302071
11500.0000000243,6.65333022728993,1.00000000327552,0.634474938588818
11600.0000000247,6.67501750434719,1.00000000322391,0.635004395362196
11700.000000025,6.69014293256678,1.00000000337936,0.641929455044907
11800.0000000254,6.70527685130431,1.00000000368169,0.639309086356129
11900.0000000258,6.71386626916602,1.00000000332898,0.649064998721496
12000.0000000261,6.7236498526913,1.00000000333236,0.654846012856591
12100.0000000265,6.72883908771441,1.00000000360524,0.646715021992005
12200.0000000269,6.73205578639324,1.00000000321277,0.654528717083593
12300.0000000272,6.73705199312806,1.00000000340586,0.671539990778543
12400.0000000276,6.74360134111444,1.00000000355105,0.674323401691059
12500.0000000279,6.74252775186655,1.00000000380824,0.66770405883512
12600.0000000283,6.74220760172189,1.0000000032436,0.666046625575906
12700.0000000287,6.74462385192772,1.00000000359433,0.670801598382949
12800.000000029,6.75269699694499,1.00000000317709,0.655045808528419
12900.0000000294,6.76585493217705,1.00000000351611,0.655123207640203
13000.0000000298,6.77516173502328,1.00000000385639,0.669515433369171
13100.0000000301,6.78625087175456,1.00000000367529,0.679373736418252
13200.0000000305,6.79793693661606,1.00000000354967,0.686282646378171
13300.0000000309,6.80785520420412,1.0000000036508,0.674369350414096
13400.0000000312,6.81941508234255,1.0000000033391,0.658886194926654
13500.0000000316,6.83283964654706,1.00000000348192,0.692816225621101
13600.0000000319,6.83866310246198,1.00000000356507,0.686158872816462
13700.0000000323,6.84551989330995,1.00000000332036,0.688872524872831
13800.0000000327,6.84827515369649,1.00000000354192,0.684553349260766
13900.000000033,6.8534103711877,1.00000000344958,0.697422202752229
14000.0000000334,6.85626003022867,1.00000000351429,0.68691558180645
14100.0000000338,6.861599896745,1.00000000417583,0.688412923723551
14200.0000000341,6.85612698486955,1.00000000377668,0.677869543142481
14300.0000000345,6.85379514629934,1.00000000352033,0.670369255116636
14400.0000000349,6.84938718691123,1.00000000372843,0.67751042363125
14500.0000000352,6.84238647670543,1.0000000030968,0.66724626044497
14600.0000000356,6.83768133155787,1.00000000381973,0.673362612529123
14700.0000000359,6.83268931309922,1.00000000379969,0.669915288764535
14800.0000000363,6.82678759503676,1.00000000369589,0.677288391441996
14900.0000000367,6.81587945062551,1.00000000334102,0.696167131335628
15000.000000037,6.80351989068991,1.00000000337835,0.688540046748832
15100.0000000374,6.79307182082783,1.00000000373698,0.685787361931296
15200.0000000378,6.77785467551207,1.0000000038672,0.665971750946866
15300.0000000381,6.76197692499432,1.00000000367774,0.692010543786193
15400.0000000385,6.74206572263028,1.00000000358336,0.699714038695798
15500.0000000389,6.71745382306606,1.00000000383599,0.672137784666912
15600.0000000392,6.68633758859459,1.00000000406414,0.689968065916125
15700.0000000396,6.65214565754402,1.00000000375798,0.677971220803167
15800.0000000399,6.61676576239465,1.00000000376592,0.692778083721789
15900.0000000403,6.57994692570265,1.00000000349931,0.68857110236391
16000.0000000407,6.54432890510683,1.00000000322792,0.696419970371795
16100.000000041,6.51005972465955,1.00000000370104,0.692039838882194
16200.0000000414,6.47786067078844,1.00000000389238,0.702581094320538
16300.0000000418,6.45036577087035,1.00000000393496,0.698763188853007
16400.0000000418,6.42629613340159,1.00000000439945,0.701164311181319
16500.0000000404,6.40795437937519,1.00000000387342,0.69336683513981
16600.0000000389,6.39147937235082,1.00000000374789,0.70077146889048
16700.0000000375,6.37765277975314,1.00000000411895,0.692305049446333
16800.000000036,6.35945493902882,1.00000000385232,0.673979344543539
16900.0000000346,6.33838997668429,1.00000000394472,0.661036731528818
17000.0000000331,6.31214692250084,1.00000000398829,0.634218936833894
17100.0000000317,6.29408625823183,1.00000000332599,0.621295462607413
17200.0000000302,6.29668682565698,1.00000000323128,0.609418147341591
17300.0000000287,6.33985868273308,1.00000000339967,0.593520912032071
17400.0000000273,6.43651241423845,1.00000000291443,0.573014558361058
17500.0000000258,6.60272760388481,1.00000000311509,0.57829700649662
17600.0000000244,6.82151581403792,1.00000000349718,0.581823732469361
17700.0000000229,7.10170334500122,1.00000000345766,0.585194500342212
17800.0000000215,7.39223802568403,1.00000000395219,0.578647332073007
17900.00000002,7.7081890531477,1.00000000413298,0.584987099435933
18000.0000000186,8.00854981353497,1.00000000418869,0.596408591805774
18100.0000000171,8.32136392707738,1.00000000397052,0.60038419045962
18200.0000000156,8.61686952380137,1.00000000389468,0.604133570576255
18300.0000000142,8.91333577218686,1.00000000413742,0.605000930618725
18400.0000000127,9.20589825771477,1.00000000414431,0.599925582268476
18500.0000000113,9.48687552038064,1.00000000377441,0.607375408297728
18600.0000000098,9.77723820880379,1.00000000368771,0.618746255239398
18700.0000000084,10.0486150139025,1.00000000396935,0.61773668282828
18800.0000000069,10.3208005231227,1.00000000392502,0.620864502729817
18900.0000000055,10.5623074046159,1.00000000409461,0.662071653951838
19000.000000004,10.8018279434835,1.00000000412232,0.651811110677654
19100.0000000026,11.0236574054768,1.00000000451482,0.670968361643923
19200.0000000011,11.2213893729695,1.00000000367069,0.672902308253887
19299.9999999996,11.4281699906663,1.00000000460793,0.664767864620529
19399.9999999982,11.6152031628739,1.00000000432982,0.66186796093998
19499.9999999967,11.8010968555985,1.0000000042687,0.682311887299046
19599.9999999953,11.9728302381396,1.00000000407348,0.67351601926834
19699.9999999938,12.1447441448438,1.00000000441,0.651083417267959
19799.9999999924,12.3177408046291,1.0000000042467,0.680356251482028
19899.9999999909,12.4782001651771,1.00000000460152,0.65868021240194
19999.9999999895,12.6356664888721,1.00000000406594,0.687547201270664
20099.999999988,12.7807566596904,1.00000000423311,0.686809092402611
20199.9999999865,12.9263514779125,1.00000000383105,0.685061515422759
20299.9999999851,13.0678996635981,1.00000000417181,0.692591248800079
20399.9999999836,13.2170383803267,1.00000000459276,0.681424871027314
20499.9999999822,13.3514128761543,1.00000000445145,0.687535572582574
20599.9999999807,13.4671617582747,1.00000000448914,0.677974894931822
20699.9999999793,13.5751640217982,1.00000000475299,0.708224612721404
20799.9999999778,13.6786865058115,1.00000000425843,0.692746424609975
20899.9999999764,13.7852518179661,1.00000000445813,0.718447550931045
20999.9999999749,13.8950332763399,1.00000000413069,0.698836235866803
21099.9999999734,14.0138464575233,1.00000000431581,0.705364308539128
21199.999999972,14.1269232105032,1.0000000046846,0.704633701710673
21299.9999999705,14.2364137883978,1.00000000415759,0.705954051642366
21399.9999999691,14.3437664351349,1.00000000464414,0.703147511896324
21499.9999999676,14.4419101512947,1.00000000462038,0.707324677481385
21599.9999999662,14.5403515282416,1.00000000473627,0.694265875776538
21699.9999999647,14.6345919848094,1.00000000409586,0.706745579713061
21799.9999999633,14.7292143789914,1.00000000463546,0.69229738634174
21899.9999999618,14.8222158613364,1.00000000465608,0.687788461464705
21999.9999999603,14.9237968398433,1.00000000409749,0.680607897911939
22099.9999999589,15.0298479940737,1.00000000539616,0.707823067167288
22199.9999999574,15.1282628521479,1.00000000444694,0.690977565338498
22299.999999956,15.2313110592844,1.00000000475763,0.703696042972763
22399.9999999545,15.341711499823,1.00000000504405,0.711417138413734
22499.9999999531,15.4510184388659,1.00000000466942,0.725652014510467
22599.9999999516,15.5512020599345,1.00000000464544,0.727980756686093
22699.9999999502,15.6468591179871,1.00000000447727,0.705907714569521
22799.9999999487,15.7483078056921,1.00000000418791,0.68172568028322
22899.9999999473,15.8601787282327,1.00000000420634,0.68555901562845
22999.9999999458,15.9847630491561,1.00000000406303,0.689410782761403
23099.9999999443,16.1081878006436,1.00000000499209,0.706879994138515
23199.9999999429,16.2292098175665,1.00000000453043,0.702889087012968
23299.9999999414,16.343811568137,1.00000000444611,0.709669203073202
23399.99999994,16.4478410992857,1.00000000397914,0.706170550276551
23499.9999999385,16.5504072192894,1.0000000045471,0.685154996927824
23599.9999999371,16.6540519296166,1.00000000441616,0.689976054071537
23699.9999999356,16.7746348551855,1.0000000042815,0.697871408256832
23799.9999999342,16.8954849661872,1.00000000494052,0.713593948726218
23899.9999999327,17.0115775251864,1.00000000518733,0.700936302612884
23999.9999999312,17.1277524423791,1.00000000453517,0.697768149519999
24099.9999999298,17.243032416791,1.00000000504624,0.699692910131189
24199.9999999283,17.3511041878356,1.00000000477705,0.714375304760326
24299.9999999269,17.4464758126663,1.00000000515507,0.713193734321038
24399.9999999254,17.5419900048244,1.00000000452801,0.680239600783472
24499.999999924,17.6541858285924,1.00000000404257,0.680092540425214
24599.9999999225,17.7762440744263,1.0000000050479,0.708213189382121
24699.9999999211,17.9026723588244,1.00000000482777,0.686868329386795
24799.9999999196,18.0290049966425,1.00000000482149,0.684659765557606
24899.9999999181,18.1501775497573,1.0000000050676,0.710253917485915
24999.9999999167,18.2581827648124,1.00000000480526,0.701378802979034
25099.9999999152,18.3561351756341,1.00000000474843,0.702309801844957
25199.9999999138,18.4518511853138,1.00000000503705,0.706560192511367
25299.9999999123,18.550603394894,1.00000000488881,0.707792943779261
25399.9999999109,18.6570387673097,1.00000000417273,0.691530354154058
25499.9999999094,18.7825385557271,1.00000000427993,0.700091144152628
25599.999999908,18.9236253363263,1.00000000479785,0.71152390081886
25699.9999999065,19.0788887822732,1.0000000047082,0.709650982377259
25799.9999999051,19.2455580781164,1.00000000523277,0.718894282597874
25899.9999999036,19.398902673956,1.00000000528041,0.725616146455141
25999.9999999021,19.5414098570833,1.00000000550575,0.705174928966181
26099.9999999007,19.6839859391884,1.00000000514734,0.713668068471806
26199.9999998992,19.8271479148789,1.00000000519521,0.712588316637331
26299.9999998978,19.9755703226073,1.00000000518417,0.703339788219802
26399.9999998963,20.135253213889,1.00000000504018,0.704081084386133
26499.9999998949,20.305096640707,1.00000000474728,0.699741531319032
26599.9999998934,20.4885351398799,1.00000000521063,0.70774638781294
26699.999999892,20.674677083063,1.00000000544125,0.707933342673946
26799.9999998905,20.8646143636499,1.00000000481979,0.681912672295181
26899.999999889,21.0674587377837,1.00000000523758,0.693816436068649
26999.9999998876,21.2748530392799,1.00000000493001,0.695157907387776
27099.9999998861,21.4860158849203,1.00000000549077,0.698525631824087
27199.9999998847,21.6950235563715,1.00000000460752,0.697036648751267
27299.9999998832,21.8938208804271,1.00000000533476,0.703821165535286
27399.9999998818,22.0842042513636,1.00000000537671,0.705757876093646
27499.9999998803,22.2660803108637,1.00000000498919,0.698633946368674
27599.9999998789,22.4489377769369,1.00000000548452,0.698694897689001
27699.9999998774,22.6251108959892,1.00000000557412,0.695818195273461
27799.9999998759,22.8119016806365,1.00000000468144,0.691882332054473
27899.9999998745,23.0074938301216,1.00000000513956,0.705261051207176
27999.999999873,23.1973451095537,1.00000000519521,0.717334543941335
28099.9999998716,23.3956512800067,1.00000000526763,0.711763434332807
28199.9999998701,23.6008862683061,1.00000000482934,0.700082051129834
28299.9999998687,23.8034904418081,1.00000000534597,0.702740953448566
28399.9999998672,24.0033455653457,1.00000000527565,0.718098630578723
28499.9999998658,24.2017338116666,1.00000000528441,0.728791914724083
28599.9999998643,24.3954719915689,1.00000000483129,0.72126804427882
28699.9999998629,24.5891152801417,1.0000000050025,0.714384786103904
28799.9999998614,24.7776169970293,1.00000000576004,0.713650267522662
28899.9999998599,24.9625540794973,1.00000000480332,0.715534423711012
28999.9999998585,25.1519164157602,1.00000000579406,0.703160698410951
29099.999999857,25.3438190450835,1.00000000489804,0.704963062595034
