Time,AGPnorm,Energy,Entropy
0,0,1,-7.4662719156773e-17
99.9999999999986,0.00169402721991215,0.999999999997722,0.00520584334066563
199.999999999993,0.0116689413181208,0.999999999998105,0.0150136400355952
300,0.0228166479018499,1.00000000000079,0.0279007769632604
400.000000000022,0.034007126470168,1.00000000000113,0.0443740066163919
500.000000000045,0.0477746244716524,0.999999999998134,0.0642345194147005
600.000000000068,0.0665132421653814,0.99999999999741,0.0872529980305741
700.000000000091,0.0826597888234977,0.99999999999981,0.113960993734057
800.000000000113,0.0999556988611857,1.00000000000267,0.146249075783846
900.000000000136,0.116331442917314,1.00000000001171,0.186881087225211
1000.00000000016,0.132992814391402,1.0000000000966,0.238262430344473
1100.0000000001,0.156351706661395,1.00000000033367,0.296406082487101
1200,0.218020598587422,1.00000000074635,0.352038635592331
1299.99999999991,0.349518755905917,1.00000000112309,0.401549366682787
1399.99999999982,0.650756044385194,1.00000000142778,0.442964809377328
1499.99999999973,1.24743669245001,1.00000000184186,0.476697848315979
1599.99999999964,2.19799507394675,1.00000000204502,0.505027678466515
1699.99999999955,3.54071206553586,1.00000000226222,0.528857328768878
1799.99999999946,5.3346287898079,1.00000000221596,0.546919855774134
1899.99999999937,7.55848843644017,1.00000000233006,0.560274007489064
1999.99999999928,10.1116889015434,1.00000000242274,0.571197063140021
2099.99999999919,12.9272604860824,1.00000000230403,0.580384269489444
2199.99999999909,15.9795572727818,1.00000000226515,0.585447132246682
2299.999999999,19.1844305783033,1.00000000220746,0.588496984160641
2399.99999999891,22.4103675197294,1.00000000219946,0.590094660601462
2499.99999999882,25.572345454807,1.00000000219765,0.592080819609054
2599.99999999873,28.6451697714383,1.00000000211888,0.591571440463617
2699.99999999864,31.5932124725077,1.0000000020335,0.589993932793693
2799.99999999855,34.3426871752923,1.00000000191348,0.588303977715348
2899.99999999846,36.8423803858748,1.00000000183091,0.5877064105508
2999.99999999837,39.0794201348034,1.00000000177867,0.585411345672806
3099.99999999828,41.0638407649163,1.00000000170613,0.581170896108085
3199.99999999819,42.78708013459,1.00000000163459,0.57849661971342
3299.99999999809,44.2290833444879,1.00000000154064,0.57752111648124
3399.999999998,45.3933859998004,1.00000000149857,0.576457938150053
3499.99999999791,46.2983697104653,1.00000000139659,0.576566575587736
3599.99999999782,46.966829497574,1.00000000142034,0.57176475087168
3699.99999999773,47.4102408850214,1.00000000137703,0.57361145864486
3799.99999999764,47.647829936479,1.00000000124827,0.566108756694161
3899.99999999755,47.6894695679989,1.00000000143685,0.579907234938113
3999.99999999746,47.5859134187736,1.00000000116763,0.552533594906144
4099.99999999738,47.3395672428325,1.00000000148082,0.580977540905543
4199.99999999775,47.0063105087341,1.00000000117749,0.548976548586879
4299.99999999811,46.5525307599616,1.00000000139338,0.565491142233087
4399.99999999848,46.0633061482074,1.00000000139354,0.560259528426708
4499.99999999884,45.4927362209525,1.00000000112305,0.526030492972309
4599.9999999992,44.8903917730089,1.00000000177824,0.585281486705349
4699.99999999957,44.2843200574629,1.00000000127716,0.531586533329886
4799.99999999993,43.6192419740565,1.00000000121613,0.525148747576462
4900.00000000029,42.9634282032297,1.0000000019485,0.57835423027357
5000.00000000066,42.3147466351358,1.00000000127129,0.513807428821696
5100.00000000102,41.6325022290888,1.00000000119209,0.505800903851152
5200.00000000139,40.9622739782316,1.00000000194157,0.572104659317395
5300.00000000175,40.3173565751745,1.00000000135588,0.512602337982656
5400.00000000211,39.6598363193833,1.00000000112352,0.494688252138363
5500.00000000248,39.0005288181378,1.00000000151306,0.527567057218371
5600.00000000284,38.3687356210586,1.00000000174245,0.547954326086698
5700.00000000321,37.7538925484195,1.0000000012409,0.492578069870071
5800.00000000357,37.1407139994413,1.00000000119602,0.501197595589447
5900.00000000393,36.5343980127764,1.00000000139622,0.516853496264199
6000.0000000043,35.9482545752204,1.00000000166757,0.536111779858783
6100.00000000466,35.3807146256466,1.00000000123182,0.503469049783604
6200.00000000502,34.8272662988691,1.00000000118881,0.502811741486669
6300.00000000539,34.2863781865691,1.00000000129139,0.519700393998669
6400.00000000575,33.7597219973264,1.00000000133045,0.514999010235238
6500.00000000612,33.2496688154769,1.00000000142957,0.523583484314072
6600.00000000648,32.7541843810875,1.00000000146193,0.516963403162856
6700.00000000684,32.2776247166971,1.00000000118124,0.500414801947148
6800.00000000721,31.8177661878323,1.00000000144636,0.528903361523838
6900.00000000757,31.3716210494849,1.00000000124045,0.524969163613759
7000.00000000793,30.9440025204963,1.00000000129975,0.504203454583469
7100.0000000083,30.5294534440001,1.00000000160945,0.523284529070592
7200.00000000866,30.1250361736889,1.00000000140072,0.514408940141496
7300.00000000903,29.7399559175387,1.00000000126573,0.503447819184458
7400.00000000939,29.3727328439152,1.00000000142492,0.525257331636706
7500.00000000975,29.0122062345052,1.00000000157029,0.534402351398387
7600.00000001012,28.6684846089785,1.0000000011685,0.509245568268019
7700.00000001048,28.344113596489,1.00000000140046,0.506178183009424
7800.00000001084,28.0284405652155,1.00000000160684,0.528207532308397
7900.00000001121,27.7183290645073,1.00000000143756,0.512473132377538
8000.00000001157,27.4226924049132,1.00000000138754,0.510689503918328
8100.00000001194,27.1436797896318,1.00000000137224,0.525931009851969
8200.0000000123,26.8728596957642,1.00000000154253,0.530282544657809
8300.00000001266,26.6057893404721,1.00000000149563,0.525675963072226
8400.00000001303,26.3521847690707,1.00000000126046,0.521906751543121
8500.00000001339,26.1136505607169,1.00000000128535,0.51191914733032
8600.00000001376,25.884966335742,1.00000000148823,0.5298405025883
8700.00000001412,25.6622624079391,1.00000000152877,0.532096448076024
8800.00000001448,25.4458271589953,1.0000000012925,0.521625009299717
8900.00000001485,25.2439436033945,1.00000000130504,0.519133563099892
9000.00000001521,25.0513798668984,1.00000000146169,0.538589027698808
9100.00000001557,24.865068256132,1.00000000140039,0.538237343216694
9200.00000001594,24.688759209166,1.00000000136665,0.526675405688627
9300.0000000163,24.5171101232519,1.00000000145661,0.524665482593744
9400.00000001667,24.3470532687153,1.00000000142653,0.550181737166368
9500.00000001703,24.1828738515489,1.00000000134587,0.545100479909819
9600.00000001739,24.0294774283142,1.00000000133899,0.531713902452162
9700.00000001776,23.8846184812869,1.00000000141995,0.540807432324138
9800.00000001812,23.7449204944568,1.00000000148958,0.54021967645963
9900.00000001848,23.6100898084499,1.00000000144471,0.534393747661368
10000.0000000188,23.4860235850642,1.00000000136112,0.537427344841553
10100.0000000192,23.3713712043169,1.00000000143795,0.542117225379677
10200.0000000196,23.254694922773,1.00000000162241,0.550649880497926
10300.0000000199,23.140531027366,1.00000000134508,0.539757526569593
10400.0000000203,23.0426412852112,1.00000000124328,0.525668944002967
10500.0000000207,22.9521915940072,1.00000000148895,0.543203477475659
10600.000000021,22.8569618860224,1.00000000163951,0.546858114294142
10700.0000000214,22.7544506910096,1.00000000164981,0.565220202541724
10800.0000000218,22.6500287052795,1.00000000147894,0.567067839720817
10900.0000000221,22.5509996249205,1.00000000140045,0.556432441700125
11000.0000000225,22.4585498053369,1.00000000151275,0.560173409840443
11100.0000000229,22.3725399798204,1.00000000153653,0.556317072148645
11200.0000000232,22.2932264646254,1.00000000153016,0.549633347899175
11300.0000000236,22.2212472626825,1.00000000144751,0.539160645584804
11400.0000000239,22.1554943361568,1.00000000145725,0.54486076815122
11500.0000000243,22.0956681873889,1.0000000014664,0.560074919718216
11600.0000000247,22.03904164346,1.00000000141651,0.556986060327552
11700.000000025,21.9826249978922,1.00000000141495,0.551051272269879
11800.0000000254,21.9278658132075,1.00000000150007,0.55528357475601
11900.0000000258,21.8799706712833,1.00000000136007,0.548456055966174
12000.0000000261,21.8408289390861,1.000000001381,0.54405444555406
12100.0000000265,21.807214685959,1.00000000150833,0.561880613963474
12200.0000000269,21.7689489593917,1.00000000143607,0.566469834356314
12300.0000000272,21.726728527231,1.00000000148651,0.564937496050362
12400.0000000276,21.6789581216478,1.00000000151516,0.570716391828002
12500.0000000279,21.6260023451067,1.00000000163761,0.577151586441508
12600.0000000283,21.5679186636488,1.0000000015442,0.585988680767364
12700.0000000287,21.5073767121716,1.00000000137724,0.584037031332319
12800.000000029,21.450247286716,1.00000000143539,0.577541737258567
12900.0000000294,21.4011766920767,1.00000000146241,0.574497386742973
13000.0000000298,21.3588965192361,1.0000000014416,0.561516504404475
13100.0000000301,21.3231633676849,1.00000000157945,0.556374871383779
13200.0000000305,21.2951393101884,1.00000000147146,0.54936337403422
13300.0000000309,21.2720845923398,1.00000000142525,0.559011419511178
13400.0000000312,21.2538742635,1.00000000145808,0.568670474151259
13500.0000000316,21.2365593025252,1.00000000150361,0.572578648098674
13600.0000000319,21.2183006219563,1.0000000015512,0.571665352230934
13700.0000000323,21.2016398250674,1.00000000147213,0.565748483472806
13800.0000000327,21.1905874432338,1.00000000129659,0.552886097634667
13900.000000033,21.1846654138622,1.00000000149757,0.556956803564282
14000.0000000334,21.1797616050404,1.00000000154912,0.56576232816022
14100.0000000338,21.1785815976175,1.00000000143045,0.571357349518766
14200.0000000341,21.1813647599518,1.0000000014689,0.576302270457643
14300.0000000345,21.1834994292984,1.00000000152608,0.58507231000029
14400.0000000349,21.1787332860844,1.00000000171135,0.59834932345869
14500.0000000352,21.1668195018204,1.00000000163745,0.595969329300739
14600.0000000356,21.1502852283009,1.00000000145889,0.59605417999447
14700.0000000359,21.1339892171477,1.00000000140067,0.592038052265578
14800.0000000363,21.1171272209879,1.00000000156161,0.592482814315695
14900.0000000367,21.0954182078142,1.00000000158221,0.587609776105035
15000.000000037,21.0666102008433,1.00000000169371,0.58870253063246
15100.0000000374,21.0295879744453,1.00000000163171,0.588151157818797
15200.0000000378,20.9881998984268,1.00000000160085,0.598112737337827
15300.0000000381,20.9469285208304,1.00000000158991,0.589915297046674
15400.0000000385,20.9096311657281,1.0000000014497,0.581312132068194
15500.0000000389,20.8798394452887,1.00000000156501,0.580190164545854
15600.0000000392,20.8584680128551,1.00000000158474,0.577620688535258
15700.0000000396,20.8434598264817,1.00000000155713,0.570899869684248
15800.0000000399,20.836637080837,1.00000000154612,0.57390878826327
15900.0000000403,20.8353703751312,1.00000000148735,0.572467561464917
16000.0000000407,20.8383595508671,1.00000000166571,0.583186616175162
16100.000000041,20.8439336297131,1.00000000159256,0.586546749526033
16200.0000000414,20.8504124202215,1.00000000170202,0.588254599940879
16300.0000000418,20.854996139173,1.00000000162423,0.582161417772269
16400.0000000418,20.8629250746762,1.00000000157709,0.576185888888752
16500.0000000404,20.8763423672913,1.00000000153605,0.568697293060336
16600.0000000389,20.892654538582,1.00000000151478,0.576585279869252
16700.0000000375,20.9113934044617,1.00000000158035,0.583090591731533
16800.000000036,20.9325159506321,1.00000000149158,0.581529146194158
16900.0000000346,20.9559140513778,1.00000000158804,0.588033488316774
17000.0000000331,20.977577249908,1.00000000163542,0.589635065130633
17100.0000000317,20.9965705039085,1.00000000162518,0.589279446588413
17200.0000000302,21.0146279691749,1.0000000016032,0.582242635991785
17300.0000000287,21.0351552767629,1.00000000158055,0.589293943645155
17400.0000000273,21.0553900309529,1.0000000016509,0.606898288477352
17500.0000000258,21.0728130595789,1.0000000016591,0.610197530055977
17600.0000000244,21.0840462775309,1.0000000016426,0.62274097496145
17700.0000000229,21.0934036801619,1.00000000155317,0.629781965848504
17800.0000000215,21.0996022257892,1.0000000017022,0.629833952804812
17900.00000002,21.1027745396655,1.00000000159228,0.628669934916781
18000.0000000186,21.103634020857,1.0000000016052,0.635590572246499
18100.0000000171,21.1008609148296,1.00000000157692,0.63752500543218
18200.0000000156,21.0942972636852,1.00000000154465,0.64195952900235
18300.0000000142,21.0840280690948,1.00000000162709,0.642760252942289
18400.0000000127,21.0705326920999,1.00000000162395,0.640296003132127
18500.0000000113,21.0524090129486,1.00000000165872,0.644494140151078
18600.0000000098,21.0276072956285,1.00000000174017,0.648548447555767
18700.0000000084,20.9978128777123,1.00000000169762,0.643573953154618
18800.0000000069,20.9629741233218,1.00000000171445,0.642091986455298
18900.0000000055,20.9256514255092,1.00000000157588,0.640021357635495
19000.000000004,20.8891879380591,1.00000000165304,0.637969636843652
19100.0000000026,20.8550519723977,1.00000000158561,0.634572770191798
19200.0000000011,20.8250010934506,1.00000000163217,0.633583357306854
19299.9999999996,20.8009138157885,1.00000000160196,0.634995112571385
19399.9999999982,20.7820397498736,1.00000000167132,0.629307835145919
19499.9999999967,20.7693800606561,1.00000000158847,0.624822105541618
19599.9999999953,20.761226647142,1.00000000170478,0.628519620151197
19699.9999999938,20.759876616016,1.00000000162028,0.618613203756464
19799.9999999924,20.7647531674958,1.00000000151373,0.608185660967349
19899.9999999909,20.774847735366,1.00000000169573,0.60308056068328
19999.9999999895,20.7880213787498,1.00000000157912,0.604212655299321
20099.999999988,20.8048824790938,1.00000000156568,0.611063846936299
20199.9999999865,20.8204902857569,1.00000000176192,0.622862035610851
20299.9999999851,20.8377756469515,1.00000000159422,0.617665339794001
20399.9999999836,20.8575457567184,1.00000000170011,0.613152040819646
20499.9999999822,20.877532804329,1.00000000167904,0.611632683662407
20599.9999999807,20.8992483020026,1.00000000160218,0.607660475156013
20699.9999999793,20.9243064325335,1.00000000165481,0.597385723072794
20799.9999999778,20.95485515331,1.00000000160534,0.600542101364654
20899.9999999764,20.9889449176212,1.00000000169701,0.604381787287523
20999.9999999749,21.0234266002352,1.00000000168685,0.613158970758422
21099.9999999734,21.0563176420599,1.00000000168857,0.613433610264014
21199.999999972,21.0889029695773,1.00000000165232,0.615545093450403
21299.9999999705,21.1239013103001,1.00000000161694,0.619301168594734
21399.9999999691,21.1600759288923,1.0000000016799,0.619801364360279
21499.9999999676,21.1954817954913,1.00000000169053,0.620625326746336
21599.9999999662,21.2268746517538,1.0000000018508,0.624196790379346
21699.9999999647,21.2522229337942,1.00000000181871,0.633665251300505
21799.9999999633,21.2725430606895,1.00000000165948,0.641385028787742
21899.9999999618,21.2906845103063,1.00000000177993,0.649855826912705
21999.9999999603,21.3074467816018,1.00000000172937,0.649069753452224
22099.9999999589,21.3257272048626,1.00000000165178,0.640756695505477
22199.9999999574,21.3450249865665,1.00000000176204,0.644081974398017
22299.999999956,21.3654272230239,1.00000000172811,0.641776909207175
22399.9999999545,21.3865639003582,1.00000000175325,0.650843165016413
22499.9999999531,21.4057812540506,1.00000000175736,0.651685073867778
22599.9999999516,21.4229976118636,1.000000001816,0.656270479431702
22699.9999999502,21.4352181359115,1.00000000190539,0.65327775247065
22799.9999999487,21.4398233988236,1.00000000183535,0.653966709197575
22899.9999999473,21.4415870311629,1.00000000174801,0.659271049479365
22999.9999999458,21.4399301496988,1.00000000182964,0.654760630949871
23099.9999999443,21.4386549694271,1.00000000163169,0.642802984395773
23199.9999999429,21.4402568478512,1.00000000177614,0.642647698443279
23299.9999999414,21.441269663186,1.00000000183912,0.65133772644334
23399.99999994,21.4402257979025,1.00000000175647,0.644017680750144
23499.9999999385,21.439713320965,1.00000000176897,0.64237062745946
23599.9999999371,21.4382586670299,1.00000000169912,0.647038225987551
23699.9999999356,21.4357191730902,1.0000000017815,0.65728881438896
23799.9999999342,21.4301627973279,1.0000000018862,0.669162069204117
23899.9999999327,21.4208246056134,1.00000000179837,0.664246999562734
23999.9999999312,21.4106948875121,1.00000000184275,0.665274370062812
24099.9999999298,21.3977881978705,1.0000000018811,0.670633396193849
24199.9999999283,21.3834991604593,1.00000000173105,0.66107720282958
24299.9999999269,21.3684474192439,1.00000000182567,0.660770849467002
24399.9999999254,21.3499544742384,1.00000000179421,0.656741680704501
24499.999999924,21.3296106116039,1.00000000180251,0.650219134945578
24599.9999999225,21.3094500400487,1.00000000177823,0.655696960411068
24699.9999999211,21.2885585971124,1.00000000185725,0.665858068617491
24799.9999999196,21.2639168781063,1.00000000185518,0.661621896760771
24899.9999999181,21.2363828353794,1.00000000190933,0.658010089397238
24999.9999999167,21.2062666400335,1.00000000194204,0.663409022630263
25099.9999999152,21.1733555910399,1.00000000189367,0.661441459328782
25199.9999999138,21.1389224242549,1.00000000189796,0.666734349900632
25299.9999999123,21.1041647514289,1.00000000175221,0.664197085508366
25399.9999999109,21.0711603603732,1.00000000173841,0.657404328091587
25499.9999999094,21.0415820556335,1.00000000176641,0.654788709008616
25599.999999908,21.0143016408395,1.00000000171156,0.64783971305911
25699.9999999065,20.9902988902571,1.00000000178328,0.643597460095297
25799.9999999051,20.9707192960134,1.00000000177205,0.642447988666981
25899.9999999036,20.9550971770999,1.00000000174109,0.646870742202863
25999.9999999021,20.945634331398,1.00000000172507,0.648788212965593
26099.9999999007,20.9409211414857,1.00000000183049,0.654390929075799
26199.9999998992,20.9402867748991,1.00000000182047,0.652237096664103
26299.9999998978,20.946056749725,1.00000000174454,0.640016530609534
26399.9999998963,20.9563235804892,1.00000000179128,0.637618926828454
26499.9999998949,20.9693827491328,1.00000000182605,0.626424717163471
26599.9999998934,20.9908138561377,1.00000000173405,0.618373860256814
26699.999999892,21.0133420535564,1.00000000191027,0.616489619744108
26799.9999998905,21.0370856976184,1.0000000018073,0.616824383442489
26899.999999889,21.0651917023383,1.00000000190336,0.618684296207716
26999.9999998876,21.0910959991022,1.00000000193515,0.618613789114208
27099.9999998861,21.1190159880021,1.00000000182724,0.606024032407698
27199.9999998847,21.150607875112,1.00000000190495,0.612016096389487
27299.9999998832,21.1809754871756,1.00000000200758,0.610272010230969
27399.9999998818,21.2141623950826,1.00000000179926,0.601580663226998
27499.9999998803,21.2529572422435,1.0000000017584,0.608027847738104
27599.9999998789,21.2946299776514,1.00000000189491,0.607777768738499
27699.9999998774,21.3381031829837,1.00000000191464,0.603339297148643
27799.9999998759,21.3848782453969,1.00000000184874,0.604300193939541
27899.9999998745,21.4338450142873,1.00000000190187,0.608722188904793
27999.999999873,21.4833932508986,1.00000000194328,0.609225729487575
28099.9999998716,21.5324192806923,1.00000000187051,0.607318457253919
28199.9999998701,21.5852207926026,1.00000000178015,0.620513453109699
28299.9999998687,21.6392835627491,1.00000000195395,0.623835964075559
28399.9999998672,21.6930274406247,1.00000000190291,0.624454187145929
28499.9999998658,21.7452715437157,1.00000000219465,0.63103096378233
28599.9999998643,21.7965061240878,1.00000000183163,0.62373546017808
28699.9999998629,21.848762244423,1.0000000019958,0.629143686343134
28799.9999998614,21.8979689606414,1.00000000216367,0.641074622100928
28899.9999998599,21.9429912108873,1.00000000197813,0.637732162247195
28999.9999998585,21.9867169893202,1.00000000212811,0.649743065812302
