Time,AGPnorm,Energy,Entropy
0,0,1,4.53818754707113e-18
99.9999999999986,0.00198343727647284,1.00000000000257,0.00702418762709591
199.999999999993,0.00578593470368823,1.00000000000132,0.0211392154215464
300,0.0124137307254952,1.00000000000126,0.0410557407009326
400.000000000022,0.0199717104056004,1.00000000000282,0.0660192252976794
500.000000000045,0.0294441572765623,1.00000000000021,0.0955448013041615
600.000000000068,0.0392434007220007,1.00000000000476,0.131377695009468
700.000000000091,0.0498823993429705,1.00000000000493,0.174305567401337
800.000000000113,0.062875949659227,1.00000000003121,0.227532537889471
900.000000000136,0.0846514099226638,1.00000000009753,0.289787601123506
1000.00000000016,0.161397242948061,1.00000000022395,0.35488192827007
1100.0000000001,0.404572362173384,1.00000000037956,0.413261581791076
1200,0.9942232441894,1.00000000056068,0.459515689744754
1299.99999999991,2.17198744175905,1.00000000063481,0.494078500999351
1399.99999999982,4.08005155416877,1.00000000078904,0.516777001802189
1499.99999999973,6.84451072234626,1.00000000081399,0.532069645332127
1599.99999999964,10.4325416285252,1.00000000085316,0.540054203307417
1699.99999999955,14.7520217786517,1.00000000088063,0.543321136363
1799.99999999946,19.6732356496321,1.00000000085346,0.543065599021855
1899.99999999937,24.9587944693522,1.00000000084179,0.541280773228517
1999.99999999928,30.4860857767067,1.00000000080301,0.535299729893464
2099.99999999919,35.9803211267045,1.00000000077767,0.531646168776137
2199.99999999909,41.3696754544764,1.00000000074108,0.522382767616331
2299.999999999,46.424967849033,1.0000000007289,0.517839894698861
2399.99999999891,51.1228103578306,1.00000000071997,0.512537195029606
2499.99999999882,55.3147013184307,1.00000000064281,0.497953990403506
2599.99999999873,58.9969687703876,1.00000000060461,0.498387785313519
2699.99999999864,62.1404381752682,1.00000000057835,0.503713949000804
2799.99999999855,64.7280726099754,1.00000000052482,0.478624381524082
2899.99999999846,66.7293715762027,1.00000000050181,0.462363204883571
2999.99999999837,68.2106167039899,1.00000000054732,0.497207139447504
3099.99999999828,69.3171769402687,1.00000000052929,0.508773139597121
3199.99999999819,69.9853607047695,1.00000000044196,0.452102976922299
3299.99999999809,70.1319954730019,1.00000000034778,0.412705051018106
3399.999999998,69.8810503155285,1.00000000045561,0.47849849409879
3499.99999999791,69.515971520104,1.00000000058563,0.537322922385078
3599.99999999782,69.1096588169171,1.00000000058304,0.513961356652231
3699.99999999773,68.4798302558673,1.0000000003461,0.403423263012508
3799.99999999764,67.491871475666,1.00000000018838,0.340459884423944
3899.99999999755,66.2865040994141,1.00000000039274,0.431915718834723
3999.99999999746,65.101606282525,1.00000000066355,0.523628314609683
4099.99999999738,64.0599860060462,1.00000000072746,0.55519978587282
4199.99999999775,63.1411503675327,1.00000000062077,0.521029872107388
4299.99999999811,62.1806224525153,1.00000000037806,0.404865126605148
4399.99999999848,61.0492357897044,1.00000000015899,0.280944733250587
4499.99999999884,59.8041135157093,1.00000000020906,0.301118352616813
4599.9999999992,58.5522739496783,1.00000000045802,0.425629610146137
4699.99999999957,57.3452277620586,1.00000000064132,0.498841027628763
4799.99999999993,56.2236389791982,1.00000000072424,0.517820764218125
4900.00000000029,55.2220215644265,1.00000000072555,0.539520730036494
5000.00000000066,54.3198581703809,1.00000000061571,0.535685447141087
5100.00000000102,53.4398671793732,1.00000000044173,0.459555430970394
5200.00000000139,52.5138575310792,1.0000000002782,0.335884060887555
5300.00000000175,51.5657414543915,1.00000000016812,0.249377802871453
5400.00000000211,50.6769548939447,1.00000000019724,0.270340486495911
5500.00000000248,49.8711792566595,1.00000000037369,0.364448465285898
5600.00000000284,49.0904911114367,1.00000000052846,0.471709362175363
5700.00000000321,48.2956846168327,1.00000000060391,0.523641412539978
5800.00000000357,47.498668273224,1.00000000052633,0.4949055463345
5900.00000000393,46.7149086024592,1.0000000005271,0.449942169479179
6000.0000000043,45.9455868925877,1.00000000065989,0.476728984307084
6100.00000000466,45.2003096550867,1.00000000072803,0.539089466659884
6200.00000000502,44.4985602155353,1.00000000070256,0.559399548485326
6300.00000000539,43.8332101159028,1.00000000056913,0.526807981890191
6400.00000000575,43.1770900971736,1.00000000038524,0.442764173764353
6500.00000000612,42.5387829651132,1.00000000019322,0.332355233116612
6600.00000000648,41.9897994387682,1.00000000012613,0.248688976825007
6700.00000000684,41.6006212970033,1.00000000019919,0.240695462866005
6800.00000000721,41.3818629256483,1.00000000029207,0.298032889418024
6900.00000000757,41.2766254927084,1.00000000040303,0.380495426001431
7000.00000000793,41.1827052146503,1.0000000005353,0.455149613776191
7100.0000000083,41.0063828208429,1.00000000064966,0.49539332405562
7200.00000000866,40.7124608916765,1.00000000067853,0.514776146105947
7300.00000000903,40.3282871635652,1.00000000064932,0.535590864399713
7400.00000000939,39.9038915563879,1.00000000049425,0.530203100863663
7500.00000000975,39.4891583254167,1.00000000036535,0.476321509520964
7600.00000001012,39.1121687292754,1.0000000003117,0.431315013623629
7700.00000001048,38.7583963596413,1.00000000041782,0.442663788737901
7800.00000001084,38.3869809651962,1.0000000005481,0.476253051715079
7900.00000001121,37.9788616976954,1.00000000057941,0.49473378378357
8000.00000001157,37.5408578436729,1.00000000064485,0.4999375940397
8100.00000001194,37.0876496988967,1.0000000007078,0.52448358254716
8200.0000000123,36.6400977942151,1.00000000071505,0.5547376528059
8300.00000001266,36.211673751229,1.00000000068051,0.560256629232082
8400.00000001303,35.7965651219894,1.00000000055618,0.532884848584663
8500.00000001339,35.3852496199508,1.00000000037828,0.472124664809412
8600.00000001376,34.9935836783074,1.00000000024238,0.390138114521568
8700.00000001412,34.6787194399314,1.00000000014117,0.313244340249942
8800.00000001448,34.5178506346534,1.00000000013385,0.257524423335632
8900.00000001485,34.5700534453812,1.00000000017009,0.239955118004872
9000.00000001521,34.8548457761788,1.0000000002186,0.263382870550094
9100.00000001557,35.3401648635225,1.00000000030359,0.312256817711306
9200.00000001594,35.925189008349,1.00000000044716,0.375826357261588
9300.0000000163,36.5026010404641,1.00000000052479,0.435997048446823
9400.00000001667,36.9930020410734,1.00000000060513,0.480936210662774
9500.00000001703,37.35523401202,1.00000000059302,0.511989752803088
9600.00000001739,37.5808109619681,1.0000000006162,0.535246079477371
9700.00000001776,37.6862939384,1.00000000054146,0.548688197314315
9800.00000001812,37.7096253196162,1.00000000050737,0.53738059490563
9900.00000001848,37.6855845188966,1.00000000042942,0.502746168827427
10000.0000000188,37.6293980343318,1.00000000044465,0.478786149337798
10100.0000000192,37.5251273234327,1.00000000055461,0.488854059967771
10200.0000000196,37.3600037684088,1.00000000062092,0.5154463790955
10300.0000000199,37.1537135375824,1.00000000052104,0.531289976501493
10400.0000000203,36.9372302946563,1.00000000046365,0.514873535288246
10500.0000000207,36.7340655984027,1.0000000004222,0.485863056803646
10600.000000021,36.550491907401,1.0000000004245,0.465893970287435
10700.0000000214,36.3851238315457,1.00000000044952,0.459971950717391
10800.0000000218,36.2342742340725,1.00000000044784,0.467456634700941
10900.0000000221,36.0907018716844,1.00000000046252,0.47772154743539
11000.0000000225,35.9433542986193,1.00000000047607,0.495495263949238
11100.0000000229,35.7817930155019,1.00000000052708,0.516379923623827
11200.0000000232,35.6019013409568,1.00000000048709,0.531852968417122
11300.0000000236,35.4104755154079,1.00000000044593,0.527593254330573
11400.0000000239,35.2184221238134,1.00000000038838,0.519117123166538
11500.0000000243,35.025661465202,1.00000000039981,0.519639927244331
11600.0000000247,34.8225891066418,1.00000000046132,0.523440314714893
11700.000000025,34.6004055521306,1.00000000051807,0.525512810467977
11800.0000000254,34.3582147479116,1.00000000054928,0.524925654195462
11900.0000000258,34.0983566832335,1.00000000060773,0.528825735982695
12000.0000000261,33.8264223101615,1.00000000060828,0.537999902353697
12100.0000000265,33.5538813577209,1.00000000069404,0.543756272730867
12200.0000000269,33.29421908031,1.00000000075421,0.552965098424155
12300.0000000272,33.0588348027567,1.00000000074659,0.561905094518283
12400.0000000276,32.85100401383,1.00000000073199,0.56744437570938
12500.0000000279,32.6599115832084,1.00000000063719,0.561730902126387
12600.0000000283,32.4663078638664,1.00000000052491,0.540285355788445
12700.0000000287,32.2524021631441,1.0000000004096,0.503820731139074
12800.000000029,32.0157352636864,1.00000000030076,0.454363474499693
12900.0000000294,31.7759796978667,1.0000000002209,0.397026522667724
13000.0000000298,31.5756693107617,1.00000000015518,0.342352187790649
13100.0000000301,31.4714177365126,1.00000000014253,0.299858400789469
13200.0000000305,31.5226359064515,1.0000000001287,0.268864510828605
13300.0000000309,31.7824069632138,1.00000000011384,0.248451697048797
13400.0000000312,32.2870091439255,1.00000000015217,0.247437385353529
13500.0000000316,33.0326838007159,1.00000000022821,0.269709099084894
13600.0000000319,33.9911195736678,1.00000000027472,0.302929504790608
13700.0000000323,35.1117764083844,1.00000000037862,0.342525966811563
13800.0000000327,36.3114145446024,1.00000000047548,0.38303554020432
13900.000000033,37.5074297546595,1.00000000053916,0.42263628168162
14000.0000000334,38.638458883322,1.00000000058937,0.455749725444575
14100.0000000338,39.6687000063704,1.00000000058508,0.482274934432019
14200.0000000341,40.5722339742481,1.00000000063251,0.507828690214666
14300.0000000345,41.3409690192335,1.0000000005964,0.530551593369094
14400.0000000349,41.9788562500949,1.00000000058654,0.546367196722203
14500.0000000352,42.5013303771056,1.00000000055519,0.545526344661745
14600.0000000356,42.9313168946423,1.00000000049751,0.536120420079252
14700.0000000359,43.2835249468612,1.00000000051933,0.535023603429157
14800.0000000363,43.5622260085559,1.0000000004988,0.549170956112994
14900.0000000367,43.7673073947809,1.00000000051777,0.560507540417229
15000.000000037,43.9073003477567,1.00000000051484,0.564440302936608
15100.0000000374,43.9911681377547,1.00000000052731,0.552034514036673
15200.0000000378,44.0288692126773,1.00000000046813,0.533030266608349
15300.0000000381,44.0346091695658,1.00000000047963,0.518231995286016
15400.0000000385,44.0188701081083,1.00000000047365,0.513102742289167
15500.0000000389,43.9792381704651,1.00000000051806,0.525144653891956
15600.0000000392,43.9076043794594,1.00000000051183,0.534736570012468
15700.0000000396,43.8109653182339,1.00000000047894,0.536725201139686
15800.0000000399,43.7005583668746,1.00000000047179,0.539873404878642
15900.0000000403,43.5790016861144,1.00000000048684,0.540818189341031
16000.0000000407,43.4425141337019,1.00000000051685,0.54217911951155
16100.000000041,43.2924872295344,1.00000000052077,0.539201918865862
16200.0000000414,43.1358437902723,1.00000000044194,0.534084243649938
16300.0000000418,42.980107099446,1.0000000004138,0.521792936373191
16400.0000000418,42.8319853362501,1.00000000037978,0.513020668436681
16500.0000000404,42.6908014624863,1.00000000040108,0.513999898368232
16600.0000000389,42.5485668953225,1.00000000044454,0.517445211906307
16700.0000000375,42.3962509039742,1.00000000052721,0.518328872307153
16800.000000036,42.2319921397995,1.00000000054689,0.522397785830821
16900.0000000346,42.0558934154564,1.00000000057032,0.530316934326397
17000.0000000331,41.8654511902882,1.00000000060582,0.542735161308065
17100.0000000317,41.6626961891018,1.00000000060923,0.553042738324609
17200.0000000302,41.4534550275318,1.00000000052698,0.551950507588645
17300.0000000287,41.2443547638444,1.00000000047129,0.550026025916343
17400.0000000273,41.0424569655899,1.00000000042398,0.54208955253207
17500.0000000258,40.8581740171792,1.0000000003558,0.519531164051292
17600.0000000244,40.701242638209,1.00000000032697,0.50083462781624
17700.0000000229,40.5743996309124,1.00000000036762,0.481282576602983
17800.0000000215,40.4710004872948,1.00000000043314,0.469978496974827
17900.00000002,40.3829843178913,1.00000000046722,0.46987093146524
18000.0000000186,40.3079817802291,1.00000000046335,0.479159493213578
18100.0000000171,40.2435700827351,1.00000000043615,0.48391400632608
18200.0000000156,40.1886837346611,1.00000000044696,0.49017739467949
18300.0000000142,40.1377909573619,1.00000000045638,0.50452306737976
18400.0000000127,40.0866261366185,1.00000000047784,0.518194350808604
18500.0000000113,40.0308984901389,1.00000000046846,0.525220080218831
18600.0000000098,39.9661284801536,1.00000000049554,0.528149847884569
18700.0000000084,39.8918732941675,1.00000000050419,0.524991095617598
18800.0000000069,39.809898077561,1.00000000049753,0.524724900586145
18900.0000000055,39.7239189303763,1.00000000047548,0.528670544569757
19000.000000004,39.6324269764676,1.00000000047573,0.537237960480647
19100.0000000026,39.5339276840632,1.00000000048078,0.550749266911138
19200.0000000011,39.4297386687458,1.00000000049403,0.564012616538375
19299.9999999996,39.3224721972245,1.00000000045985,0.568547006316349
19399.9999999982,39.2122427343966,1.00000000048752,0.568188894648244
19499.9999999967,39.0955514356385,1.00000000051668,0.568554058154345
19599.9999999953,38.9699798309575,1.00000000051936,0.579888625722871
19699.9999999938,38.8330990821783,1.00000000053505,0.581989591071823
19799.9999999924,38.6889917390045,1.00000000046589,0.576932601411063
19899.9999999909,38.5450517520203,1.00000000042413,0.576708349541636
19999.9999999895,38.4070964833275,1.0000000004025,0.569504174529251
20099.999999988,38.2742871691374,1.00000000043039,0.561654737160093
20199.9999999865,38.1393948952099,1.000000000519,0.560904062632115
20299.9999999851,37.9992484745477,1.00000000049233,0.549552370466894
20399.9999999836,37.8573476281943,1.00000000044756,0.53507121612998
20499.9999999822,37.7192339054342,1.00000000041027,0.534375805165853
20599.9999999807,37.5858260552959,1.00000000041777,0.536914184374988
20699.9999999793,37.455266022906,1.00000000048533,0.540438539081541
20799.9999999778,37.3248190806281,1.00000000045694,0.545955478561054
20899.9999999764,37.1951436556507,1.00000000045545,0.55132356552914
20999.9999999749,37.0672305024617,1.00000000046203,0.557785153507618
21099.9999999734,36.9387080865797,1.00000000046225,0.553367676369296
21199.999999972,36.8061386119827,1.00000000052112,0.554376220888833
21299.9999999705,36.6665854127369,1.00000000053926,0.561136197091398
21399.9999999691,36.5216484267209,1.00000000051441,0.557363778560424
21499.9999999676,36.3731681328697,1.00000000049245,0.549097809255967
21599.9999999662,36.2219858934294,1.00000000052908,0.551282652797946
21699.9999999647,36.0678492006385,1.00000000051893,0.565211131339995
21799.9999999633,35.9118513057326,1.00000000052075,0.577779742636232
21899.9999999618,35.7562026352897,1.00000000046187,0.577143626592251
21999.9999999603,35.6018805153911,1.00000000041392,0.56847523434892
22099.9999999589,35.4495343153992,1.00000000045296,0.567668426697555
22199.9999999574,35.2977041497324,1.00000000049832,0.57595214010466
22299.999999956,35.1443716679708,1.0000000005173,0.575960430899427
22399.9999999545,34.9901162345375,1.00000000049422,0.581967958559349
22499.9999999531,34.8366986834751,1.00000000044033,0.580067202970616
22599.9999999516,34.6844103263032,1.00000000039898,0.566915706214866
22699.9999999502,34.5336053291532,1.0000000003852,0.562067264529495
22799.9999999487,34.3840544206388,1.00000000042208,0.5669219317155
22899.9999999473,34.2353422396361,1.00000000040374,0.572399717515913
22999.9999999458,34.0876796406596,1.0000000004149,0.571427368290335
23099.9999999443,33.9415042662793,1.00000000042817,0.5694407601513
23199.9999999429,33.7970196340838,1.00000000045606,0.572211000198717
23299.9999999414,33.6557014816792,1.00000000048768,0.583065571421187
23399.99999994,33.5189839725814,1.00000000049734,0.576213317010114
23499.9999999385,33.3893132761304,1.00000000051478,0.567780294406584
23599.9999999371,33.2706343795035,1.00000000054911,0.581871355705651
23699.9999999356,33.1665506474326,1.00000000057389,0.590540287295051
23799.9999999342,33.0841493555489,1.00000000061224,0.586506803752636
23899.9999999327,33.0265922179328,1.00000000065244,0.583915925640074
23999.9999999312,33.0018456988972,1.00000000063736,0.592940923189265
24099.9999999298,33.015180550695,1.00000000066309,0.598931396607998
24199.9999999283,33.0740473737447,1.00000000068075,0.6044651771742
24299.9999999269,33.1874761632339,1.00000000072255,0.607548179665698
24399.9999999254,33.3508105437193,1.00000000069349,0.607988786823349
24499.999999924,33.577208890591,1.00000000071492,0.604911119419814
24599.9999999225,33.8511151255036,1.00000000073554,0.601403077687018
24699.9999999211,34.1935664433678,1.00000000072121,0.595452073278413
24799.9999999196,34.5715654272745,1.00000000074899,0.588098373033576
24899.9999999181,34.9975286666794,1.00000000068065,0.580991692496964
24999.9999999167,35.4220007652935,1.00000000061979,0.574656175308834
25099.9999999152,35.8461058760226,1.00000000057732,0.566362106186331
25199.9999999138,36.2260151296836,1.00000000052952,0.55360325871327
25299.9999999123,36.554329638844,1.00000000047738,0.535345326421589
25399.9999999109,36.8078005511027,1.00000000040313,0.511648542297872
25499.9999999094,36.9759348931581,1.00000000035245,0.48821938917209
25599.999999908,37.063025320602,1.00000000030725,0.46076283379106
25699.9999999065,37.0665482122558,1.00000000024863,0.431696799919958
25799.9999999051,37.0077309682549,1.00000000023045,0.401930510926414
25899.9999999036,36.9006184057873,1.00000000019579,0.375034699967112
25999.9999999021,36.7731959975409,1.00000000017256,0.349432782427724
26099.9999999007,36.6578306709407,1.0000000001495,0.323453026717416
26199.9999998992,36.5825374251785,1.00000000012775,0.301314309633153
26299.9999998978,36.5886754704395,1.00000000011483,0.283947226577006
26399.9999998963,36.7077153377338,1.00000000010926,0.267289349695531
26499.9999998949,36.9725555441149,1.00000000010386,0.254548684015911
26599.9999998934,37.4218088240455,1.00000000012287,0.248004625205044
26699.999999892,38.0640745084709,1.00000000011842,0.250480542829273
26799.9999998905,38.9425723982074,1.00000000014015,0.253276346681081
26899.999999889,40.0394686954952,1.00000000017527,0.262552156990619
26999.9999998876,41.3751466308873,1.00000000019434,0.272840683626442
27099.9999998861,42.9288087792047,1.00000000025932,0.289666311950112
27199.9999998847,44.669134594503,1.00000000029179,0.308314265760388
27299.9999998832,46.5894443391948,1.00000000035383,0.328767021943596
27399.9999998818,48.6164456969753,1.00000000037339,0.348456622250947
27499.9999998803,50.7653431506718,1.00000000047316,0.367469913280946
27599.9999998789,52.9247180777884,1.00000000046823,0.384658676321352
27699.9999998774,55.1311808993322,1.00000000054807,0.39833857009241
27799.9999998759,57.2857190977642,1.00000000052986,0.41485510361045
27899.9999998745,59.4056643943463,1.00000000060323,0.432147461895373
27999.999999873,61.4352080987128,1.00000000057029,0.449903402237766
28099.9999998716,63.377661651321,1.00000000059871,0.464732982110387
28199.9999998701,65.2282170550661,1.00000000058159,0.47696712126146
28299.9999998687,66.9557124656928,1.00000000061386,0.48362460364605
28399.9999998672,68.5853609372249,1.00000000061186,0.49574827260974
28499.9999998658,70.081043482079,1.00000000060776,0.511272127431889
28599.9999998643,71.4826578729136,1.00000000059345,0.523747208944366
28699.9999998629,72.7647544314067,1.00000000056142,0.531814202135501
28799.9999998614,73.9540789073503,1.00000000059741,0.530581282720963
28899.9999998599,75.0399507436569,1.0000000005405,0.535974262583068
28999.9999998585,76.0246422641702,1.00000000056289,0.542550338561151
29099.999999857,76.9236806269035,1.00000000056822,0.557963629828999
