Time,AGPnorm,Energy,Entropy
0,0,1,-7.61957875550274e-17
99.9999999999986,0.00199062665489032,0.999999999998461,0.0061904761726668
199.999999999993,0.0140226562891572,0.999999999996249,0.0176947734309771
300,0.027667733246702,0.999999999997418,0.032336353376383
400.000000000022,0.0405359431192264,0.999999999999975,0.0512742456475017
500.000000000045,0.0565179095528722,0.999999999998745,0.0746637718041666
600.000000000068,0.0770897077551876,0.999999999996812,0.102005393011927
700.000000000091,0.0961522906210522,0.999999999997326,0.134341348636434
800.000000000113,0.114497302598509,1.00000000000624,0.17489346700138
900.000000000136,0.132220143638614,1.00000000008623,0.229210081289504
1000.00000000016,0.146846149193121,1.00000000038148,0.29250610830033
1100.0000000001,0.203540828988005,1.00000000083289,0.353616716634725
1200,0.358979645786368,1.0000000013611,0.406186646914593
1299.99999999991,0.668892880298632,1.00000000166743,0.451577074023149
1399.99999999982,1.26927269092498,1.00000000210309,0.488263710240673
1499.99999999973,2.28326903241682,1.00000000240278,0.516846848002246
1599.99999999964,3.7097676897665,1.00000000272457,0.539628500883364
1699.99999999955,5.51879265890616,1.00000000265481,0.558876971869772
1799.99999999946,7.72237988411847,1.00000000287241,0.572116680043699
1899.99999999937,10.2683018409306,1.00000000281816,0.581343297991977
1999.99999999928,13.0230156329234,1.00000000279679,0.588655212081619
2099.99999999919,15.8873677807774,1.00000000268955,0.593822853639492
2199.99999999909,18.8102077594555,1.00000000262974,0.596094440225634
2299.999999999,21.7245186097255,1.00000000241548,0.596512111483029
2399.99999999891,24.5290462240069,1.00000000237041,0.596224272652671
2499.99999999882,27.1517021058835,1.00000000241389,0.595337709700324
2599.99999999873,29.5683818648439,1.00000000214039,0.593551253782833
2699.99999999864,31.7622739335454,1.00000000206649,0.590032947386952
2799.99999999855,33.7053519073503,1.00000000197441,0.587613155775723
2899.99999999846,35.3702775927162,1.00000000193851,0.586671517165285
2999.99999999837,36.7556938155819,1.000000001895,0.58565642264644
3099.99999999828,37.8774714924531,1.000000001786,0.583810135848573
3199.99999999819,38.7469976483995,1.00000000170841,0.580302062625507
3299.99999999809,39.3750179046133,1.00000000160639,0.577643836015603
3399.999999998,39.7749323859519,1.00000000152893,0.578883432506761
3499.99999999791,39.9747729996184,1.00000000148658,0.570810300584705
3599.99999999782,40.0030841715328,1.00000000160092,0.581758623461686
3699.99999999773,39.8755173492004,1.00000000140765,0.560620557631522
3799.99999999764,39.6402145903238,1.00000000164242,0.575648197734747
3899.99999999755,39.2816769924181,1.00000000146277,0.556577178968059
3999.99999999746,38.8687037391723,1.00000000162374,0.568597792890711
4099.99999999738,38.3715020646663,1.00000000130464,0.539306486645203
4199.99999999775,37.8505465378491,1.00000000177397,0.571110123278318
4299.99999999811,37.2914122033637,1.00000000133084,0.527285153047104
4399.99999999848,36.6979728587263,1.0000000019225,0.577011992697163
4499.99999999884,36.1134340504926,1.00000000139198,0.530906192080068
4599.9999999992,35.4980207581028,1.0000000014031,0.521863302791073
4699.99999999957,34.8938331636069,1.00000000202466,0.568541997483509
4799.99999999993,34.2997374599635,1.00000000136079,0.51253019818624
4900.00000000029,33.691051123849,1.00000000150475,0.519029143908683
5000.00000000066,33.0981599070063,1.00000000203664,0.554497306833397
5100.00000000102,32.5237591050568,1.00000000136188,0.502821797269273
5200.00000000139,31.9500267400397,1.00000000143557,0.516477250512119
5300.00000000175,31.3842208499073,1.0000000017017,0.534266486204946
5400.00000000211,30.8382842818661,1.0000000018339,0.522577754348103
5500.00000000248,30.3060162614977,1.00000000143668,0.501283815920284
5600.00000000284,29.7836404947754,1.00000000154528,0.530889885010389
5700.00000000321,29.2746702790655,1.00000000170189,0.520337915129962
5800.00000000357,28.7817241280891,1.00000000173477,0.522784918572334
5900.00000000393,28.3052798337366,1.00000000136916,0.498489008273229
6000.0000000043,27.8440816922607,1.00000000169046,0.537600763293066
6100.00000000466,27.3971284916451,1.00000000150968,0.525022767382744
6200.00000000502,26.9663801919112,1.00000000154797,0.513472222660405
6300.00000000539,26.5493530177063,1.00000000170323,0.515514619376114
6400.00000000575,26.1498502940477,1.00000000139706,0.50631198677098
6500.00000000612,25.7666597763882,1.00000000167126,0.538799664353463
6600.00000000648,25.3933949733512,1.00000000168505,0.54145586228529
6700.00000000684,25.0389756947369,1.0000000015095,0.499502781851574
6800.00000000721,24.6993097155862,1.00000000176934,0.524636865555926
6900.00000000757,24.369576155571,1.00000000163895,0.5080495455147
7000.00000000793,24.0563671594895,1.0000000016401,0.516329395068108
7100.0000000083,23.7553395069124,1.00000000165626,0.53877772989564
7200.00000000866,23.4588962941482,1.00000000179719,0.54106864436629
7300.00000000903,23.177819507112,1.00000000140768,0.516846274443764
7400.00000000939,22.9129770825285,1.00000000158745,0.511004506077155
7500.00000000975,22.6592412217747,1.00000000173421,0.526355217796604
7600.00000001012,22.4148143416338,1.00000000169061,0.514883488389459
7700.00000001048,22.1827921468403,1.00000000157972,0.528281157691661
7800.00000001084,21.9594324525998,1.00000000158111,0.546829211734728
7900.00000001121,21.7414667286923,1.00000000168562,0.540040614281531
8000.00000001157,21.5287888312425,1.00000000168426,0.54195938245885
8100.00000001194,21.3251806075915,1.00000000165701,0.543382399639941
8200.0000000123,21.1339276994646,1.000000001539,0.51943734273598
8300.00000001266,20.9578336532301,1.00000000167903,0.539473469431986
8400.00000001303,20.7906169991147,1.00000000168896,0.535855402547113
8500.00000001339,20.6304561162906,1.00000000158421,0.535911588871998
8600.00000001376,20.4784436371185,1.00000000169035,0.549816662813703
8700.00000001412,20.3281514151188,1.00000000169353,0.561212750376624
8800.00000001448,20.1884759457304,1.00000000146234,0.544543245807833
8900.00000001485,20.0545154360133,1.00000000175249,0.54949452137727
9000.00000001521,19.9155422901342,1.00000000183098,0.558328642888323
9100.00000001557,19.7757963594523,1.00000000171743,0.561649012840198
9200.00000001594,19.6491607128427,1.00000000143725,0.534492877344905
9300.0000000163,19.5378171159293,1.00000000158408,0.547073439497837
9400.00000001667,19.4329230744341,1.0000000017187,0.558674770804761
9500.00000001703,19.3345492831942,1.00000000170536,0.547053781809377
9600.00000001739,19.2422108350961,1.00000000173331,0.55506068471868
9700.00000001776,19.1548026207423,1.00000000163656,0.561986649544129
9800.00000001812,19.0648782932648,1.00000000182154,0.563861658221054
9900.00000001848,18.9770346031894,1.00000000169909,0.560550944217688
10000.0000000188,18.9004183185316,1.00000000155177,0.553870344330279
10100.0000000192,18.826597228419,1.00000000181111,0.569570105674332
10200.0000000196,18.7470515368717,1.0000000018385,0.560803945712068
10300.0000000199,18.6625501224414,1.00000000185271,0.571115337942045
10400.0000000203,18.5774033127556,1.00000000165856,0.581717533084136
10500.0000000207,18.4981127613454,1.00000000163992,0.573711794445497
10600.000000021,18.4271736060096,1.00000000161004,0.579114944529019
10700.0000000214,18.3643869558191,1.00000000172005,0.576442285419433
10800.0000000218,18.3110479904821,1.00000000164159,0.566211118776756
10900.0000000221,18.2667182081228,1.00000000161792,0.560501395808731
11000.0000000225,18.2261307140017,1.00000000181715,0.576408138874542
11100.0000000229,18.1848211858693,1.00000000179682,0.58661028230697
11200.0000000232,18.1432365202909,1.0000000017227,0.578628663045153
11300.0000000236,18.1054148803083,1.0000000017168,0.577186021529641
11400.0000000239,18.0659062634912,1.00000000175217,0.585130045308664
11500.0000000243,18.0274264717543,1.00000000175155,0.580795416893121
11600.0000000247,17.9952396060768,1.00000000162795,0.578382532982189
11700.000000025,17.9645627793868,1.00000000179127,0.585278770648093
11800.0000000254,17.9344355945989,1.00000000169179,0.583749734260578
11900.0000000258,17.8997995864246,1.0000000018678,0.591793017358871
12000.0000000261,17.8557117319392,1.00000000190108,0.600213031222813
12100.0000000265,17.803599864932,1.00000000190077,0.615310037710743
12200.0000000269,17.7501886749113,1.00000000176493,0.6138099314872
12300.0000000272,17.7028723178772,1.00000000159134,0.598848917437095
12400.0000000276,17.665177254961,1.00000000165494,0.600480466228233
12500.0000000279,17.6369917051966,1.00000000173028,0.591552204039
12600.0000000283,17.6188749039188,1.00000000172646,0.578472762862027
12700.0000000287,17.608334466134,1.00000000177512,0.577315661961789
12800.000000029,17.6015133097846,1.00000000187818,0.584388192292818
12900.0000000294,17.591778632657,1.00000000183709,0.59319540373539
13000.0000000298,17.5829533893861,1.00000000171475,0.60065471086988
13100.0000000301,17.5739218510522,1.00000000181521,0.595874527608529
13200.0000000305,17.5662829793261,1.00000000174122,0.599280417569812
13300.0000000309,17.563627591105,1.00000000168267,0.591778908619462
13400.0000000312,17.557248393644,1.00000000196288,0.594925784972548
13500.0000000316,17.5440963378863,1.0000000018283,0.595178451462751
13600.0000000319,17.5348041495929,1.00000000162264,0.590455967891846
13700.0000000323,17.5334051535988,1.00000000174848,0.597030990618207
13800.0000000327,17.5348250559949,1.00000000191191,0.610824673290838
13900.000000033,17.5305865974122,1.000000001946,0.616531550432705
14000.0000000334,17.5186124442335,1.0000000017906,0.620785880785458
14100.0000000338,17.5044988352973,1.00000000174749,0.619409590840324
14200.0000000341,17.4883904788801,1.00000000186222,0.617938319534706
14300.0000000345,17.4671684792347,1.00000000191553,0.619487402689909
14400.0000000349,17.4405468178524,1.00000000193161,0.617340909534701
14500.0000000352,17.4075226473008,1.00000000200818,0.620679694094342
14600.0000000356,17.3712487249007,1.00000000196443,0.615993107971387
14700.0000000359,17.3361690452577,1.00000000181569,0.612008351697321
14800.0000000363,17.3069953917315,1.0000000017634,0.610021197518707
14900.0000000367,17.2865828510386,1.00000000179741,0.604688917541178
15000.000000037,17.273904510277,1.00000000193637,0.606195128738838
15100.0000000374,17.269033302772,1.00000000178899,0.598920847935671
15200.0000000378,17.2732072639186,1.00000000177713,0.592164146560143
15300.0000000381,17.2844729573884,1.00000000190983,0.598260612150187
15400.0000000385,17.2952868691295,1.00000000195573,0.602002977912488
15500.0000000389,17.3067509616904,1.00000000183709,0.60760215222447
15600.0000000392,17.3177031859283,1.0000000019407,0.611958481081666
15700.0000000396,17.32755757067,1.00000000191123,0.605671294569665
15800.0000000399,17.3432264004492,1.00000000173719,0.591902153331321
15900.0000000403,17.3597717329856,1.00000000197328,0.598232581211371
16000.0000000407,17.3709819274559,1.00000000207699,0.607757219830099
16100.000000041,17.3792927384224,1.0000000018873,0.609743677697385
16200.0000000414,17.3901755306908,1.00000000183272,0.608689939216453
16300.0000000418,17.4019965988601,1.00000000195927,0.602352071034126
16400.0000000418,17.411916446503,1.00000000182676,0.603597464353519
16500.0000000404,17.4219831231282,1.00000000199884,0.598281440336348
16600.0000000389,17.43327989352,1.00000000186787,0.59490985564873
16700.0000000375,17.4494973939669,1.00000000197445,0.609903139285847
16800.000000036,17.4660619873582,1.0000000020303,0.621090990094504
16900.0000000346,17.4766189321238,1.00000000206827,0.632529749629424
17000.0000000331,17.4842451904533,1.00000000196219,0.643803428579894
17100.0000000317,17.4897336163647,1.00000000204351,0.639506520185182
17200.0000000302,17.4885028334462,1.00000000203237,0.631486540486414
17300.0000000287,17.4854732740063,1.00000000182144,0.634294810142496
17400.0000000273,17.4820292684062,1.00000000190353,0.643511394490476
17500.0000000258,17.4771673372723,1.00000000192427,0.650650927822848
17600.0000000244,17.4705910103488,1.00000000190955,0.654928255270006
17700.0000000229,17.4623067002925,1.00000000195554,0.658209398996889
17800.0000000215,17.4489013630559,1.0000000020693,0.656952378702227
17900.00000002,17.4310964172497,1.00000000201606,0.645065207548881
18000.0000000186,17.4101931757233,1.00000000208085,0.641694820404557
18100.0000000171,17.3832514868613,1.00000000219482,0.640881932947197
18200.0000000156,17.3503282572117,1.0000000021637,0.628810505172543
18300.0000000142,17.3155877444479,1.00000000196405,0.631116334947385
18400.0000000127,17.2847653823526,1.00000000198474,0.630658883026665
18500.0000000113,17.2613057710312,1.00000000184707,0.625666335330623
18600.0000000098,17.2469546718929,1.00000000193056,0.624596166330888
18700.0000000084,17.2398322119733,1.00000000196672,0.628405102827729
18800.0000000069,17.2374385277504,1.0000000019731,0.630165168717686
18900.0000000055,17.2431020390953,1.00000000197694,0.62684259063517
19000.000000004,17.2575396946806,1.00000000195109,0.617700192157225
19100.0000000026,17.27950318839,1.00000000193659,0.61526332109894
19200.0000000011,17.3020943572055,1.00000000209069,0.616942758689511
19299.9999999996,17.324294686215,1.00000000210738,0.61880239442419
19399.9999999982,17.3477058818,1.00000000204264,0.617817367111009
19499.9999999967,17.3705675154499,1.00000000219928,0.628888457653987
19599.9999999953,17.3950581934396,1.00000000197413,0.625248782417592
19699.9999999938,17.4246566047175,1.00000000190403,0.61583566130793
19799.9999999924,17.4545951650005,1.00000000218162,0.607492007868014
19899.9999999909,17.4812396670683,1.0000000021795,0.608552309278995
19999.9999999895,17.5083639834853,1.0000000019993,0.613350655256502
20099.999999988,17.5370771473789,1.00000000214614,0.612804617062109
20199.9999999865,17.5619971864889,1.00000000220348,0.616145275585673
20299.9999999851,17.5819329852986,1.00000000217517,0.613516995549526
20399.9999999836,17.6021544134466,1.00000000193821,0.608940165410946
20499.9999999822,17.6287565144527,1.00000000193364,0.60882775004495
20599.9999999807,17.6584271196866,1.00000000215676,0.613750395540883
20699.9999999793,17.6864714041482,1.00000000216314,0.612823975118392
20799.9999999778,17.7112665362142,1.00000000210877,0.620945101565177
20899.9999999764,17.7373358565908,1.00000000209473,0.629425051717582
20999.9999999749,17.7643691806969,1.00000000210167,0.644129174161782
21099.9999999734,17.7903642422631,1.00000000231062,0.649053094059805
21199.999999972,17.8093717117766,1.00000000225556,0.643401027877879
21299.9999999705,17.8254519569275,1.00000000216911,0.648288622054874
21399.9999999691,17.8403331611507,1.00000000229377,0.650532536243951
21499.9999999676,17.8527380631655,1.0000000020543,0.654766648698942
21599.9999999662,17.868525551158,1.00000000211472,0.648505576254371
21699.9999999647,17.8894712833978,1.00000000205347,0.65118429953064
21799.9999999633,17.9098096494605,1.00000000221701,0.655126083339795
21899.9999999618,17.9268204886451,1.00000000229177,0.661257550812804
21999.9999999603,17.9436902281009,1.00000000216388,0.658351060142018
22099.9999999589,17.9592092252239,1.00000000216408,0.659946058538986
22199.9999999574,17.9718806598374,1.0000000022683,0.655973162396775
22299.999999956,17.9810211718797,1.00000000226908,0.651416001617807
22399.9999999545,17.9886272008775,1.00000000224003,0.660364868093512
22499.9999999531,17.994126929251,1.00000000216483,0.6572774646961
22599.9999999516,18.0010668516477,1.00000000217891,0.664716556086948
22699.9999999502,18.0073434145532,1.00000000214933,0.665265841879657
22799.9999999487,18.0125726055604,1.00000000219526,0.665425209999985
22899.9999999473,18.0145412521496,1.00000000225783,0.655379117373742
22999.9999999458,18.0144547410091,1.00000000223813,0.659384858437615
23099.9999999443,18.0119993465581,1.00000000232132,0.672186660957387
23199.9999999429,18.0070278005954,1.00000000215473,0.664697903323615
23299.9999999414,18.0008039946991,1.00000000226627,0.663129035767475
23399.99999994,17.9937368363382,1.00000000229643,0.670618572601287
23499.9999999385,17.9844515125038,1.00000000225159,0.678002197693348
23599.9999999371,17.9744502973679,1.0000000021701,0.670274984628242
23699.9999999356,17.9641652381881,1.00000000234441,0.670767001917103
23799.9999999342,17.9511254386782,1.00000000248906,0.666350026884187
23899.9999999327,17.934406321703,1.00000000236263,0.675267181561424
23999.9999999312,17.9142855289603,1.0000000023511,0.684888096108945
24099.9999999298,17.8928333917457,1.0000000022059,0.674838292351139
24199.9999999283,17.8715163687582,1.00000000242791,0.680029187802058
24299.9999999269,17.8473576325591,1.00000000229273,0.680814206091274
24399.9999999254,17.8235564327052,1.00000000215968,0.680043260541225
24499.999999924,17.8012132846877,1.00000000223467,0.674022004295565
24599.9999999225,17.7813924632605,1.0000000022363,0.666079400792475
24699.9999999211,17.7668466165698,1.00000000217364,0.661399977189995
24799.9999999196,17.7589016773405,1.00000000229425,0.652162009982457
24899.9999999181,17.7569014108791,1.00000000234084,0.642314332537979
24999.9999999167,17.7602288595839,1.0000000022579,0.640350089576603
25099.9999999152,17.7688857052584,1.00000000231025,0.640687843790613
25199.9999999138,17.7833958840108,1.00000000226841,0.644537375648182
25299.9999999123,17.8049401538267,1.00000000219983,0.642848308940074
25399.9999999109,17.8336901625069,1.00000000220084,0.645618560841761
25499.9999999094,17.8674004445837,1.0000000023781,0.645136526802621
25599.999999908,17.9045902639425,1.00000000231051,0.643866075196976
25699.9999999065,17.9422990661537,1.00000000240983,0.647609822269729
25799.9999999051,17.9792271894545,1.00000000244208,0.649380456249838
25899.9999999036,18.0164549699864,1.0000000023953,0.644722142704265
25999.9999999021,18.054499448336,1.00000000237681,0.644591770729447
26099.9999999007,18.0957278524921,1.00000000232078,0.643140552229953
26199.9999998992,18.1380290522574,1.00000000227678,0.642270936492884
26299.9999998978,18.1826931259551,1.00000000231876,0.64540210455588
26399.9999998963,18.2319912646195,1.00000000220959,0.63813094261672
26499.9999998949,18.2828755692878,1.00000000238862,0.645069197281962
26599.9999998934,18.3311302794075,1.00000000242797,0.644632654162341
26699.999999892,18.3808397865066,1.00000000235873,0.634976226123905
26799.9999998905,18.4289821919091,1.00000000250561,0.643057138907655
26899.999999889,18.4759446417283,1.00000000235008,0.643864771604815
26999.9999998876,18.5190613541833,1.00000000250599,0.63924582823205
27099.9999998861,18.5636555762838,1.00000000236386,0.630054164838837
27199.9999998847,18.6099200241469,1.00000000247906,0.627592233899254
27299.9999998832,18.6551583399754,1.00000000242535,0.640532299373024
27399.9999998818,18.7033202918659,1.00000000240424,0.640018207678859
27499.9999998803,18.7527930032889,1.0000000023856,0.636858525124594
27599.9999998789,18.8061232068361,1.00000000232447,0.633392516121989
27699.9999998774,18.8624819470156,1.00000000246644,0.650428100356996
27799.9999998759,18.9163858201122,1.00000000241274,0.658057182056026
27899.9999998745,18.9690035312318,1.00000000253926,0.657778926763558
27999.999999873,19.0185061571833,1.00000000240461,0.651428017974977
28099.9999998716,19.0649161372867,1.00000000256774,0.666819323567185
28199.9999998701,19.1085817919777,1.00000000252198,0.673250883335937
28299.9999998687,19.1475956310121,1.0000000025694,0.676058693678622
28399.9999998672,19.1830589956748,1.00000000246821,0.669569051216787
28499.9999998658,19.2175066563097,1.0000000026595,0.676466900445641
28599.9999998643,19.2504803225055,1.00000000238611,0.674512850957843
28699.9999998629,19.2871152606447,1.00000000234466,0.680262782666416
28799.9999998614,19.3216553839549,1.00000000249216,0.685189586898962
28899.9999998599,19.3519571678836,1.00000000258786,0.688827160950108
28999.9999998585,19.3788069612423,1.00000000252842,0.695368237283925
