Time,AGPnorm,Energy,Entropy
0,0,1,-7.61957875550273e-17
99.9999999999986,0.00193445907726268,0.999999999999391,0.00596005777208091
199.999999999993,0.0131345349259654,0.999999999997708,0.0171639271243554
300,0.0265824884983922,0.999999999998131,0.0314100630538838
400.000000000022,0.0392171468679816,0.999999999999897,0.0496218479293027
500.000000000045,0.05441026987273,0.999999999999346,0.0721154144626188
600.000000000068,0.074216593043681,0.999999999998054,0.0985241935673655
700.000000000091,0.0931279995690351,0.999999999998245,0.129496273429437
800.000000000113,0.110882971491169,1.00000000000384,0.167752542948408
900.000000000136,0.128644390598411,1.0000000000578,0.218393121725827
1000.00000000016,0.142728496519162,1.00000000026775,0.27975651706992
1100.0000000001,0.187621242367991,1.00000000070078,0.340895975630397
1200,0.316251638976616,1.00000000116644,0.394321926273971
1299.99999999991,0.578460030921505,1.0000000016492,0.440230229014956
1399.99999999982,1.0975165008163,1.00000000203192,0.478302788559217
1499.99999999973,2.00520572807083,1.00000000232272,0.508269684952091
1599.99999999964,3.32739170178219,1.00000000245317,0.532467392797852
1699.99999999955,5.04414572326946,1.00000000255388,0.552251842969452
1799.99999999946,7.16586067787099,1.00000000264449,0.567198248809264
1899.99999999937,9.65102239470254,1.00000000259031,0.577371241407733
1999.99999999928,12.3825464281162,1.00000000253657,0.585430881401732
2099.99999999919,15.2661231447499,1.00000000263495,0.591004332026262
2199.99999999909,18.2443681055351,1.00000000255599,0.594113390158032
2299.999999999,21.242047675922,1.0000000023657,0.594789514420099
2399.99999999891,24.1596788883229,1.00000000239369,0.595163653602042
2499.99999999882,26.9235424127325,1.00000000226705,0.595097114197643
2599.99999999873,29.5041837742541,1.00000000220087,0.593130002728006
2699.99999999864,31.8761611534532,1.00000000205318,0.590279952052592
2799.99999999855,34.0040012228964,1.00000000202898,0.587987240257085
2899.99999999846,35.8575815410377,1.00000000188137,0.587432997570765
2999.99999999837,37.4325778436283,1.00000000189651,0.586014123933256
3099.99999999828,38.7409683577992,1.00000000178113,0.583238709633842
3199.99999999819,39.7907892559397,1.00000000165372,0.57928478030285
3299.99999999809,40.5872963511447,1.00000000156299,0.578622348677888
3399.999999998,41.1410282480592,1.00000000152892,0.57578792998587
3499.99999999791,41.4828416056582,1.00000000149582,0.57417404339951
3599.99999999782,41.6252470162507,1.0000000016099,0.582773852044772
3699.99999999773,41.6050122041004,1.00000000129407,0.558385620937811
3799.99999999764,41.444691539495,1.00000000159504,0.582184626605722
3899.99999999755,41.1597891014779,1.00000000126606,0.550862916106772
3999.99999999746,40.7840586332339,1.00000000168303,0.578484861348205
4099.99999999738,40.335316118229,1.00000000121008,0.541523471928715
4199.99999999775,39.8214086699626,1.00000000176014,0.578680672765015
4299.99999999811,39.2859271827161,1.0000000013845,0.543778137170595
4399.99999999848,38.6885764503978,1.00000000146589,0.547218592842886
4499.99999999884,38.0993102380739,1.00000000174099,0.554808602506477
4599.9999999992,37.4888520532173,1.00000000124845,0.516028815963968
4699.99999999957,36.8585818619117,1.00000000193765,0.56367357746812
4799.99999999993,36.2516935962101,1.00000000154154,0.527836093578734
4900.00000000029,35.6328348613023,1.00000000121634,0.508598362355589
5000.00000000066,35.0102140387761,1.00000000183394,0.547588184563907
5100.00000000102,34.414481805145,1.00000000173635,0.526249181349054
5200.00000000139,33.8235013661524,1.00000000135698,0.505612514103768
5300.00000000175,33.2311767909968,1.00000000151275,0.518891277883707
5400.00000000211,32.6566924502014,1.00000000189465,0.544528724071288
5500.00000000248,32.1006686329366,1.00000000145181,0.492105907139597
5600.00000000284,31.5539707610786,1.00000000144147,0.521502834995928
5700.00000000321,31.0174959687607,1.00000000148136,0.519333636333094
5800.00000000357,30.496974445676,1.00000000177619,0.529519343275589
5900.00000000393,29.9928215006644,1.00000000145884,0.506894692423303
6000.0000000043,29.5045468449666,1.00000000143196,0.509875796164886
6100.00000000466,29.0304372600295,1.00000000153411,0.539480122992246
6200.00000000502,28.5716692365714,1.00000000135532,0.511877858411846
6300.00000000539,28.1291336933638,1.00000000160565,0.51953742538455
6400.00000000575,27.7003440670176,1.0000000015438,0.509340765885643
6500.00000000612,27.2903973557667,1.00000000142452,0.507255397857194
6600.00000000648,26.8938534472256,1.00000000177172,0.545172050548464
6700.00000000684,26.5109940375391,1.00000000140639,0.525787537577958
6800.00000000721,26.1465746922253,1.00000000154368,0.507654395402794
6900.00000000757,25.795169284749,1.00000000174477,0.519720523425376
7000.00000000793,25.455029486752,1.0000000015669,0.505990406895515
7100.0000000083,25.1319525017606,1.00000000140112,0.520659939268342
7200.00000000866,24.8200246072781,1.00000000183479,0.539948596940223
7300.00000000903,24.5145854194067,1.00000000154067,0.530509072377977
7400.00000000939,24.2267361951897,1.00000000142361,0.511575043631591
7500.00000000975,23.9539285381129,1.00000000160316,0.516115965746585
7600.00000001012,23.6895505342364,1.0000000017693,0.522153084325089
7700.00000001048,23.4359388130425,1.00000000147917,0.505590436974954
7800.00000001084,23.1953772613061,1.00000000156618,0.526786586914886
7900.00000001121,22.962953147186,1.00000000162604,0.544184251494618
8000.00000001157,22.7367218018026,1.0000000016793,0.533963063540573
8100.00000001194,22.5168186196036,1.00000000154142,0.534934347720045
8200.0000000123,22.3075163409423,1.00000000152863,0.535597399572275
8300.00000001266,22.1099093887036,1.00000000158421,0.523849293817731
8400.00000001303,21.9220926083466,1.00000000156255,0.53329755409506
8500.00000001339,21.7441114786104,1.00000000160885,0.525041829785921
8600.00000001376,21.5774693796261,1.00000000149569,0.526263441844825
8700.00000001412,21.4187156387674,1.00000000165045,0.544195300421616
8800.00000001448,21.2606025157064,1.00000000160166,0.556689099996721
8900.00000001485,21.1135896046122,1.00000000140532,0.535612768517203
9000.00000001521,20.9721266036298,1.00000000166106,0.5383265382205
9100.00000001557,20.8301779857733,1.00000000176562,0.558652441237487
9200.00000001594,20.6870944531477,1.00000000167092,0.560156868619147
9300.0000000163,20.5546826603561,1.00000000146764,0.532604006146371
9400.00000001667,20.4333207377727,1.00000000163144,0.54430419615875
9500.00000001703,20.3188134859732,1.00000000164449,0.542418349909133
9600.00000001739,20.2144285450672,1.00000000154539,0.534755279426594
9700.00000001776,20.117914352425,1.0000000015756,0.546962132832006
9800.00000001812,20.0250756995587,1.00000000173512,0.557653511398801
9900.00000001848,19.9277939293581,1.00000000176223,0.558959626547588
10000.0000000188,19.8347464950919,1.00000000154733,0.547883200165949
10100.0000000192,19.7568425320707,1.00000000145346,0.539629322500903
10200.0000000196,19.6827260237209,1.00000000171503,0.558908421101891
10300.0000000199,19.6008352867941,1.00000000181095,0.556186742639793
10400.0000000203,19.513222185926,1.0000000017143,0.566248872867069
10500.0000000207,19.4242461105168,1.00000000163181,0.575313110818193
10600.000000021,19.3395553642043,1.00000000163203,0.567569191431205
10700.0000000214,19.2621517346605,1.0000000016337,0.568170897606375
10800.0000000218,19.1940281592364,1.00000000166781,0.565266641321202
10900.0000000221,19.1347652485672,1.00000000148835,0.551649722414134
11000.0000000225,19.0847926160647,1.00000000159062,0.54623120389592
11100.0000000229,19.0390770379942,1.00000000163422,0.563266309348454
11200.0000000232,18.9929033417988,1.00000000170868,0.576930252848126
11300.0000000236,18.9469782431986,1.00000000157889,0.570196293073699
11400.0000000239,18.9052293794228,1.00000000158227,0.563885082420741
11500.0000000243,18.8664902196057,1.00000000164524,0.574125091502063
11600.0000000247,18.8319737758008,1.00000000165105,0.57078256239315
11700.000000025,18.8007571085969,1.00000000167056,0.571109222534283
11800.0000000254,18.7679752325637,1.00000000171387,0.580025317612192
11900.0000000258,18.7310075862104,1.00000000161864,0.588044004099611
12000.0000000261,18.691062765783,1.00000000170603,0.586701961873638
12100.0000000265,18.6458462563714,1.00000000169423,0.593436085198753
12200.0000000269,18.5951765165146,1.00000000176693,0.600288105451732
12300.0000000272,18.5420374741304,1.00000000170965,0.608950209869015
12400.0000000276,18.4906744705482,1.00000000161758,0.601997006018601
12500.0000000279,18.4438630305309,1.00000000167571,0.603795139066709
12600.0000000283,18.4039959365824,1.00000000164255,0.595451896564585
12700.0000000287,18.3732444195473,1.00000000150449,0.575621459777861
12800.000000029,18.353139125181,1.00000000156846,0.564905687366779
12900.0000000294,18.3401941922858,1.00000000168947,0.572774470041465
13000.0000000298,18.3275432360055,1.00000000176826,0.585322071187504
13100.0000000301,18.3138333250097,1.00000000178912,0.597307534469315
13200.0000000305,18.3017513658432,1.00000000170674,0.592071662548614
13300.0000000309,18.2894352655266,1.00000000168584,0.590235057500902
13400.0000000312,18.2828330024405,1.00000000158641,0.585273219658165
13500.0000000316,18.2790509150416,1.00000000179473,0.58904884281339
13600.0000000319,18.2705505421856,1.0000000017786,0.59696251692972
13700.0000000323,18.264372545661,1.00000000157342,0.59633979879023
13800.0000000327,18.263362276092,1.00000000160528,0.601731050452965
13900.000000033,18.2597037073126,1.00000000176819,0.617934013597694
14000.0000000334,18.2489582669635,1.00000000187791,0.621614706459705
14100.0000000338,18.2293858380561,1.00000000182796,0.614882080322335
14200.0000000341,18.2065122155324,1.00000000166349,0.617809878176514
14300.0000000345,18.1868640944824,1.000000001637,0.607982362878207
14400.0000000349,18.16685718885,1.00000000181422,0.618955527954666
14500.0000000352,18.1432595639004,1.00000000181757,0.616613517989761
14600.0000000356,18.1132649927082,1.00000000186256,0.617918688396104
14700.0000000359,18.0766930687293,1.00000000182226,0.62029069330482
14800.0000000363,18.0364137279786,1.00000000177842,0.620636376403684
14900.0000000367,17.9957304192356,1.00000000177901,0.621386212762955
15000.000000037,17.9603071280036,1.00000000169075,0.615257367139316
15100.0000000374,17.9335180649717,1.00000000163736,0.610644953452103
15200.0000000378,17.9167191181998,1.00000000170858,0.599483110239409
15300.0000000381,17.9100996674437,1.00000000163231,0.591874017050443
15400.0000000385,17.9124219298275,1.00000000170358,0.588148763799336
15500.0000000389,17.9191095729606,1.00000000181697,0.593806710759463
15600.0000000392,17.926384387585,1.00000000183144,0.600582907232587
15700.0000000396,17.9351806526464,1.0000000017048,0.600193282288779
15800.0000000399,17.9428728197525,1.00000000186508,0.601678020525463
15900.0000000403,17.951392176758,1.00000000165681,0.593953995980327
16000.0000000407,17.9665313636438,1.00000000165915,0.595466975789007
16100.000000041,17.9831592643016,1.00000000178853,0.598124098727033
16200.0000000414,17.9969980624909,1.00000000184136,0.608809869213799
16300.0000000418,18.0107667330722,1.00000000172504,0.614488754370325
16400.0000000418,18.0265617760829,1.00000000172635,0.614236633943283
16500.0000000404,18.0402666276023,1.00000000173698,0.610980439597822
16600.0000000389,18.0498068485321,1.00000000186141,0.615243320128841
16700.0000000375,18.0563102408445,1.00000000191248,0.601491763026559
16800.000000036,18.0611754171027,1.0000000017852,0.610760670791892
16900.0000000346,18.0687002275756,1.00000000185288,0.63259999075347
17000.0000000331,18.0729930708475,1.00000000179542,0.634367733371185
17100.0000000317,18.0729995302216,1.00000000176809,0.645868847665865
17200.0000000302,18.0712641659579,1.00000000179229,0.643065909275723
17300.0000000287,18.0676008432442,1.00000000186398,0.640378478092051
17400.0000000273,18.061636715336,1.00000000181025,0.639768731686587
17500.0000000258,18.055257785903,1.00000000180579,0.645875762769244
17600.0000000244,18.0481942261874,1.00000000189583,0.646394124824177
17700.0000000229,18.0371578268898,1.00000000183929,0.650067599993654
17800.0000000215,18.0239356072588,1.00000000179875,0.654110832069351
17900.00000002,18.0080438837875,1.0000000018627,0.65558017434081
18000.0000000186,17.9874240147284,1.00000000187801,0.651538781688016
18100.0000000171,17.964108449705,1.00000000183454,0.648036535647239
18200.0000000156,17.9386751781483,1.00000000179291,0.641398188504418
18300.0000000142,17.9097569347226,1.00000000194034,0.632611714641366
18400.0000000127,17.8751174789837,1.00000000190768,0.630040938177112
18500.0000000113,17.8393713018756,1.00000000186435,0.641925096637733
18600.0000000098,17.8055948462954,1.00000000183499,0.639159162195501
18700.0000000084,17.7758445372195,1.00000000186621,0.635638718235941
18800.0000000069,17.7519629996847,1.00000000187198,0.639994711299829
18900.0000000055,17.7341872267262,1.00000000179316,0.63796305476976
19000.000000004,17.7244904714341,1.00000000182229,0.637118844502303
19100.0000000026,17.7225890468578,1.00000000173901,0.624163848513242
19200.0000000011,17.7311363505234,1.00000000176765,0.618029020648238
19299.9999999996,17.7474814932362,1.00000000190858,0.610498753641324
19399.9999999982,17.7665306512467,1.00000000191195,0.614655930530578
19499.9999999967,17.7880701250778,1.00000000189506,0.616895020329469
19599.9999999953,17.811009254909,1.00000000204415,0.621257038316301
19699.9999999938,17.8323582170973,1.00000000188577,0.622411143729726
19799.9999999924,17.856492835293,1.00000000196679,0.620084574170927
19899.9999999909,17.8837974024998,1.0000000018718,0.614241488053625
19999.9999999895,17.912993142319,1.00000000189247,0.611298271390579
20099.999999988,17.9436933480878,1.00000000200842,0.608591726317055
20199.9999999865,17.9743102153973,1.00000000184176,0.612146402566942
20299.9999999851,18.0061767522774,1.00000000196882,0.616038518150361
20399.9999999836,18.0366485735434,1.00000000206926,0.62112393385454
20499.9999999822,18.0655428210005,1.000000001966,0.614655301958122
20599.9999999807,18.093187447095,1.00000000193069,0.619875440860782
20699.9999999793,18.1212595014977,1.00000000196691,0.624783559759919
20799.9999999778,18.1461763151001,1.00000000207418,0.62502455524902
20899.9999999764,18.1671918233479,1.0000000021196,0.626910420961269
20999.9999999749,18.1845245713852,1.00000000198639,0.630598843445205
21099.9999999734,18.1990575749959,1.00000000204551,0.638024726081604
21199.999999972,18.2114445719053,1.00000000203767,0.641931804258133
21299.9999999705,18.2245199590709,1.00000000200999,0.639389225767427
21399.9999999691,18.2397626055677,1.00000000198109,0.639781258137704
21499.9999999676,18.2563544685288,1.00000000196582,0.635218513760042
21599.9999999662,18.272116968503,1.00000000204719,0.638914086545078
21699.9999999647,18.2874370527074,1.00000000199918,0.64417947151274
21799.9999999633,18.3019956779637,1.00000000208385,0.650909315108432
21899.9999999618,18.3160757377098,1.00000000197692,0.648931155840646
21999.9999999603,18.32885677631,1.00000000209437,0.650298261493448
22099.9999999589,18.3382345236041,1.00000000203827,0.639856542410268
22199.9999999574,18.344525572709,1.00000000214577,0.644170692996118
22299.999999956,18.3486473821538,1.00000000207099,0.641374718212197
22399.9999999545,18.3514151363087,1.00000000209408,0.644155303600124
22499.9999999531,18.3552464259415,1.00000000200611,0.649903532102766
22599.9999999516,18.3613087148023,1.00000000206038,0.654316084988618
22699.9999999502,18.3674014178949,1.00000000199938,0.6585642055431
22799.9999999487,18.3757459973984,1.00000000194953,0.659857801408707
22899.9999999473,18.3838975888167,1.00000000205897,0.667985502208416
22999.9999999458,18.3891888915053,1.00000000211295,0.669775503773516
23099.9999999443,18.3916143802038,1.00000000216512,0.662413332848426
23199.9999999429,18.3902280192927,1.00000000222814,0.666653772245197
23299.9999999414,18.3869657459808,1.00000000207287,0.661027405968493
23399.99999994,18.3820299131286,1.00000000224064,0.668281861188032
23499.9999999385,18.3722386101263,1.00000000214199,0.660882868777247
23599.9999999371,18.3630152849915,1.00000000213097,0.666177350744721
23699.9999999356,18.3528780854765,1.00000000207852,0.667868636366301
23799.9999999342,18.3419963719587,1.00000000203678,0.667533102678017
23899.9999999327,18.330503546882,1.00000000196825,0.662561837489914
23999.9999999312,18.3172357509536,1.00000000221861,0.671680908809414
24099.9999999298,18.3004616081579,1.00000000222294,0.682512586544433
24199.9999999283,18.2819377775617,1.00000000210849,0.679899397545055
24299.9999999269,18.2635295103665,1.00000000223481,0.682289694611611
24399.9999999254,18.2422377397038,1.00000000219395,0.678982140919517
24499.999999924,18.2186967808713,1.00000000213357,0.681413830319875
24599.9999999225,18.193399980944,1.00000000222337,0.680603024526474
24699.9999999211,18.1680160866442,1.00000000204844,0.671370427773877
24799.9999999196,18.1451489691067,1.00000000205798,0.669839329646475
24899.9999999181,18.1239371831485,1.00000000222936,0.669154182574957
24999.9999999167,18.1056553849834,1.00000000212663,0.658599583125598
25099.9999999152,18.0918478629637,1.00000000203338,0.650496661492297
25199.9999999138,18.0819657353595,1.0000000022622,0.649911419347598
25299.9999999123,18.0784690001847,1.00000000209999,0.648637854976826
25399.9999999109,18.0817870038453,1.00000000198181,0.647175263327814
25499.9999999094,18.0932628368367,1.00000000206428,0.64658749177744
25599.999999908,18.1140561767148,1.00000000197378,0.640510449916606
25699.9999999065,18.1421213161938,1.00000000213559,0.641458158278221
25799.9999999051,18.1760711963911,1.00000000209541,0.629465276564845
25899.9999999036,18.2161580319178,1.00000000219853,0.627315014919151
25999.9999999021,18.2549252673299,1.00000000226304,0.628425983711858
26099.9999999007,18.2966668750175,1.00000000213183,0.618591098936068
26199.9999998992,18.3399163983898,1.00000000223132,0.632245511085512
26299.9999998978,18.3827792636261,1.00000000209632,0.631502706737934
26399.9999998963,18.4308872536013,1.00000000212434,0.626348976578458
26499.9999998949,18.480708441756,1.00000000240694,0.631296283000815
26599.9999998934,18.531162127251,1.00000000220225,0.631410849768871
26699.999999892,18.5851687320726,1.00000000225415,0.623795662961495
26799.9999998905,18.6426040806383,1.00000000205199,0.626115866088395
26899.999999889,18.700422583082,1.00000000214111,0.628302586104225
26999.9999998876,18.7553466747037,1.0000000023034,0.631637921762801
27099.9999998861,18.8106068331622,1.00000000224556,0.639350280782834
27199.9999998847,18.8663719955881,1.00000000225787,0.643365292679939
27299.9999998832,18.920039983175,1.00000000220995,0.640684840875117
27399.9999998818,18.9762729098322,1.00000000219213,0.647785304720316
27499.9999998803,19.0324783601424,1.00000000228204,0.652830883405274
27599.9999998789,19.0878429618449,1.00000000210021,0.648627070350609
27699.9999998774,19.1403490392686,1.00000000249303,0.656301191537584
27799.9999998759,19.1845036161203,1.0000000022218,0.654080148286779
27899.9999998745,19.2273160636604,1.00000000221372,0.657160653961907
27999.999999873,19.2682570058967,1.00000000234764,0.668261054138575
28099.9999998716,19.3064682070449,1.00000000214055,0.659518923918239
28199.9999998701,19.3461470457651,1.00000000221018,0.663071080056393
28299.9999998687,19.3842344023884,1.0000000022528,0.667420475714005
28399.9999998672,19.4194581036231,1.00000000235456,0.666570403729483
28499.9999998658,19.4558146525477,1.00000000218895,0.668210158036556
28599.9999998643,19.4889367408266,1.00000000249246,0.668476646169641
28699.9999998629,19.5197867683909,1.00000000230143,0.669783752814738
28799.9999998614,19.5540538009882,1.00000000221264,0.670617638566601
28899.9999998599,19.5891684934349,1.00000000233001,0.672017874494559
28999.9999998585,19.6225452402705,1.00000000240379,0.666739633160555
