Time,AGPnorm,Energy,Entropy
0,0,1,8.16873758472803e-18
99.9999999999986,0.00247607351084664,1.00000000000104,0.00868698626240659
199.999999999993,0.00691578880653523,1.00000000000058,0.0256753800667762
300,0.014908708195973,1.00000000000038,0.0500592035011402
400.000000000022,0.0238079035575548,1.00000000000137,0.0803645225777573
500.000000000045,0.0349516155180172,1.00000000000024,0.117422567300966
600.000000000068,0.0469525148607158,1.00000000000566,0.163316138345984
700.000000000091,0.0590543776640384,1.0000000000254,0.221183332256046
800.000000000113,0.08521623216596,1.00000000011604,0.291741065993683
900.000000000136,0.156286642380939,1.00000000030125,0.365569911336922
1000.00000000016,0.432308394937019,1.00000000054941,0.429490468033855
1100.0000000001,1.11716275851206,1.00000000077213,0.4778666720399
1200,2.45905228692706,1.00000000089216,0.510846617001952
1299.99999999991,4.61505223911784,1.0000000009589,0.532415412402079
1399.99999999982,7.60847551671935,1.00000000105901,0.544002580363639
1499.99999999973,11.3650510591226,1.00000000102335,0.549985697602928
1599.99999999964,15.7176468078197,1.00000000106549,0.550249557123879
1699.99999999955,20.4460595863302,1.00000000100554,0.548509394602823
1799.99999999946,25.3605862968264,1.00000000097285,0.543922640864663
1899.99999999937,30.2198577667343,1.000000000918,0.5365459819081
1999.99999999928,34.8988258184936,1.00000000091792,0.531987962625846
2099.99999999919,39.2061273483311,1.00000000077692,0.52136272571367
2199.99999999909,43.0901929709679,1.0000000008137,0.516633628639309
2299.999999999,46.4515705187998,1.00000000073721,0.513721570002988
2399.99999999891,49.2723323904278,1.00000000073507,0.492882611199522
2499.99999999882,51.5250299989434,1.00000000074627,0.503491435903305
2599.99999999873,53.2839034361075,1.00000000069778,0.509666730982218
2699.99999999864,54.5155744939416,1.00000000057091,0.463160288145207
2799.99999999855,55.1988424768052,1.00000000054773,0.475240156646607
2899.99999999846,55.5599016925915,1.00000000072749,0.531830262739941
2999.99999999837,55.6818870478424,1.00000000063999,0.491849517957961
3099.99999999828,55.3928530667121,1.00000000033426,0.40057803417846
3199.99999999819,54.7328928131521,1.00000000050362,0.462372598064528
3299.99999999809,54.021247768622,1.00000000082239,0.54991883783494
3399.999999998,53.3775755739998,1.00000000070166,0.535961197641956
3499.99999999791,52.6163948342605,1.00000000043224,0.401633714219751
3599.99999999782,51.5865016492391,1.00000000023022,0.326443689757243
3699.99999999773,50.4323713007465,1.00000000056652,0.449560452709092
3799.99999999764,49.3440336377779,1.00000000084283,0.538779921333729
3899.99999999755,48.4069075340155,1.0000000008892,0.559242834986428
3999.99999999746,47.5643152723215,1.00000000068137,0.500459560531972
4099.99999999738,46.6598796195179,1.00000000035263,0.351470521813804
4199.99999999775,45.6514530283092,1.00000000021178,0.270248083532926
4299.99999999811,44.631001260406,1.00000000043009,0.371359808308343
4399.99999999848,43.6357656606979,1.00000000071205,0.490434367563881
4499.99999999884,42.6828745309682,1.00000000081005,0.50950962615066
4599.9999999992,41.8045680311438,1.0000000008531,0.525085107653352
4699.99999999957,41.0148953198537,1.0000000008478,0.553156370629167
4799.99999999993,40.2679054800921,1.00000000060528,0.49831871833188
4900.00000000029,39.5054479077994,1.00000000034161,0.364699716526482
5000.00000000066,38.7550634721363,1.00000000022713,0.266698130703938
5100.00000000102,38.0893342403604,1.0000000003062,0.291452921725923
5200.00000000139,37.5084634520597,1.00000000051619,0.392461077712376
5300.00000000175,36.9307891978631,1.00000000077058,0.493973684856794
5400.00000000211,36.3201122444797,1.00000000075223,0.537640678157317
5500.00000000248,35.7082810809295,1.00000000057214,0.487642387187553
5600.00000000284,35.1100840738675,1.00000000062347,0.444170244884339
5700.00000000321,34.5105670251517,1.00000000085382,0.494986458150813
5800.00000000357,33.9189523018726,1.00000000095498,0.554019723025074
5900.00000000393,33.3575597888853,1.00000000090213,0.562361369415327
6000.0000000043,32.8200301939776,1.00000000061103,0.504887308335135
6100.00000000466,32.3004178231426,1.00000000037124,0.397374951245486
6200.00000000502,31.8510636779046,1.00000000019558,0.292362468194519
6300.00000000539,31.551941228308,1.00000000021823,0.25410433307149
6400.00000000575,31.4191235449202,1.00000000039698,0.304408644498236
6500.00000000612,31.3845067968955,1.0000000005916,0.39217010318499
6600.00000000648,31.3529529969581,1.00000000067129,0.471009731789374
6700.00000000684,31.2500706938951,1.00000000073855,0.506084323518837
6800.00000000721,31.0512643293741,1.00000000080954,0.513933121380874
6900.00000000757,30.7738784301061,1.00000000080408,0.532244721418163
7000.00000000793,30.4558230047136,1.00000000066789,0.536550472627614
7100.0000000083,30.145114310129,1.00000000047489,0.49111294503796
7200.00000000866,29.869427631422,1.00000000044005,0.455388263977522
7300.00000000903,29.6087568626609,1.00000000052752,0.476157152839457
7400.00000000939,29.325178747947,1.00000000067135,0.498697794757201
7500.00000000975,29.0094749830245,1.00000000070239,0.50015147177072
7600.00000001012,28.6669216367254,1.00000000081664,0.506555936110721
7700.00000001048,28.3060967388659,1.00000000088695,0.540181948413855
7800.00000001084,27.9476890048916,1.0000000008874,0.566458398145686
7900.00000001121,27.602546479129,1.00000000077521,0.558268598631685
8000.00000001157,27.2649200384222,1.00000000058925,0.511809900867438
8100.00000001194,26.9423188730145,1.00000000040451,0.432059843367337
8200.0000000123,26.682530566511,1.00000000024614,0.34784689940551
8300.00000001266,26.5598877402652,1.0000000001798,0.287069055361909
8400.00000001303,26.6357605992144,1.00000000022468,0.263480465401734
8500.00000001339,26.9172679637969,1.00000000034713,0.292821271069758
8600.00000001376,27.3554926945026,1.00000000047078,0.347528104858698
8700.00000001412,27.8525240380886,1.00000000062699,0.40968455223836
8800.00000001448,28.3027922838043,1.00000000070573,0.469549479827024
8900.00000001485,28.6600219446956,1.00000000074647,0.50602443489438
9000.00000001521,28.9140720044349,1.00000000070291,0.523915520937046
9100.00000001557,29.0676338720217,1.00000000072653,0.544291824662592
9200.00000001594,29.132870275511,1.00000000071396,0.557863066158375
9300.0000000163,29.1380471778761,1.000000000638,0.542477624900272
9400.00000001667,29.1107259904924,1.00000000058808,0.514147283153575
9500.00000001703,29.0531992110245,1.00000000064301,0.503486719717772
9600.00000001739,28.9505590967218,1.0000000007934,0.518537061016617
9700.00000001776,28.8014832569831,1.00000000071752,0.535450627159051
9800.00000001812,28.6339423894959,1.00000000061156,0.532357462209954
9900.00000001848,28.4802673197881,1.00000000051573,0.504437653396859
10000.0000000188,28.3489238933006,1.00000000052497,0.486134506847324
10100.0000000192,28.2286136937604,1.00000000055485,0.483829250951977
10200.0000000196,28.110897332893,1.00000000064068,0.492983919505858
10300.0000000199,27.9938444473064,1.00000000061458,0.499239776240654
10400.0000000203,27.8727939103132,1.00000000060137,0.510569258156841
10500.0000000207,27.7439663803439,1.00000000061735,0.523489509732844
10600.000000021,27.600248726912,1.00000000066668,0.539755493737062
10700.0000000214,27.444305736948,1.00000000059804,0.544161679552657
10800.0000000218,27.2857664301031,1.00000000051741,0.540825583529082
10900.0000000221,27.1274575937041,1.00000000050101,0.539740847974151
11000.0000000225,26.9643870329669,1.00000000059473,0.538055918279049
11100.0000000229,26.7876908731903,1.00000000064473,0.542406289976143
11200.0000000232,26.5937913432515,1.00000000065073,0.543519471535607
11300.0000000236,26.383579530514,1.00000000077724,0.549464885223838
11400.0000000239,26.1632525226763,1.0000000008624,0.554673296226895
11500.0000000243,25.9444224472535,1.00000000087628,0.558590946376383
11600.0000000247,25.738461957379,1.00000000097868,0.568478471005559
11700.000000025,25.5531400235985,1.00000000089183,0.574964179651612
11800.0000000254,25.3853565202491,1.00000000082551,0.574119705304584
11900.0000000258,25.220125463304,1.00000000068734,0.558131089481
12000.0000000261,25.0410697386156,1.0000000005865,0.521116660507547
12100.0000000265,24.8446668613705,1.00000000041897,0.470240395828007
12200.0000000269,24.6510897253266,1.00000000031188,0.413618997552338
12300.0000000272,24.5027158080083,1.00000000023907,0.356724439306705
12400.0000000276,24.4565492640511,1.00000000018476,0.311479796657972
12500.0000000279,24.5683131134199,1.00000000022083,0.289068867338607
12600.0000000283,24.8801622579639,1.00000000021597,0.279473974408435
12700.0000000287,25.4114576474747,1.00000000028987,0.286011852442004
12800.000000029,26.1349190311025,1.00000000039941,0.317082234241878
12900.0000000294,26.9899990963377,1.00000000049688,0.35713827066345
13000.0000000298,27.9147791469352,1.00000000059401,0.397890681164867
13100.0000000301,28.8313744345197,1.00000000070628,0.438261041711697
13200.0000000305,29.680837225109,1.00000000074361,0.474113853921285
13300.0000000309,30.4448240386426,1.00000000072785,0.498720032189168
13400.0000000312,31.1128261959382,1.00000000072025,0.514651820741606
13500.0000000316,31.6833013131885,1.00000000070352,0.537764773938168
13600.0000000319,32.1573196044515,1.00000000068598,0.557048647890064
13700.0000000323,32.5428222430395,1.00000000070443,0.563555248954329
13800.0000000327,32.8519177914428,1.00000000065298,0.553628201335611
13900.000000033,33.1007233238256,1.00000000063368,0.548427948128271
14000.0000000334,33.2977977942422,1.00000000063407,0.55995663860857
14100.0000000338,33.4388442459598,1.00000000068876,0.577165529154369
14200.0000000341,33.528460534099,1.00000000068746,0.576855716960785
14300.0000000345,33.5767798418411,1.00000000063784,0.565917223517188
14400.0000000349,33.5889506621252,1.00000000064099,0.550252763157516
14500.0000000352,33.5709936245399,1.00000000067809,0.538943049377595
14600.0000000356,33.5376398251799,1.00000000058181,0.52955059807084
14700.0000000359,33.4933960545686,1.00000000064907,0.537656197480958
14800.0000000363,33.4287238828328,1.00000000068869,0.545245192488588
14900.0000000367,33.3463323444025,1.00000000064469,0.547862429112063
15000.000000037,33.2533852130747,1.00000000061161,0.556810052272554
15100.0000000374,33.1494975018794,1.00000000067702,0.558870734242658
15200.0000000378,33.032104641081,1.00000000067989,0.555908760412187
15300.0000000381,32.9049783633777,1.00000000060666,0.554654081227889
15400.0000000385,32.7729880208388,1.0000000006646,0.550772035041893
15500.0000000389,32.6421046703422,1.00000000054475,0.538272887579366
15600.0000000392,32.5188275764592,1.00000000049361,0.532929833300065
15700.0000000396,32.4008102745347,1.00000000057366,0.532380535438694
15800.0000000399,32.2794915207199,1.00000000065268,0.533533459294066
15900.0000000403,32.150157353795,1.00000000065986,0.539616359592422
16000.0000000407,32.0140129187738,1.0000000006702,0.542725474711886
16100.000000041,31.8692175962306,1.00000000071812,0.553589147044092
16200.0000000414,31.7146206527805,1.00000000070802,0.561963255726099
16300.0000000418,31.5562491724882,1.0000000006776,0.559565982257238
16400.0000000418,31.4010607744898,1.00000000058221,0.551641983776084
16500.0000000404,31.2562331500564,1.00000000053653,0.54525904877897
16600.0000000389,31.1281084043522,1.00000000051661,0.530360798315736
16700.0000000375,31.021632321715,1.00000000047326,0.518054902296616
16800.000000036,30.9372913034061,1.00000000050217,0.500844553793435
16900.0000000346,30.8689521573649,1.00000000060903,0.492187675245363
17000.0000000331,30.80381582994,1.00000000071301,0.493384401210905
17100.0000000317,30.7402921876089,1.00000000058546,0.503132459950278
17200.0000000302,30.6851100097011,1.00000000056594,0.505320914209415
17300.0000000287,30.6370399567941,1.00000000058413,0.517456192261561
17400.0000000273,30.5920000711531,1.00000000064069,0.536852092240717
17500.0000000258,30.5467593734414,1.0000000006091,0.549241151762506
17600.0000000244,30.494570635529,1.00000000066167,0.555648533483292
17700.0000000229,30.4302347531757,1.00000000069771,0.548303343635185
17800.0000000215,30.357677441934,1.00000000061899,0.540222268073906
17900.00000002,30.2840890691548,1.00000000057522,0.541636025178918
18000.0000000186,30.2098661151388,1.00000000062211,0.550504816929889
18100.0000000171,30.1315371616644,1.00000000063022,0.557922233504085
18200.0000000156,30.0481534607402,1.00000000061215,0.573629776477268
18300.0000000142,29.9643028403304,1.00000000058263,0.578043164495012
18400.0000000127,29.878955501522,1.00000000064749,0.58133620895725
18500.0000000113,29.786392158653,1.00000000069453,0.585022315556497
18600.0000000098,29.6862824989637,1.00000000066367,0.584467306744972
18700.0000000084,29.57904979539,1.00000000066374,0.585863265774191
18800.0000000069,29.4656724713455,1.00000000065308,0.589129372069798
18900.0000000055,29.3500697111419,1.0000000006218,0.590377262137666
19000.000000004,29.238905733808,1.00000000054252,0.57929778897246
19100.0000000026,29.132604339375,1.00000000057801,0.572114221718771
19200.0000000011,29.0245920199823,1.00000000068629,0.571408662854761
19299.9999999996,28.9126211742956,1.00000000065366,0.560288473181483
19399.9999999982,28.8008126499297,1.00000000057429,0.554063357261735
19499.9999999967,28.6932927186303,1.00000000056394,0.559520502518888
19599.9999999953,28.5883676172516,1.0000000005877,0.564456575309215
19699.9999999938,28.4837107859582,1.00000000061278,0.566578849849774
19799.9999999924,28.3794428413308,1.00000000056966,0.569081561673462
19899.9999999909,28.2772096669568,1.00000000061388,0.575791452721984
19999.9999999895,28.1759505559806,1.00000000065158,0.568989565595817
20099.999999988,28.0714545834855,1.00000000065802,0.566858514082823
20199.9999999865,27.9611675099253,1.00000000067028,0.5759411166726
20299.9999999851,27.845742021924,1.00000000068002,0.570266759410209
20399.9999999836,27.7282863272918,1.00000000059961,0.559765014117433
20499.9999999822,27.6092284501361,1.00000000067881,0.564001552078789
20599.9999999807,27.4875467874139,1.00000000069334,0.583559286704655
20699.9999999793,27.3627104648497,1.00000000066753,0.598217518394528
20799.9999999778,27.2370805063467,1.00000000061504,0.596722665118794
20899.9999999764,27.1124767798512,1.00000000056843,0.586262801046736
20999.9999999749,26.9901280562672,1.00000000056296,0.580453568163
21099.9999999734,26.8683586849137,1.00000000066504,0.587245711686136
21199.999999972,26.7445166548133,1.00000000068924,0.594994704572071
21299.9999999705,26.6202159929682,1.00000000067274,0.604473700237379
21399.9999999691,26.4968242254246,1.00000000054808,0.587810597266305
21499.9999999676,26.374640140744,1.00000000049883,0.570321398659636
21599.9999999662,26.2536017574552,1.000000000555,0.580534582225191
21699.9999999647,26.1333735373024,1.00000000057711,0.59020365170883
21799.9999999633,26.014232470279,1.00000000054015,0.587523618736842
21899.9999999618,25.8965645625915,1.00000000054879,0.582408898982485
21999.9999999603,25.7804057013429,1.00000000055865,0.584997887990671
22099.9999999589,25.6669706851695,1.00000000061309,0.595364120006482
22199.9999999574,25.557300697218,1.00000000065021,0.590085469929434
22299.999999956,25.4540212531403,1.0000000006929,0.585901513506188
22399.9999999545,25.3599500825712,1.00000000066933,0.595959109944692
22499.9999999531,25.2784884458881,1.00000000073039,0.60196625563315
22599.9999999516,25.2168583217004,1.00000000080328,0.600839562850671
22699.9999999502,25.1765902038119,1.00000000079091,0.601275379250918
22799.9999999487,25.1680135285562,1.0000000008379,0.609244087222551
22899.9999999473,25.1915398057872,1.00000000083535,0.612178762816509
22999.9999999458,25.2604026397753,1.00000000091619,0.618675903007813
23099.9999999443,25.3719992958199,1.00000000087955,0.621436978482636
23199.9999999429,25.532479988324,1.00000000090587,0.618015633973866
23299.9999999414,25.7399029944691,1.00000000098317,0.613189845177459
23399.99999994,25.9909490777002,1.00000000090959,0.605931157146472
23499.9999999385,26.2865611523039,1.00000000092567,0.597075076492395
23599.9999999371,26.5992201424657,1.00000000090336,0.589483479298492
23699.9999999356,26.9237691996629,1.00000000080183,0.580943060345345
23799.9999999342,27.2208299241114,1.000000000695,0.572469505896172
23899.9999999327,27.4859321351944,1.00000000060449,0.554587967367931
23999.9999999312,27.6859973967552,1.00000000057337,0.532463029676223
24099.9999999298,27.820169940386,1.00000000048281,0.506567392052718
24199.9999999283,27.8823929652508,1.00000000040726,0.477994744780389
24299.9999999269,27.8749196200489,1.00000000036811,0.447931626033971
24399.9999999254,27.8193312383463,1.00000000034664,0.417841071661149
24499.999999924,27.7254731056387,1.0000000002871,0.390044516207974
24599.9999999225,27.6298825869897,1.00000000022481,0.361776855298609
24699.9999999211,27.5540325380478,1.00000000021812,0.33749957132459
24799.9999999196,27.5365513383145,1.0000000001813,0.316155791619668
24899.9999999181,27.6102864898847,1.00000000019211,0.299145891815477
24999.9999999167,27.8070887890631,1.00000000020782,0.288147382830664
25099.9999999152,28.1534460839544,1.00000000018436,0.280015368655112
25199.9999999138,28.68042505318,1.00000000020921,0.282049231364006
25299.9999999123,29.3831398603432,1.00000000025084,0.288431644447122
25399.9999999109,30.2988661937054,1.00000000027119,0.297786916427273
25499.9999999094,31.3768725486623,1.00000000037152,0.308213429229647
25599.999999908,32.6507207255213,1.00000000041567,0.326287740270869
25699.9999999065,34.0399401157897,1.00000000049635,0.345699701770691
25799.9999999051,35.5619991892235,1.00000000056962,0.364088096496368
25899.9999999036,37.1335589731773,1.00000000059773,0.384290029590269
25999.9999999021,38.7536730143898,1.00000000066109,0.398629645930158
26099.9999999007,40.3754344766165,1.00000000070053,0.417774983557225
26199.9999998992,41.9590159118174,1.00000000073715,0.436575919442067
26299.9999998978,43.5168527000517,1.00000000073207,0.452171514959303
26399.9999998963,44.9926502357817,1.00000000076363,0.461090584402293
26499.9999998949,46.4126324197935,1.00000000077208,0.474625417246065
26599.9999998934,47.734417606266,1.00000000078365,0.494015439746276
26699.999999892,48.9887622613785,1.00000000074393,0.506248823075668
26799.9999998905,50.151947055569,1.00000000082069,0.514169719314213
26899.999999889,51.229233289756,1.00000000078611,0.516283586500531
26999.9999998876,52.226201877739,1.00000000076528,0.531174637402489
27099.9999998861,53.1349081676735,1.00000000073651,0.544664732904255
27199.9999998847,53.9845852893676,1.00000000071966,0.553137461371577
27299.9999998832,54.7577784131323,1.00000000068998,0.556259771649495
27399.9999998818,55.4769255698554,1.00000000072979,0.558674430297203
27499.9999998803,56.1245446285379,1.00000000069938,0.56248078528143
27599.9999998789,56.7147525053215,1.00000000071667,0.572429198069789
27699.9999998774,57.2442677241901,1.00000000068656,0.584690270637862
27799.9999998759,57.7184632650987,1.00000000070016,0.585713077497183
27899.9999998745,58.1551614331264,1.00000000067459,0.586524429843703
27999.999999873,58.5434063394497,1.00000000067326,0.578868919419859
28099.9999998716,58.8954156119631,1.00000000072149,0.585018190193521
28199.9999998701,59.1870783515526,1.00000000076816,0.596357900150488
28299.9999998687,59.433821730324,1.00000000074839,0.607214924160883
28399.9999998672,59.6347412761217,1.00000000069757,0.611222780757299
28499.9999998658,59.8107417547357,1.0000000006489,0.599561112493689
28599.9999998643,59.9659953385701,1.00000000062157,0.587075013018513
28699.9999998629,60.0959772996785,1.00000000067758,0.583018130732256
28799.9999998614,60.1929596275773,1.00000000072218,0.594515864266082
28899.9999998599,60.2452285225924,1.00000000077703,0.598214027519059
28999.9999998585,60.2709611116801,1.0000000006487,0.598726271904244
29099.999999857,60.2784329133209,1.00000000065179,0.594840578390089
