Time,AGPnorm,Energy,Entropy
0,0,1,-3.95089268803841e-18
99.9999999999986,0.00898535857687932,1.0000000000003,0.0247463458246904
199.999999999993,0.0241429100387169,1.00000000000081,0.0725341383557818
300,0.0475226607345602,1.00000000000198,0.145902019772603
400.000000000022,0.0711762555097765,1.00000000016053,0.25917819399082
500.000000000045,0.122844815766622,1.00000000117482,0.402506530442319
600.000000000068,0.530198646095956,1.00000000255817,0.503792379369471
700.000000000091,1.65100566693444,1.000000003196,0.557470177761174
800.000000000113,3.54069415371846,1.00000000327576,0.582708538423554
900.000000000136,6.01295021267198,1.00000000346755,0.588017577758125
1000.00000000016,8.60858683200945,1.00000000333772,0.586212799904994
1100.0000000001,11.078543479868,1.00000000288385,0.57870215834209
1200,13.129834245738,1.00000000257822,0.567373328407495
1299.99999999991,14.6870980610089,1.00000000257986,0.560557726366595
1399.99999999982,15.7116253013109,1.00000000204004,0.549750567894567
1499.99999999973,16.2601271014976,1.00000000189851,0.538353769906717
1599.99999999964,16.4211100198114,1.00000000221596,0.569441084151351
1699.99999999955,16.2472797336606,1.00000000160132,0.5243975787918
1799.99999999946,15.9684989174096,1.00000000188961,0.519509167418191
1899.99999999937,15.4872032953571,1.000000002154,0.540544782387641
1999.99999999928,15.0388040056876,1.00000000189133,0.501330404120167
2099.99999999919,14.4842952009648,1.00000000181962,0.466327535379748
2199.99999999909,13.9724537120012,1.00000000278835,0.565780020875345
2299.999999999,13.4799527307006,1.00000000113868,0.395985560125905
2399.99999999891,12.9591699874763,1.00000000226715,0.502348072709711
2499.99999999882,12.4820764265393,1.00000000262311,0.558369631851647
2599.99999999873,12.0487609780829,1.00000000125141,0.420853323700259
2699.99999999864,11.6367985875007,1.00000000191301,0.454096494075226
2799.99999999855,11.2322698113235,1.00000000218548,0.525800237714404
2899.99999999846,10.8495704394026,1.00000000269616,0.551243707839479
2999.99999999837,10.5015178166812,1.00000000165297,0.479916403997635
3099.99999999828,10.2249723244053,1.00000000125091,0.398623471208595
3199.99999999819,9.96006989905271,1.000000002258,0.510307273509564
3299.99999999809,9.6953003635741,1.00000000180286,0.522013879559929
3399.999999998,9.4412195231869,1.00000000225623,0.533400297101372
3499.99999999791,9.17909234118394,1.0000000027216,0.557318257918293
3599.99999999782,8.94464801707584,1.00000000156196,0.490346870716745
3699.99999999773,8.79618574185531,1.00000000137229,0.41874992907129
3799.99999999764,8.69632472603397,1.00000000211704,0.481125113812406
3899.99999999755,8.57335180712985,1.0000000020565,0.528421283883292
3999.99999999746,8.44858018862716,1.00000000218868,0.551434589853875
4099.99999999738,8.31135402251268,1.00000000208922,0.564620307522505
4199.99999999775,8.16672162966696,1.00000000195289,0.558057282665675
4299.99999999811,8.01536859561319,1.00000000246919,0.554485559488483
4399.99999999848,7.85145566810564,1.00000000263931,0.570874892811057
4499.99999999884,7.71035039985983,1.00000000160848,0.509679586363274
4599.9999999992,7.65813522954392,1.00000000123095,0.431799073028791
4699.99999999957,7.68438981341859,1.00000000195694,0.461072309361476
4799.99999999993,7.7031175342556,1.00000000220138,0.50969389411987
4900.00000000029,7.69950178305645,1.00000000218492,0.553497008827746
5000.00000000066,7.67652571991832,1.00000000228466,0.567427124380308
5100.00000000102,7.63869443737035,1.0000000021476,0.583974447577356
5200.00000000139,7.59640453736156,1.00000000209353,0.574121612160106
5300.00000000175,7.54098231013037,1.00000000216401,0.571236652122581
5400.00000000211,7.46740559405037,1.00000000252719,0.58584728261029
5500.00000000248,7.38877219930476,1.00000000201665,0.589242024557874
5600.00000000284,7.30710571700904,1.00000000204657,0.589414441235276
5700.00000000321,7.21643844283623,1.00000000230121,0.595012745114329
5800.00000000357,7.11710882418973,1.00000000264031,0.587286397198622
5900.00000000393,7.01146463413795,1.00000000259209,0.573754407819785
6000.0000000043,6.92527420048189,1.00000000167226,0.52382220628892
6100.00000000466,6.91267378843197,1.00000000127285,0.461998444990617
6200.00000000502,6.9949124703237,1.0000000016115,0.46471409579087
6300.00000000539,7.11775649811312,1.00000000238099,0.503014677492246
6400.00000000575,7.2233520812542,1.00000000234868,0.536765771196643
6500.00000000612,7.30906492563852,1.00000000223183,0.557789148918003
6600.00000000648,7.3794735390326,1.00000000227883,0.584169473980237
6700.00000000684,7.42688211310544,1.00000000245402,0.608534167121331
6800.00000000721,7.45158176323827,1.00000000228344,0.615381487069188
6900.00000000757,7.45878157759283,1.0000000023502,0.627959944313282
7000.00000000793,7.44793649342584,1.00000000234379,0.625900765690692
7100.0000000083,7.4233531309115,1.00000000227641,0.622710067461513
7200.00000000866,7.40096123553597,1.00000000211558,0.618270446789605
7300.00000000903,7.38634410914516,1.00000000202168,0.602315528789669
7400.00000000939,7.35987692177104,1.00000000251345,0.601692870678292
7500.00000000975,7.32618970946908,1.00000000213126,0.611366123505818
7600.00000001012,7.29689955545295,1.00000000204212,0.617251655785546
7700.00000001048,7.26412335604504,1.00000000231434,0.631074468253021
7800.00000001084,7.2289163857024,1.00000000210748,0.628142913826896
7900.00000001121,7.18940590156217,1.00000000220823,0.613632127384181
8000.00000001157,7.14880591875528,1.00000000223754,0.608603694172375
8100.00000001194,7.09645901610341,1.00000000258039,0.641623433709325
8200.0000000123,7.03689955280654,1.00000000228531,0.640417492897305
8300.00000001266,6.97316596350832,1.00000000204415,0.632607697715574
8400.00000001303,6.91003001480522,1.00000000228931,0.639029012292506
8500.00000001339,6.84569754929797,1.0000000025785,0.645340846291877
8600.00000001376,6.78152775773995,1.00000000256138,0.657190669804732
8700.00000001412,6.71955399469832,1.0000000027757,0.65985137514784
8800.00000001448,6.65544984396407,1.00000000264561,0.637216910116218
8900.00000001485,6.58530015668268,1.00000000232906,0.602829929939531
9000.00000001521,6.52431633134245,1.00000000182481,0.555759966611658
9100.00000001557,6.50746732541688,1.00000000144256,0.50848213372986
9200.00000001594,6.5683571233103,1.00000000147851,0.483931628880471
9300.0000000163,6.70672980024278,1.0000000018515,0.488702325766891
9400.00000001667,6.88880491584811,1.0000000026222,0.508168109596929
9500.00000001703,7.07423191125925,1.00000000234977,0.529332282018194
9600.00000001739,7.24362146187205,1.00000000255875,0.543917100649247
9700.00000001776,7.40081980973141,1.00000000231704,0.562881634594719
9800.00000001812,7.53764504968249,1.00000000243164,0.574019901435531
9900.00000001848,7.66352405521717,1.00000000241138,0.585235723549262
10000.0000000188,7.76974954662196,1.00000000254215,0.609129072107139
10100.0000000192,7.85757593928113,1.00000000250313,0.626623157907091
10200.0000000196,7.92714872840139,1.00000000238632,0.610845986553279
10300.0000000199,7.98066002889141,1.00000000227385,0.630845127789094
10400.0000000203,8.01764095786005,1.0000000025151,0.656784255327193
10500.0000000207,8.0415295689922,1.00000000236171,0.647494849272743
10600.000000021,8.05634166397077,1.00000000241657,0.647075492770873
10700.0000000214,8.07146135430486,1.00000000228739,0.643015390212188
10800.0000000218,8.07945475643753,1.00000000260239,0.651647563047171
10900.0000000221,8.08287467999176,1.00000000225232,0.649220562456145
11000.0000000225,8.08066011413619,1.00000000250313,0.649979627881879
11100.0000000229,8.06917658719406,1.00000000264334,0.652847716210367
11200.0000000232,8.05620784355213,1.00000000248112,0.653679907907408
11300.0000000236,8.03600812022646,1.00000000258041,0.651422508657136
11400.0000000239,8.01148294776331,1.00000000238864,0.658889912701086
11500.0000000243,7.98274708885837,1.00000000248363,0.669758491762586
11600.0000000247,7.95263763945003,1.00000000262677,0.657259419945838
11700.000000025,7.92169697231062,1.00000000254167,0.652932845561678
11800.0000000254,7.89255661122911,1.0000000024487,0.64331473530518
11900.0000000258,7.868220749826,1.00000000243085,0.621847011283669
12000.0000000261,7.85424675292845,1.00000000241841,0.606129119873515
12100.0000000265,7.85009994026397,1.00000000252592,0.630114541893937
12200.0000000269,7.85288292476363,1.00000000259739,0.64272193526468
12300.0000000272,7.85399181811774,1.00000000243677,0.638928557791098
12400.0000000276,7.84735132879256,1.00000000265436,0.635129504313503
12500.0000000279,7.84158066129413,1.00000000237001,0.620877546360025
12600.0000000283,7.83867717139796,1.00000000263552,0.635244061782663
12700.0000000287,7.83189649954088,1.00000000261516,0.629764772052395
12800.000000029,7.82485476629062,1.00000000252634,0.642753765835488
12900.0000000294,7.82190302407428,1.00000000267343,0.646535874070517
13000.0000000298,7.81496904067341,1.00000000280937,0.653137113061093
13100.0000000301,7.80311259706366,1.00000000272666,0.639207341284828
13200.0000000305,7.79603059861712,1.00000000267185,0.642244264983127
13300.0000000309,7.79032653753409,1.00000000277475,0.652956525152128
13400.0000000312,7.78935841908676,1.00000000247909,0.643222628370716
13500.0000000316,7.79090027331076,1.0000000025472,0.645091595352377
13600.0000000319,7.78771107379641,1.00000000276053,0.644824265534347
13700.0000000323,7.78086923497671,1.00000000246295,0.638391709847108
13800.0000000327,7.77737345937608,1.00000000258833,0.661283359579538
13900.000000033,7.77018972644822,1.00000000319597,0.666166184959155
14000.0000000334,7.76225218852381,1.00000000263271,0.662658871410419
14100.0000000338,7.75419469723577,1.00000000276905,0.68578718641226
14200.0000000341,7.7410254218818,1.00000000295572,0.676835407164867
14300.0000000345,7.73085026996851,1.0000000024463,0.658241590924077
14400.0000000349,7.71994966246965,1.00000000286958,0.656983603218661
14500.0000000352,7.7096456192875,1.0000000025846,0.672034630007793
14600.0000000356,7.6991087717644,1.00000000306064,0.668571516080009
14700.0000000359,7.68690462076398,1.00000000260619,0.663216051335405
14800.0000000363,7.67067801508161,1.0000000027566,0.662163284390316
14900.0000000367,7.65286422827591,1.00000000294675,0.658954277491912
15000.000000037,7.63697639004142,1.00000000265879,0.651572838791542
15100.0000000374,7.61926452150436,1.00000000284434,0.668135686060564
15200.0000000378,7.60239735899643,1.00000000265444,0.65026490756003
15300.0000000381,7.58791530460797,1.00000000292921,0.669735956284053
15400.0000000385,7.56576859656035,1.00000000313216,0.677171918764816
15500.0000000389,7.54323119728237,1.00000000264423,0.657568862150984
15600.0000000392,7.5214605421401,1.00000000268401,0.658860352395978
15700.0000000396,7.4983545738726,1.00000000268199,0.657785074734696
15800.0000000399,7.47439273571708,1.00000000282223,0.672487394738117
15900.0000000403,7.44407187689931,1.00000000295945,0.675180627138136
16000.0000000407,7.41119753227481,1.00000000255631,0.656746899206398
16100.000000041,7.37903217325177,1.00000000273566,0.666376443918135
16200.0000000414,7.34341765767588,1.00000000305376,0.661848737289254
16300.0000000418,7.3052959872213,1.0000000029611,0.667528299057968
16400.0000000418,7.26546328814598,1.00000000280138,0.664217246812568
16500.0000000404,7.22494096118403,1.00000000271346,0.668929740059283
16600.0000000389,7.18445854543806,1.00000000271632,0.665812098899751
16700.0000000375,7.14402367683741,1.00000000245372,0.6634958637202
16800.000000036,7.10433722134798,1.00000000267614,0.658537601577169
16900.0000000346,7.06644832980078,1.00000000266365,0.653275715191553
17000.0000000331,7.03102705309307,1.00000000271164,0.653433233148405
17100.0000000317,6.99941127207249,1.00000000294838,0.644381267599589
17200.0000000302,6.97335115186241,1.00000000327292,0.665676298978223
17300.0000000287,6.95030585197194,1.00000000319184,0.665102530602739
17400.0000000273,6.93411241413712,1.00000000337687,0.677816937909402
17500.0000000258,6.91544302974039,1.00000000304073,0.674283230420194
17600.0000000244,6.89906822422679,1.00000000278795,0.676282079051856
17700.0000000229,6.87363752576911,1.00000000326486,0.662619045853174
17800.0000000215,6.8428497931739,1.00000000297218,0.634106910384043
17900.00000002,6.80670179900494,1.00000000266841,0.615539427765715
18000.0000000186,6.77326272582931,1.00000000248397,0.596635936517629
18100.0000000171,6.76026962296948,1.00000000237429,0.571901475432647
18200.0000000156,6.7827326653256,1.00000000208837,0.553510037100604
18300.0000000142,6.86555490105913,1.00000000210385,0.530951975053402
18400.0000000127,7.01645581506444,1.00000000232919,0.525450487961907
18500.0000000113,7.25028948241862,1.0000000023379,0.528297089520324
18600.0000000098,7.53732908995844,1.00000000263134,0.527151062975153
18700.0000000084,7.88876532450315,1.00000000289604,0.534763763085846
18800.0000000069,8.24340960618593,1.00000000274421,0.536319806603278
18900.0000000055,8.62735062084647,1.00000000304921,0.548959325281109
19000.000000004,8.98741172093023,1.00000000311219,0.55607580238629
19100.0000000026,9.35572614558984,1.0000000032517,0.559472866873211
19200.0000000011,9.69956061814915,1.0000000030947,0.567818428950747
19299.9999999996,10.0362864460388,1.00000000318853,0.5727926800848
19399.9999999982,10.36358925034,1.00000000307545,0.576626469297441
19499.9999999967,10.6754729647535,1.0000000028886,0.571774683995859
19599.9999999953,10.9941735872007,1.00000000302951,0.584734085238205
19699.9999999938,11.2953746773251,1.00000000299115,0.592972276189408
19799.9999999924,11.5962691955109,1.00000000307629,0.605435865525466
19899.9999999909,11.8834155870215,1.00000000297284,0.621691931741073
19999.9999999895,12.1554344801042,1.00000000319106,0.617814967103471
20099.999999988,12.4157540994269,1.00000000280527,0.643315275053017
20199.9999999865,12.6533593112501,1.00000000317008,0.641662113410946
20299.9999999851,12.8823543174967,1.00000000299419,0.649073654681429
20399.9999999836,13.0882961796374,1.00000000317305,0.65791184743127
20499.9999999822,13.2825827976891,1.00000000348877,0.649059337352311
20599.9999999807,13.4492815328467,1.00000000305479,0.654981683139602
20699.9999999793,13.6093324353528,1.00000000276624,0.65957601779278
20799.9999999778,13.7619467641268,1.00000000287479,0.68152293509703
20899.9999999764,13.8986950670759,1.00000000310579,0.671071312882912
20999.9999999749,14.023398619569,1.00000000309486,0.669284989677522
21099.9999999734,14.1365281638277,1.00000000304235,0.676440725613713
21199.999999972,14.2424955249663,1.00000000348321,0.685327697609249
21299.9999999705,14.336438139848,1.00000000284556,0.688913362648108
21399.9999999691,14.434958165571,1.00000000284416,0.690285705333755
21499.9999999676,14.5310616384003,1.00000000343342,0.698836421753336
21599.9999999662,14.6103390272574,1.00000000322624,0.693629516846501
21699.9999999647,14.6846567402974,1.0000000030489,0.691906057123889
21799.9999999633,14.7520917644977,1.0000000032288,0.697657182671707
21899.9999999618,14.8216037057432,1.00000000328135,0.685150422169172
21999.9999999603,14.8886129783941,1.00000000298055,0.669972865562502
22099.9999999589,14.953293437656,1.00000000315082,0.660141919244577
22199.9999999574,15.0116288675816,1.00000000301281,0.678568095476103
22299.999999956,15.0686944367779,1.00000000296691,0.68024085323591
22399.9999999545,15.1249954903071,1.00000000318541,0.67976420804996
22499.9999999531,15.1808639977503,1.00000000320038,0.678834873571666
22599.9999999516,15.2382662871955,1.00000000304645,0.68029164562033
22699.9999999502,15.2849391451536,1.00000000321835,0.676694807968471
22799.9999999487,15.325472892028,1.00000000291592,0.671256067087548
22899.9999999473,15.3647620966822,1.00000000288806,0.692994343859116
22999.9999999458,15.4039923631739,1.00000000301121,0.684647497440229
23099.9999999443,15.4431739973882,1.00000000332482,0.671832318581059
23199.9999999429,15.4802314215468,1.00000000323141,0.67570137826547
23299.9999999414,15.5116499009509,1.00000000361111,0.688636697325497
23399.99999994,15.5391904422904,1.00000000302503,0.688550788110407
23499.9999999385,15.5714233591979,1.00000000331484,0.672424530965026
23599.9999999371,15.6122491695104,1.00000000294124,0.685219547342441
23699.9999999356,15.6507146891175,1.00000000342322,0.694276963093668
23799.9999999342,15.6857319298289,1.00000000343019,0.692036642727583
23899.9999999327,15.7248353279366,1.0000000031123,0.686147348787446
23999.9999999312,15.7715998828084,1.00000000300143,0.681207081556473
24099.9999999298,15.8176127045536,1.00000000336257,0.68892399515967
24199.9999999283,15.8613840517462,1.00000000299353,0.675552706763156
24299.9999999269,15.9069687542496,1.00000000331272,0.662487490783667
24399.9999999254,15.9528894984996,1.00000000335453,0.660765865474645
24499.999999924,15.993068939716,1.00000000343554,0.674078463959681
24599.9999999225,16.0244771524117,1.00000000329998,0.689134111802554
24699.9999999211,16.0526510345327,1.00000000349834,0.66647927102979
24799.9999999196,16.0903135842357,1.00000000321528,0.664378650372565
24899.9999999181,16.1372547054059,1.00000000303654,0.68577121969918
24999.9999999167,16.1837426032559,1.00000000337432,0.698510144355717
25099.9999999152,16.224210429084,1.00000000313858,0.676493201689647
25199.9999999138,16.2660054527785,1.00000000322783,0.659951805509309
25299.9999999123,16.3090761592004,1.00000000328324,0.679494846916441
25399.9999999109,16.3485392642893,1.0000000035594,0.677919372754574
25499.9999999094,16.3884583925363,1.00000000320239,0.678854077193467
25599.999999908,16.4306351424164,1.00000000313966,0.682494842793878
25699.9999999065,16.4691608198315,1.00000000360268,0.685108285744516
25799.9999999051,16.507215040737,1.00000000327222,0.686923939996269
25899.9999999036,16.5432804464995,1.00000000338239,0.686634077698495
25999.9999999021,16.5745234936446,1.00000000375398,0.684943026426323
26099.9999999007,16.600326070954,1.00000000332621,0.696275432015953
26199.9999998992,16.6275770426024,1.00000000324152,0.703568202925714
26299.9999998978,16.6574970723573,1.0000000032318,0.701916498296045
26399.9999998963,16.690938928657,1.00000000336739,0.69688370970455
26499.9999998949,16.7291615257901,1.0000000032376,0.696113705118269
26599.9999998934,16.7772592958096,1.00000000310253,0.679753771110461
26699.999999892,16.832049073108,1.0000000029203,0.680085639453607
26799.9999998905,16.8939620070125,1.00000000325903,0.677050633728715
26899.999999889,16.9624356620969,1.00000000315025,0.677526701412858
26999.9999998876,17.0358045730088,1.00000000344868,0.66295932412612
27099.9999998861,17.1118290453191,1.00000000335954,0.662955794482199
27199.9999998847,17.1890508662078,1.00000000329882,0.675128857966346
27299.9999998832,17.2629695030181,1.00000000374956,0.696387112597077
27399.9999998818,17.3272612635975,1.00000000353423,0.703290428098509
27499.9999998803,17.3857868439417,1.00000000334668,0.687561964645747
27599.9999998789,17.4438960632773,1.0000000030459,0.688449271492761
27699.9999998774,17.5069939491756,1.00000000332765,0.675497205721018
27799.9999998759,17.5729334115274,1.00000000375123,0.673314175602697
27899.9999998745,17.6411336287881,1.00000000322869,0.66924512493546
27999.999999873,17.7161886591486,1.00000000349046,0.683679277373627
28099.9999998716,17.792713396249,1.00000000339044,0.683488044131347
28199.9999998701,17.8728642177514,1.00000000302754,0.681163414675424
28299.9999998687,17.9533662450824,1.00000000353936,0.698851772562311
28399.9999998672,18.0311432573644,1.00000000350629,0.682506673039782
28499.9999998658,18.1095084091446,1.0000000035855,0.659750241685107
28599.9999998643,18.1903465064713,1.00000000333976,0.664386180923257
28699.9999998629,18.2634963614641,1.00000000350444,0.676302667556746
28799.9999998614,18.3252818023038,1.00000000369027,0.672030867048154
28899.9999998599,18.3847274146383,1.0000000042655,0.687736933116721
28999.9999998585,18.4458892427793,1.00000000319882,0.661008793338038
29099.999999857,18.5162367263786,1.00000000347191,0.664638536556068
