Time,AGPnorm,Energy,Entropy
0,0,1,-1.31340486656411e-17
99.9999999999986,9.34532359920304e-06,1.00000000000408,0.000453467765824761
199.999999999993,0.000794227102908496,1.00000000000053,0.000701948579340427
300,0.00201168017581662,1.00000000000192,0.00129205191375685
400.000000000022,0.00281245004603751,1.00000000000335,0.00217912204799305
500.000000000045,0.00349480846183546,0.999999999999741,0.00295289938268011
600.000000000068,0.00495593283501972,1.00000000000383,0.00417341756030264
700.000000000091,0.00609656103188426,1.00000000000115,0.00530825224293349
800.000000000113,0.00789312675659101,1.00000000000121,0.00663760675408058
900.000000000136,0.00989914165461301,1.00000000000382,0.00814472037602843
1000.00000000016,0.0116555630877974,0.999999999999718,0.00959500866325622
1100.0000000001,0.0139877562224084,1.00000000000338,0.0113505050933739
1200,0.0164017203265657,1.00000000000188,0.0130398643300045
1299.99999999991,0.0190750758757831,1.00000000000058,0.0148973161988672
1399.99999999982,0.0218639046680078,1.00000000000407,0.0168823721859542
1499.99999999973,0.0246374530202536,0.999999999999943,0.0188218788665043
1599.99999999964,0.0279124322727077,1.00000000000277,0.0210251907046094
1699.99999999955,0.0313914626123445,1.0000000000026,0.0231598528177372
1799.99999999946,0.0349376183705083,1.00000000000009,0.0254483803377111
1899.99999999937,0.03846952697423,1.00000000000407,0.0278541275008319
1999.99999999928,0.0421260890566834,1.0000000000004,0.0302022288685618
2099.99999999919,0.0462204024563884,1.00000000000209,0.0328164577811337
2199.99999999909,0.0505121772927346,1.00000000000324,0.0353580466499291
2299.999999999,0.0548646733956038,0.999999999999797,0.0380306915983264
2399.99999999891,0.0591444382857382,1.00000000000384,0.0408391349775358
2499.99999999882,0.0636159489937009,1.00000000000103,0.0435713312073058
2599.99999999873,0.0683712849266545,1.00000000000141,0.0465828122267535
2699.99999999864,0.073213620385894,1.00000000000371,0.0495343712848512
2799.99999999855,0.0782031280891572,0.999999999999741,0.052582418542291
2899.99999999846,0.0831791378019794,1.0000000000034,0.055806382894898
2999.99999999837,0.088388758893683,1.00000000000174,0.0589409666300376
3099.99999999828,0.0937061404790144,1.0000000000008,0.0623549536839895
3199.99999999819,0.0989295050852242,1.00000000000396,0.0657497373968945
3299.99999999809,0.104348473977371,0.999999999999957,0.0691968528966875
3399.999999998,0.10987001368202,1.00000000000281,0.0728848343730911
3499.99999999791,0.115620227796706,1.00000000000243,0.0764735756678177
3599.99999999782,0.121424996712905,1.0000000000003,0.0803349849989214
3699.99999999773,0.12695507855149,1.00000000000399,0.0842405603278428
3799.99999999764,0.132696751035893,1.0000000000004,0.0881552979327393
3899.99999999755,0.138564072992536,1.00000000000219,0.092389627102642
3999.99999999746,0.144606395435062,1.00000000000303,0.0965397330656251
4099.99999999738,0.150740025569212,0.999999999999965,0.100947036749829
4199.99999999775,0.15653926358427,1.00000000000376,0.105489809777752
4299.99999999811,0.162561676728877,1.00000000000097,0.110026588830693
4399.99999999848,0.16863440155941,1.00000000000162,0.114946482403217
4499.99999999884,0.174754331202682,1.00000000000351,0.119854963404897
4599.9999999992,0.180969597722736,0.999999999999925,0.125007185538254
4699.99999999957,0.186975523861097,1.00000000000335,0.130434777249032
4799.99999999993,0.1931303696667,1.00000000000169,0.135888463147648
4900.00000000029,0.199352210436514,1.00000000000123,0.141814307659011
5000.00000000066,0.20542738111709,1.00000000000403,0.147859643113403
5100.00000000102,0.211517760129539,1.00000000000061,0.154182653282113
5200.00000000139,0.21770685636755,1.00000000000348,0.16098694216717
5300.00000000175,0.223761113049176,1.00000000000347,0.167912673721145
5400.00000000211,0.230146213660522,1.00000000000253,0.175411414035937
5500.00000000248,0.236374914256732,1.00000000000685,0.183181645614941
5600.00000000284,0.242252222236139,1.00000000000499,0.19121999340297
5700.00000000321,0.249389876964362,1.00000000000896,0.199799386685913
5800.00000000357,0.25574487571928,1.00000000001204,0.208474190460403
5900.00000000393,0.263436373920164,1.00000000001314,0.217540006489622
6000.0000000043,0.272676972455259,1.00000000002093,0.226778519240343
6100.00000000466,0.281270473066321,1.00000000002233,0.235956866653993
6200.00000000502,0.295819684851773,1.00000000002959,0.245438194278355
6300.00000000539,0.311274616914852,1.00000000003658,0.254718446366627
6400.00000000575,0.332862961750281,1.00000000003987,0.264028971347334
6500.00000000612,0.364311729211392,1.00000000005249,0.273357153523792
6600.00000000648,0.400597871742155,1.00000000005745,0.28228814182966
6700.00000000684,0.456631880750682,1.00000000006495,0.291378803921896
6800.00000000721,0.52568667336655,1.00000000007738,0.300097860231682
6900.00000000757,0.61684185287495,1.00000000008117,0.308667028760139
7000.00000000793,0.739616981034766,1.00000000009448,0.317219557301703
7100.0000000083,0.887155246911567,1.00000000010449,0.32533611181904
7200.00000000866,1.0833551866826,1.00000000011172,0.333536062236492
7300.00000000903,1.32085101471584,1.00000000012669,0.341390425799655
7400.00000000939,1.61266956076546,1.00000000012945,0.349021498971115
7500.00000000975,1.97394629650664,1.0000000001411,0.356678657210358
7600.00000001012,2.39604098855176,1.00000000014171,0.363931697553821
7700.00000001048,2.91095465908425,1.00000000014903,0.371121664022521
7800.00000001084,3.50917003307989,1.00000000017171,0.378102769981089
7900.00000001121,4.20673147953754,1.00000000017195,0.384744430021102
8000.00000001157,5.02323436481608,1.00000000017867,0.391490633537938
8100.00000001194,5.94549506813219,1.00000000019,0.397754860294733
8200.0000000123,7.01285008839121,1.00000000019508,0.403976364157683
8300.00000001266,8.2114573342877,1.00000000020752,0.410098395729935
8400.00000001303,9.5569668716642,1.00000000021424,0.415778567435539
8500.00000001339,11.0744262462405,1.00000000021424,0.421616275359372
8600.00000001376,12.7406970090224,1.00000000023804,0.426988299967162
8700.00000001412,14.6018773685129,1.00000000023085,0.432281158525283
8800.00000001448,16.6397315920939,1.00000000024029,0.437574068640617
8900.00000001485,18.8639159646733,1.00000000023126,0.442459107780294
9000.00000001521,21.3077427869956,1.00000000024583,0.44727641539462
9100.00000001557,23.9331764299496,1.00000000026411,0.451995437469667
9200.00000001594,26.7911486653996,1.00000000026108,0.45632505010525
9300.0000000163,29.8623197916524,1.00000000025514,0.460917012869205
9400.00000001667,33.1431289453857,1.00000000027766,0.464941098514814
9500.00000001703,36.6784851517501,1.00000000027484,0.468962081610718
9600.00000001739,40.4151150430097,1.00000000027607,0.473064734548143
9700.00000001776,44.4032203273765,1.00000000027993,0.476637256939575
9800.00000001812,48.6285259490516,1.00000000028305,0.480441955611684
9900.00000001848,53.0680840304716,1.00000000028902,0.483866539488733
10000.0000000188,57.779668407836,1.00000000028669,0.487144314025651
10100.0000000192,62.6993647366328,1.00000000028609,0.490583040444176
10200.0000000196,67.8677052009955,1.00000000028345,0.493544932706306
10300.0000000199,73.2838761887764,1.00000000029262,0.496511837831275
10400.0000000203,78.9025986714106,1.0000000002954,0.499563335850683
10500.0000000207,84.7908850632403,1.00000000030095,0.502053224411331
10600.000000021,90.8832829678743,1.00000000029751,0.5048596197531
10700.0000000214,97.2019263399691,1.00000000028877,0.507443268989177
10800.0000000218,103.766417642285,1.00000000030069,0.50964926989471
10900.0000000221,110.508828536963,1.00000000029949,0.51220252835896
11000.0000000225,117.500030511068,1.00000000030554,0.514209664370643
11100.0000000229,124.683203036512,1.0000000003029,0.516447246913173
11200.0000000232,132.054408001696,1.00000000030612,0.518485883363977
11300.0000000236,139.656213870755,1.00000000030233,0.520254632461168
11400.0000000239,147.40533027611,1.0000000003088,0.522259146361181
11500.0000000243,155.365783669232,1.00000000031087,0.523887105983301
11600.0000000247,163.498858613501,1.00000000029985,0.525659385860586
11700.000000025,171.775144703209,1.00000000030739,0.527271018835573
11800.0000000254,180.253725939811,1.00000000030695,0.528682967317456
11900.0000000258,188.846890109976,1.00000000029342,0.53029530574925
12000.0000000261,197.603694346618,1.00000000030965,0.531437445268588
12100.0000000265,206.507784973877,1.0000000003044,0.532733824724838
12200.0000000269,215.507049832026,1.00000000029287,0.534129147267454
12300.0000000272,224.670004622627,1.00000000031409,0.534916077683678
12400.0000000276,233.915727838388,1.00000000030509,0.536234023487055
12500.0000000279,243.27129096318,1.00000000030014,0.537125248939188
12600.0000000283,252.745591556219,1.00000000029565,0.538052226698192
12700.0000000287,262.26828385056,1.00000000029442,0.539232763194834
12800.000000029,271.910403152634,1.00000000029752,0.539772100612444
12900.0000000294,281.605399275655,1.00000000029787,0.540538616115404
13000.0000000298,291.354831424391,1.00000000028838,0.541342741457297
13100.0000000301,301.191286893,1.00000000030815,0.541699296022049
13200.0000000305,311.035237438105,1.00000000030098,0.542552005166391
13300.0000000309,320.948921927642,1.00000000028929,0.542992574435441
13400.0000000312,330.889097667377,1.00000000028957,0.543534625712126
13500.0000000316,340.832900863928,1.00000000028529,0.544144162695255
13600.0000000319,350.829050231275,1.00000000028631,0.544478355860387
13700.0000000323,360.799185714559,1.00000000028646,0.544950779221351
13800.0000000327,370.789375131692,1.00000000026954,0.545089409532918
13900.000000033,380.778916071055,1.00000000028662,0.545363445228035
14000.0000000334,390.729305985315,1.00000000028099,0.545972743520376
14100.0000000338,400.695403305671,1.00000000027978,0.545825897320063
14200.0000000341,410.608367872105,1.00000000027119,0.54623002816737
14300.0000000345,420.495795512452,1.00000000027515,0.546145183652713
14400.0000000349,430.358901983031,1.00000000027536,0.546199148163929
14500.0000000352,440.145459773604,1.00000000027468,0.546935265583882
14600.0000000356,449.912620815971,1.00000000027889,0.546724460983164
14700.0000000359,459.603668984334,1.00000000026323,0.546646549924048
14800.0000000363,469.228105724037,1.00000000026041,0.546632590062388
14900.0000000367,478.806200721349,1.00000000026627,0.54661170201413
15000.000000037,488.279652677611,1.00000000027515,0.546778761805593
15100.0000000374,497.699063195583,1.00000000026886,0.546750186602438
15200.0000000378,507.027237744521,1.00000000026239,0.546688216918777
15300.0000000381,516.255779805859,1.00000000025535,0.546569958644261
15400.0000000385,525.415262927881,1.00000000025813,0.546313796365322
15500.0000000389,534.450870455958,1.00000000025442,0.54645095945359
15600.0000000392,543.402816481313,1.00000000025194,0.546294979383408
15700.0000000396,552.248612495871,1.00000000026248,0.546174531177809
15800.0000000399,560.969500993299,1.0000000002424,0.54646295805481
15900.0000000403,569.602433666705,1.00000000024215,0.545787526945037
16000.0000000407,578.097455905154,1.00000000024612,0.545683688405101
16100.000000041,586.482703473903,1.00000000024127,0.545512193831181
16200.0000000414,594.753204271813,1.00000000024366,0.545463326491926
16300.0000000418,602.87992062671,1.00000000023807,0.545553940071282
16400.0000000418,610.900499527112,1.00000000024241,0.545195116626369
16500.0000000404,618.778075552201,1.00000000024206,0.54516589535468
16600.0000000389,626.524652668524,1.00000000023961,0.54458341559198
16700.0000000375,634.150911777669,1.00000000023895,0.544357001240852
16800.000000036,641.61973486512,1.00000000023208,0.544303165696876
16900.0000000346,648.972500380801,1.00000000023886,0.544123232049268
17000.0000000331,656.174416001275,1.0000000002278,0.543715980199381
17100.0000000317,663.233803852337,1.00000000023085,0.543709236584017
17200.0000000302,670.163917552292,1.00000000023756,0.543059385452922
17300.0000000287,676.933087855409,1.00000000021943,0.54305899430751
17400.0000000273,683.571704552629,1.00000000021896,0.542391870511373
17500.0000000258,690.059918302638,1.0000000002282,0.542144562990009
17600.0000000244,696.393816081045,1.00000000022279,0.542216206463118
17700.0000000229,702.595335717409,1.00000000022377,0.541658516993666
17800.0000000215,708.631955666398,1.00000000022376,0.541647141956154
17900.00000002,714.529426779119,1.00000000021811,0.541024026310434
18000.0000000186,720.277953363992,1.00000000021554,0.540802462482451
18100.0000000171,725.866523074142,1.00000000021119,0.540355835313027
18200.0000000156,731.31926712159,1.00000000021538,0.53988453411424
18300.0000000142,736.608964915482,1.00000000021068,0.539784565199724
18400.0000000127,741.753976410486,1.00000000020929,0.539779727609308
18500.0000000113,746.75391195754,1.00000000020986,0.539575094783839
18600.0000000098,751.591709631075,1.00000000020198,0.539269665029198
18700.0000000084,756.293306138785,1.00000000020319,0.538495371954121
18800.0000000069,760.835190212541,1.0000000002018,0.537830747303115
18900.0000000055,765.230144255362,1.00000000020001,0.537692454386048
19000.000000004,769.483759280359,1.00000000020035,0.537288884409793
19100.0000000026,773.577748920973,1.00000000020244,0.537843829839286
19200.0000000011,777.537269997777,1.00000000019646,0.537708946096184
19299.9999999996,781.344456606224,1.0000000001954,0.537654570708717
19399.9999999982,785.005927851927,1.00000000019116,0.536892264900846
19499.9999999967,788.530216509544,1.00000000018806,0.535433376515405
19599.9999999953,791.899602423936,1.00000000019182,0.534931232061357
19699.9999999938,795.13456967946,1.00000000019033,0.534221648984714
19799.9999999924,798.224830718057,1.00000000018409,0.535120030043009
19899.9999999909,801.172062688184,1.00000000018865,0.536200713322226
19999.9999999895,803.990248321606,1.00000000018696,0.536967998219848
20099.999999988,806.664563777642,1.00000000018599,0.537106940912696
20199.9999999865,809.211405724587,1.00000000018216,0.535544416977162
20299.9999999851,811.624592173229,1.00000000017875,0.533460664857956
20399.9999999836,813.897293463362,1.00000000017462,0.531181245697069
20499.9999999822,816.042567890976,1.00000000017702,0.529935803384268
20599.9999999807,818.046378502003,1.00000000017086,0.531025881752028
20699.9999999793,819.923183495892,1.00000000017599,0.533643461983002
20799.9999999778,821.67696457178,1.00000000018009,0.536742546754865
20899.9999999764,823.30570445288,1.00000000017457,0.538624311545636
20999.9999999749,824.827033599349,1.00000000018105,0.538369226555485
21099.9999999734,826.229052346075,1.00000000017372,0.535198411809256
21199.999999972,827.515386901429,1.00000000016868,0.530545862862585
21299.9999999705,828.682957186716,1.00000000016195,0.525727985540042
21399.9999999691,829.718615582614,1.00000000015709,0.523650230811796
21499.9999999676,830.635277131257,1.00000000015673,0.525580809291333
21599.9999999662,831.42871982826,1.00000000016069,0.530545317531678
21699.9999999647,832.113977230365,1.00000000016663,0.5372483755748
21799.9999999633,832.707377443932,1.00000000017062,0.541839504227794
21899.9999999618,833.208326131414,1.00000000018141,0.543139319547081
21999.9999999603,833.631821590195,1.00000000017304,0.540049486218254
22099.9999999589,833.964584854384,1.00000000017183,0.532534462335651
22199.9999999574,834.197959996961,1.00000000015836,0.523406939334898
22299.999999956,834.326090833479,1.00000000014274,0.516002521160225
22399.9999999545,834.332934297959,1.00000000013746,0.514180769383917
22499.9999999531,834.231170526502,1.00000000013892,0.519269657635796
22599.9999999516,834.027738541431,1.00000000015541,0.528679107714824
22699.9999999502,833.740302257442,1.0000000001697,0.539247281898006
22799.9999999487,833.393997043658,1.00000000019393,0.546605079939019
22899.9999999473,832.992710088211,1.00000000018878,0.548717352286793
22999.9999999458,832.547063649542,1.00000000019029,0.544547881763375
23099.9999999443,832.046224889509,1.0000000001714,0.534176817155531
23199.9999999429,831.472262373904,1.00000000015458,0.520185897546414
23299.9999999414,830.813506281103,1.00000000013487,0.506699242913147
23399.99999994,830.049177734982,1.00000000012007,0.499662033879498
23499.9999999385,829.183650857248,1.00000000012281,0.502669775502527
23599.9999999371,828.226114290214,1.00000000013592,0.514626246418334
23699.9999999356,827.195739836531,1.00000000015876,0.530663918479798
23799.9999999342,826.122648499021,1.00000000017957,0.544284451001187
23899.9999999327,825.021412740474,1.00000000019565,0.552501560896667
23999.9999999312,823.906752833589,1.00000000020347,0.553646963537863
24099.9999999298,822.77910184576,1.00000000019787,0.546938707856223
24199.9999999283,821.622123283181,1.00000000018274,0.53279205201704
24299.9999999269,820.422003832886,1.00000000015198,0.513768257692269
24399.9999999254,819.150619876329,1.00000000012119,0.49411717544402
24499.999999924,817.793545862216,1.00000000010888,0.481934408470835
24599.9999999225,816.346670952594,1.00000000010212,0.482383623095727
24699.9999999211,814.816231048205,1.00000000011686,0.496602944554604
24799.9999999196,813.228851518144,1.00000000014626,0.517989581904217
24899.9999999181,811.606765413346,1.00000000018035,0.538246350577058
24999.9999999167,809.975616806661,1.00000000020622,0.551927432463916
25099.9999999152,808.353674676766,1.00000000022379,0.558323909320449
25199.9999999138,806.743918983041,1.00000000021904,0.556983089776964
25299.9999999123,805.145098960508,1.00000000020926,0.547151616592736
25399.9999999109,803.539275812222,1.00000000018762,0.529737845670321
25499.9999999094,801.90421314659,1.00000000015107,0.505728710465522
25599.999999908,800.218140924738,1.00000000011843,0.480546129590188
25699.9999999065,798.458801895283,1.00000000009189,0.463511175944613
25799.9999999051,796.624698666655,1.00000000009063,0.4614311294277
25899.9999999036,794.720673793143,1.00000000010289,0.475805381425794
25999.9999999021,792.766219353682,1.00000000013711,0.502262427744428
26099.9999999007,790.789113621383,1.00000000016645,0.527881851626492
26199.9999998992,788.809542771005,1.00000000020739,0.547482434398707
26299.9999998978,786.849155217683,1.00000000023439,0.558323232702527
26399.9999998963,784.91785708422,1.00000000023973,0.562040794927784
26499.9999998949,783.015326648418,1.00000000023759,0.558539052296136
26599.9999998934,781.137066298722,1.00000000021479,0.547228790357214
26699.999999892,779.263887270194,1.00000000018774,0.527973265647229
26799.9999998905,777.376677942535,1.00000000015674,0.500412147797486
26899.999999889,775.452858682937,1.00000000011738,0.47106653702162
26999.9999998876,773.473558210569,1.0000000000899,0.448193020661633
27099.9999998861,771.435186605022,1.00000000008025,0.440467694515895
27199.9999998847,769.337854401543,1.00000000008902,0.45160885888411
27299.9999998832,767.199613534037,1.00000000012253,0.479068731880758
27399.9999998818,765.04025265299,1.00000000015575,0.509056087098071
27499.9999998803,762.878790223469,1.0000000001966,0.535426172811315
27599.9999998789,760.73725330432,1.00000000021925,0.551857623518682
27699.9999998774,758.624601405222,1.00000000024246,0.559580627807055
27799.9999998759,756.548887135397,1.00000000026171,0.562351332271298
27899.9999998745,754.510090810551,1.00000000023098,0.557006983063713
27999.999999873,752.49889197394,1.00000000023649,0.548684916896686
28099.9999998716,750.505768854894,1.00000000019696,0.528875538181663
28199.9999998701,748.510584593468,1.00000000017466,0.50333035987648
28299.9999998687,746.497001103077,1.00000000013531,0.471478516230799
28399.9999998672,744.449698578611,1.00000000009839,0.442255348803333
28499.9999998658,742.357629797936,1.00000000008153,0.4254443810048
28599.9999998643,740.222923546804,1.00000000007647,0.426005241944895
28699.9999998629,738.050917073074,1.00000000009558,0.444188734259168
28799.9999998614,735.855612553852,1.00000000013196,0.475078076196668
