Time,AGPnorm,Energy,Entropy
0,0,1,-7.48686537177326e-17
99.9999999999986,0.00177241168493375,0.999999999998265,0.00553923339735484
199.999999999993,0.0124340220872185,0.999999999999595,0.0159809762743278
300,0.0242839254690101,1.00000000000199,0.0297854621080462
400.000000000022,0.0366675002963591,1.00000000000142,0.0473278754204683
500.000000000045,0.0512396632278955,0.999999999998268,0.068447801755306
600.000000000068,0.0709250483291275,0.999999999998615,0.0931579601717766
700.000000000091,0.0880012781247299,1.0000000000012,0.122299472033174
800.000000000113,0.105956541334859,1.00000000000455,0.157959740981661
900.000000000136,0.123018045382918,1.00000000003074,0.203872373033457
1000.00000000016,0.138795627871625,1.00000000016804,0.260907770437772
1100.0000000001,0.170025167836869,1.0000000005193,0.321534919060818
1200,0.260862236843283,1.00000000102736,0.376323972429711
1299.99999999991,0.462342704326052,1.0000000013931,0.424146352170298
1399.99999999982,0.887543417601985,1.00000000185703,0.463085784218467
1499.99999999973,1.65045747762504,1.00000000222449,0.49477880387825
1599.99999999964,2.79632115389686,1.00000000239759,0.521188905275169
1699.99999999955,4.35626180755783,1.00000000252708,0.542832967048998
1799.99999999946,6.36238434624885,1.00000000253057,0.558697303489757
1899.99999999937,8.75262679226859,1.0000000025541,0.570340878184013
1999.99999999928,11.4123911855095,1.00000000255845,0.579881408576359
2099.99999999919,14.2802547005248,1.00000000239743,0.587357267203858
2199.99999999909,17.3203016386972,1.00000000250683,0.590595479762415
2299.999999999,20.4347711471372,1.0000000023696,0.592237935731066
2399.99999999891,23.4971252781127,1.00000000233515,0.593145998001322
2499.99999999882,26.4393601695301,1.00000000232904,0.594584346961442
2599.99999999873,29.2437570232724,1.00000000222,0.593014489352662
2699.99999999864,31.8770345827316,1.00000000210039,0.59073457991743
2799.99999999855,34.2772460195731,1.00000000194877,0.589026552417555
2899.99999999846,36.4045245255726,1.00000000192013,0.588220254325061
2999.99999999837,38.257502923285,1.00000000183294,0.586549580944735
3099.99999999828,39.849440806685,1.00000000167193,0.582681498906738
3199.99999999819,41.1800714706384,1.00000000162095,0.579477731093348
3299.99999999809,42.2406419899764,1.00000000165703,0.579219007213726
3399.999999998,43.0402009409268,1.00000000148755,0.575126957996245
3499.99999999791,43.6038691494839,1.00000000150983,0.578857980566003
3599.99999999782,43.9485405184104,1.00000000141835,0.573807679389105
3699.99999999773,44.1124243663492,1.00000000135054,0.569894140062306
3799.99999999764,44.0911526253876,1.00000000145043,0.574711209399562
3899.99999999755,43.933370106131,1.00000000137108,0.567878380838021
3999.99999999746,43.6374190876037,1.00000000140662,0.565150496227616
4099.99999999738,43.2718048639197,1.00000000146155,0.564242183196977
4199.99999999775,42.8039213873743,1.00000000126174,0.54363364423549
4299.99999999811,42.2967887421372,1.00000000164326,0.571061730312912
4399.99999999848,41.7343933158361,1.00000000106505,0.526359783856771
4499.99999999884,41.1294068710647,1.00000000183196,0.580990229820164
4599.9999999992,40.5341420453404,1.00000000136516,0.539068005462874
4699.99999999957,39.8919753500402,1.00000000123996,0.515409556069904
4799.99999999993,39.2535577542982,1.00000000177273,0.576163539238801
4900.00000000029,38.6287977296924,1.00000000114279,0.513337490474834
5000.00000000066,37.9771802961077,1.00000000131413,0.510165630534779
5100.00000000102,37.3385149991503,1.00000000188764,0.5660334259416
5200.00000000139,36.7239790315802,1.00000000138519,0.508526164681271
5300.00000000175,36.103854975619,1.00000000123223,0.505465141512039
5400.00000000211,35.4840984543066,1.0000000016074,0.531900223131968
5500.00000000248,34.8892070795781,1.00000000165629,0.53744991352648
5600.00000000284,34.3096105638535,1.00000000131686,0.496214976682056
5700.00000000321,33.7368254687961,1.00000000137637,0.516191060079081
5800.00000000357,33.1731289679522,1.00000000156904,0.522550900467505
5900.00000000393,32.6277441363822,1.00000000164647,0.533202792234181
6000.0000000043,32.0991422766886,1.00000000139833,0.503493809211084
6100.00000000466,31.5866401657673,1.00000000137999,0.5173081067326
6200.00000000502,31.0873869573319,1.00000000155273,0.537094867771499
6300.00000000539,30.6035205711845,1.00000000147845,0.515543208280618
6400.00000000575,30.1352066309869,1.00000000175693,0.527696476220429
6500.00000000612,29.6817573753155,1.00000000152192,0.509492466025914
6600.00000000648,29.2487624848167,1.00000000132694,0.513201337298676
6700.00000000684,28.8291428122941,1.00000000169158,0.543775199766891
6800.00000000721,28.4244207267357,1.00000000131996,0.513474112748686
6900.00000000757,28.0385122203469,1.00000000145142,0.510758100621104
7000.00000000793,27.6632837869303,1.00000000168026,0.519661485059905
7100.0000000083,27.3002729738288,1.00000000132951,0.505742242405414
7200.00000000866,26.95741631991,1.00000000133556,0.515517244574149
7300.00000000903,26.6253892053503,1.00000000162924,0.536151676555064
7400.00000000939,26.3007714403236,1.00000000148897,0.532739356879495
7500.00000000975,25.9954063220729,1.00000000129214,0.501489269402318
7600.00000001012,25.704261068485,1.00000000153458,0.519429148938663
7700.00000001048,25.4207081701468,1.00000000160621,0.523669585319238
7800.00000001084,25.1478661519158,1.00000000157741,0.510330040662063
7900.00000001121,24.889895244173,1.00000000139611,0.520746450635091
8000.00000001157,24.6427691281387,1.00000000143081,0.536567411631996
8100.00000001194,24.3998967127938,1.00000000159981,0.528579567676052
8200.0000000123,24.1645546970466,1.00000000152321,0.532004335140378
8300.00000001266,23.9419774971822,1.00000000141173,0.526206548007525
8400.00000001303,23.7305800275551,1.00000000155808,0.512454102239912
8500.00000001339,23.5297493157495,1.00000000148843,0.533247872128506
8600.00000001376,23.3366028834517,1.00000000156572,0.530494087497556
8700.00000001412,23.1542731734365,1.00000000137691,0.522804571142334
8800.00000001448,22.9827806273742,1.00000000154117,0.538924066944092
8900.00000001485,22.8144016834796,1.00000000156557,0.543533667799475
9000.00000001521,22.6572467044245,1.00000000132876,0.53119211327439
9100.00000001557,22.5072419814632,1.00000000156172,0.531584327086346
9200.00000001594,22.3555746748889,1.00000000175566,0.552607208809701
9300.0000000163,22.2044071703866,1.00000000149719,0.548794932601014
9400.00000001667,22.0624547225864,1.00000000140537,0.526963254119323
9500.00000001703,21.9331409843698,1.00000000150032,0.537567349456349
9600.00000001739,21.8117491695346,1.00000000159353,0.548600721892285
9700.00000001776,21.694571951258,1.00000000156297,0.53848410303811
9800.00000001812,21.5861912421152,1.00000000151015,0.543850315281784
9900.00000001848,21.4862794541856,1.00000000147768,0.546122823344223
10000.0000000188,21.3861847525077,1.00000000168974,0.550301408307621
10100.0000000192,21.2874296021619,1.00000000151629,0.547650468863804
10200.0000000196,21.2028622076186,1.0000000013677,0.52763798623033
10300.0000000199,21.1248743266384,1.00000000157974,0.551234029649553
10400.0000000203,21.0410827340653,1.00000000166931,0.551040030464598
10500.0000000207,20.9504768946128,1.0000000017498,0.558052852452141
10600.000000021,20.8573789525805,1.00000000156557,0.566894480999035
10700.0000000214,20.7703887481686,1.00000000156185,0.561911398312441
10800.0000000218,20.6874969393324,1.00000000155403,0.566537265612593
10900.0000000221,20.6114715131002,1.00000000158565,0.56225827329898
11000.0000000225,20.5422889069482,1.00000000157568,0.551020514475509
11100.0000000229,20.4822617637565,1.00000000164885,0.548968381688784
11200.0000000232,20.4295067749687,1.00000000152193,0.556984436821339
11300.0000000236,20.3810956374244,1.00000000173638,0.568356556150874
11400.0000000239,20.3323961878997,1.00000000145889,0.563923380271093
11500.0000000243,20.2902370102324,1.00000000156664,0.562368193381817
11600.0000000247,20.2480854275727,1.00000000161124,0.564918454085253
11700.000000025,20.2095418449149,1.00000000157639,0.56127536440227
11800.0000000254,20.1762810966437,1.00000000159138,0.559663341939932
11900.0000000258,20.1421124294697,1.00000000167956,0.577458516289393
12000.0000000261,20.1056288683026,1.00000000159242,0.576431474623066
12100.0000000265,20.071027879986,1.00000000156553,0.571400220195825
12200.0000000269,20.0335261797393,1.00000000169561,0.580740199167468
12300.0000000272,19.9895049005217,1.0000000016644,0.596054012562529
12400.0000000276,19.935719688283,1.00000000171852,0.611681550890649
12500.0000000279,19.8780453787583,1.00000000168539,0.609128534327036
12600.0000000283,19.8247744343001,1.00000000157032,0.594338616507416
12700.0000000287,19.7799387432102,1.00000000155321,0.591930890007209
12800.000000029,19.7444727907133,1.00000000158327,0.581480386933127
12900.0000000294,19.718642082867,1.00000000151166,0.569310313567012
13000.0000000298,19.6986015459506,1.00000000162001,0.575313150441521
13100.0000000301,19.6826870747528,1.00000000156219,0.585083342072446
13200.0000000305,19.6710716016933,1.00000000162139,0.593592115920432
13300.0000000309,19.6597065150105,1.00000000182025,0.591423623757447
13400.0000000312,19.6457679430018,1.00000000156172,0.586401592543045
13500.0000000316,19.6395504172453,1.00000000149249,0.577229223577831
13600.0000000319,19.6402895972108,1.00000000154182,0.583089835267597
13700.0000000323,19.638036059778,1.00000000177164,0.585721586136894
13800.0000000327,19.632931256121,1.00000000160164,0.589475213080609
13900.000000033,19.631037045212,1.00000000153698,0.588717582031944
14000.0000000334,19.6327058430617,1.00000000161748,0.601357381515085
14100.0000000338,19.630607531139,1.00000000181709,0.613035255462662
14200.0000000341,19.6207080094356,1.00000000169706,0.613244430077172
14300.0000000345,19.6086819255232,1.00000000158733,0.611330240220201
14400.0000000349,19.5983567665011,1.00000000156932,0.613327403275024
14500.0000000352,19.5875794130165,1.00000000165612,0.614225888072608
14600.0000000356,19.5701834913646,1.00000000167843,0.618511120583032
14700.0000000359,19.5463380332133,1.0000000017126,0.615885931820505
14800.0000000363,19.5130244606395,1.00000000171986,0.611046737613058
14900.0000000367,19.471292167257,1.00000000170985,0.622217079379691
15000.000000037,19.4267983077621,1.00000000167138,0.619913307457664
15100.0000000374,19.3872733219159,1.00000000154254,0.606012854400779
15200.0000000378,19.3558608503167,1.00000000170244,0.603136605752219
15300.0000000381,19.3331823199163,1.00000000160607,0.599406035403022
15400.0000000385,19.3176249721782,1.00000000159583,0.590995191894453
15500.0000000389,19.3111262961448,1.00000000163184,0.591387121278414
15600.0000000392,19.3113684258307,1.00000000161164,0.588927653440572
15700.0000000396,19.3161508430146,1.00000000159114,0.600739586643984
15800.0000000399,19.3225705666058,1.00000000160802,0.602836706554617
15900.0000000403,19.3304367575665,1.00000000162251,0.602243965398258
16000.0000000407,19.3396698725241,1.00000000171613,0.600333685742258
16100.000000041,19.3505778694778,1.00000000169445,0.596328845599036
16200.0000000414,19.3672444334851,1.00000000155482,0.585616407544244
16300.0000000418,19.3857982241203,1.00000000173473,0.594444954929642
16400.0000000418,19.4033424614355,1.00000000161942,0.602691787574454
16500.0000000404,19.4194968064047,1.00000000158764,0.606297654686879
16600.0000000389,19.4345418063171,1.0000000016746,0.605321722497277
16700.0000000375,19.4470459902469,1.00000000168267,0.597338932643054
16800.000000036,19.4576478997074,1.00000000167526,0.59003369002598
16900.0000000346,19.4692877421786,1.0000000017923,0.597825970598556
17000.0000000331,19.4799964590947,1.00000000174298,0.61240329146344
17100.0000000317,19.490968811874,1.00000000162378,0.621570398459064
17200.0000000302,19.5018569705479,1.0000000017594,0.624712680915343
17300.0000000287,19.5093281159607,1.00000000170396,0.618810483969879
17400.0000000273,19.511629734889,1.00000000185789,0.626870672084581
17500.0000000258,19.5093216858284,1.00000000172274,0.628907939970345
17600.0000000244,19.5055942826732,1.00000000179707,0.632588414601
17700.0000000229,19.4997612868475,1.00000000171771,0.641704958521283
17800.0000000215,19.4921463552314,1.00000000171355,0.639184094322023
17900.00000002,19.4810256332992,1.0000000017439,0.640101487387192
18000.0000000186,19.4670678873628,1.00000000167563,0.640733105386923
18100.0000000171,19.4526981876706,1.00000000166275,0.637358488136891
18200.0000000156,19.4363423138393,1.00000000171786,0.641625506047229
18300.0000000142,19.4140914219697,1.00000000169705,0.630472536929874
18400.0000000127,19.3851760910534,1.00000000196847,0.636889599269308
18500.0000000113,19.3496039551929,1.00000000181329,0.629480051733805
18600.0000000098,19.3093818544455,1.00000000184969,0.630100368386627
18700.0000000084,19.2672136037408,1.00000000175633,0.627591253454277
18800.0000000069,19.2288676349785,1.00000000168943,0.619772716454879
18900.0000000055,19.1954064962056,1.0000000015706,0.618803439903066
19000.000000004,19.1680121308323,1.00000000170326,0.621880031063071
19100.0000000026,19.1464574349207,1.00000000166562,0.620427753823185
19200.0000000011,19.1319159544541,1.00000000172967,0.617790880600226
19299.9999999996,19.124864538111,1.00000000164313,0.608033258904547
19399.9999999982,19.1259987028353,1.00000000179094,0.607310033460063
19499.9999999967,19.1317767926878,1.00000000173555,0.596241626758671
19599.9999999953,19.1412634582951,1.00000000174859,0.599719436507217
19699.9999999938,19.1545996426088,1.00000000183101,0.608875009430974
19799.9999999924,19.1685287280936,1.00000000182419,0.605722310861915
19899.9999999909,19.1854582757943,1.00000000169165,0.608023856856165
19999.9999999895,19.2034259617503,1.00000000190563,0.610099724238975
20099.999999988,19.2230206156518,1.00000000166051,0.60731678722887
20199.9999999865,19.246147955136,1.00000000170247,0.60542738081277
20299.9999999851,19.2723869439896,1.0000000018035,0.597339025138939
20399.9999999836,19.3001396732252,1.00000000169527,0.601822035691539
20499.9999999822,19.3314327138558,1.00000000171359,0.603879990303839
20599.9999999807,19.3612185843311,1.00000000179157,0.606010489218054
20699.9999999793,19.3865463745331,1.00000000186653,0.608905131792445
20799.9999999778,19.4102231046069,1.00000000177573,0.611938852850617
20899.9999999764,19.4372931315614,1.00000000174793,0.60504895139876
20999.9999999749,19.4632160025207,1.00000000196582,0.615798352642294
21099.9999999734,19.4825089125937,1.00000000187282,0.609873265542541
21199.999999972,19.4976045828199,1.00000000189673,0.618603082243695
21299.9999999705,19.5126806423943,1.00000000179415,0.621969780950007
21399.9999999691,19.5303067374758,1.00000000173228,0.632963057105525
21499.9999999676,19.5482452414243,1.00000000181188,0.643808022799333
21599.9999999662,19.5635883908555,1.00000000184229,0.642271388436213
21699.9999999647,19.5746081033472,1.00000000183977,0.642009431557096
21799.9999999633,19.5825958186543,1.00000000186697,0.646417126555496
21899.9999999618,19.5888657725137,1.00000000183152,0.64494792171069
21999.9999999603,19.5961396099419,1.0000000018204,0.645420169862664
22099.9999999589,19.6041047547138,1.00000000192787,0.643512636102145
22199.9999999574,19.6123640172984,1.0000000017798,0.64349771808807
22299.999999956,19.6198203795506,1.00000000192672,0.636997055430956
22399.9999999545,19.622597619872,1.00000000189813,0.642071465807956
22499.9999999531,19.6241109371643,1.00000000188167,0.647824208360444
22599.9999999516,19.6259570572236,1.00000000183127,0.644606309478654
22699.9999999502,19.6249687012942,1.00000000205375,0.653517454502458
22799.9999999487,19.6211192535835,1.0000000018464,0.653415522058659
22899.9999999473,19.6201978155325,1.0000000018378,0.657097436049104
22999.9999999458,19.6219399633169,1.00000000171359,0.637878576866173
23099.9999999443,19.6225532669378,1.00000000193853,0.641885635240709
23199.9999999429,19.6177660335658,1.00000000195356,0.649038079709511
23299.9999999414,19.610056820884,1.00000000184494,0.649194412104208
23399.99999994,19.601527665628,1.00000000194536,0.646220481465664
23499.9999999385,19.5888087927607,1.00000000189659,0.649645200327447
23599.9999999371,19.5742231224278,1.00000000188908,0.663938067133402
23699.9999999356,19.5591798260932,1.0000000019241,0.656063890495936
23799.9999999342,19.5421773392241,1.0000000019208,0.658336699804996
23899.9999999327,19.5231944212043,1.00000000190406,0.662109526478001
23999.9999999312,19.50278507874,1.00000000177136,0.65977674421138
24099.9999999298,19.4813030325101,1.00000000187688,0.654790101293695
24199.9999999283,19.4595577973363,1.00000000183944,0.653512359891804
24299.9999999269,19.4383817078845,1.00000000195884,0.658327384291388
24399.9999999254,19.4164784085657,1.00000000190221,0.656222926847147
24499.999999924,19.3935960459037,1.00000000194114,0.665730775940366
24599.9999999225,19.3677706836196,1.00000000204219,0.665477671542948
24699.9999999211,19.3399157977709,1.00000000197592,0.669994306337739
24799.9999999196,19.3075162798087,1.00000000205152,0.680138394847939
24899.9999999181,19.2719613649079,1.00000000195354,0.67026804117497
24999.9999999167,19.2352524102917,1.00000000200817,0.665812952997772
25099.9999999152,19.1994400868427,1.00000000189404,0.657554357579602
25199.9999999138,19.1663334378467,1.00000000195219,0.645647375710683
25299.9999999123,19.137929311363,1.00000000186385,0.642562604758933
25399.9999999109,19.1148014477152,1.00000000183109,0.642257982959303
25499.9999999094,19.0974404241605,1.00000000193267,0.652576461074272
25599.999999908,19.0855778896407,1.0000000018808,0.657388216341614
25699.9999999065,19.0791631614575,1.00000000191169,0.652117052039962
25799.9999999051,19.0800228846026,1.00000000177749,0.647776329921428
25899.9999999036,19.0858092261684,1.0000000017954,0.643489795084216
25999.9999999021,19.097131763535,1.0000000019625,0.639187420388972
26099.9999999007,19.1116691972907,1.00000000206832,0.638981734071971
26199.9999998992,19.1294431537352,1.00000000200367,0.637939443264486
26299.9999998978,19.1508048690745,1.00000000200076,0.633308831223365
26399.9999998963,19.1741252322798,1.00000000196676,0.63400414815869
26499.9999998949,19.2000563416971,1.00000000201627,0.63367694255075
26599.9999998934,19.2275881111681,1.00000000200245,0.629264752168711
26699.999999892,19.2591120239669,1.00000000189801,0.624186362500337
26799.9999998905,19.2927040827302,1.00000000203995,0.62567964100187
26899.999999889,19.3269754436977,1.00000000200793,0.6222257475923
26999.9999998876,19.3666921999704,1.00000000188143,0.619796867347691
27099.9999998861,19.4106823864696,1.0000000019906,0.619174687907749
27199.9999998847,19.455763685918,1.00000000198171,0.619161530609445
27299.9999998832,19.5011541261147,1.00000000202423,0.62447143646385
27399.9999998818,19.5470207277577,1.00000000194461,0.624673753004813
27499.9999998803,19.5938312603396,1.00000000209284,0.631005184109954
27599.9999998789,19.6389434961781,1.00000000202052,0.629199384927219
27699.9999998774,19.6814826277415,1.00000000209865,0.630349408996098
27799.9999998759,19.7231765073942,1.00000000208674,0.627228734180434
27899.9999998745,19.7660797622621,1.00000000203989,0.620223937853379
27999.999999873,19.8085601736181,1.00000000209336,0.631902171145626
28099.9999998716,19.8479906042631,1.00000000210227,0.626720725259756
28199.9999998701,19.8857759932235,1.00000000218325,0.630960092055863
28299.9999998687,19.9211565631363,1.00000000212083,0.627056825037101
28399.9999998672,19.9565291302851,1.00000000211692,0.641107987952882
28499.9999998658,19.990574143348,1.00000000209125,0.646143389759902
28599.9999998643,20.0235327587723,1.000000002164,0.653619019077737
28699.9999998629,20.057272653164,1.00000000196451,0.650583509087776
28799.9999998614,20.0906682650013,1.00000000213495,0.648175479979469
28899.9999998599,20.1228103181611,1.0000000022208,0.655763044376388
28999.9999998585,20.1526411637212,1.000000002092,0.661507313369704
