Time,AGPnorm,Energy,Entropy
0,0,1,2.96316951602878e-18
99.9999999999986,0.00639472698650404,1.00000000000378,0.0190501084434538
199.999999999993,0.0169640015639323,0.999999999999948,0.0547236204411876
300,0.0343856686130191,1.00000000000372,0.108143344077134
400.000000000022,0.0524716269031167,1.00000000001176,0.181590837817577
500.000000000045,0.0677894040512181,1.0000000002328,0.289379242369022
600.000000000068,0.172552166796136,1.00000000098579,0.407598495149182
700.000000000091,0.569546854595548,1.00000000174869,0.492663944455213
800.000000000113,1.69597874752861,1.00000000214203,0.542389542764564
900.000000000136,3.62136971273355,1.00000000243544,0.567101556260921
1000.00000000016,6.23582349172371,1.00000000273794,0.576747213122061
1100.0000000001,9.2696031323215,1.00000000236404,0.577910492433878
1200,12.353162294308,1.00000000226833,0.571695040183797
1299.99999999991,15.2572220615934,1.00000000232079,0.566390008032029
1399.99999999982,17.7459844713416,1.00000000194422,0.559362787555017
1499.99999999973,19.7379896658769,1.00000000187149,0.548086566991103
1599.99999999964,21.1891467719048,1.0000000016627,0.53597517842481
1699.99999999955,22.1232468623704,1.0000000017248,0.549450656450193
1799.99999999946,22.6023839348116,1.00000000123535,0.504975660466625
1899.99999999937,22.7249163100636,1.00000000169455,0.564253985098845
1999.99999999928,22.5350314311038,1.00000000098541,0.466659509589978
2099.99999999919,22.1581769469873,1.00000000192402,0.581881352300181
2199.99999999909,21.6995415233531,1.00000000085147,0.435527441641055
2299.999999999,21.0585080098804,1.00000000168895,0.528081526673832
2399.99999999891,20.4993731894831,1.00000000195823,0.56141169975049
2499.99999999882,19.8951187988187,1.00000000069944,0.366126675816682
2599.99999999873,19.2168331196364,1.00000000167854,0.504960456345932
2699.99999999864,18.6124728577056,1.00000000211808,0.573832842821197
2799.99999999855,18.0643995149067,1.00000000122576,0.446441886126333
2899.99999999846,17.4962533100923,1.00000000087998,0.367093985011941
2999.99999999837,16.9318745886222,1.00000000168672,0.512772825758276
3099.99999999828,16.3958538666175,1.00000000198581,0.538864695359218
3199.99999999819,15.9130501966931,1.00000000164553,0.556453902718914
3299.99999999809,15.4631189588586,1.00000000080157,0.385214467402952
3399.999999998,15.0677217306237,1.00000000109441,0.38504135698718
3499.99999999791,14.6871759738892,1.00000000177589,0.511935971280984
3599.99999999782,14.3072608437128,1.00000000128816,0.521898792124499
3699.99999999773,13.939959013777,1.00000000178732,0.516648570869119
3799.99999999764,13.5740403068995,1.00000000202457,0.577911087449248
3899.99999999755,13.2385914352256,1.0000000011812,0.483252450504982
3999.99999999746,12.9794884592004,1.00000000069812,0.362031389125923
4099.99999999738,12.80921926818,1.00000000129347,0.408887520575494
4199.99999999775,12.6397518509439,1.00000000164125,0.507173718354808
4299.99999999811,12.443103652988,1.00000000177387,0.544019774513293
4399.99999999848,12.2310108063043,1.00000000144383,0.542261991328707
4499.99999999884,12.0285890653082,1.00000000134198,0.530572159263961
4599.9999999992,11.8146383392519,1.00000000163866,0.528865889987525
4699.99999999957,11.582963483676,1.0000000020518,0.56523768667506
4799.99999999993,11.3496534820781,1.0000000018271,0.573235918288788
4900.00000000029,11.150566151073,1.00000000095909,0.465613230171588
5000.00000000066,11.0517965810501,1.00000000079281,0.378878658026115
5100.00000000102,11.0632621181536,1.00000000109562,0.403561927597587
5200.00000000139,11.10172023393,1.00000000162082,0.478687982278553
5300.00000000175,11.0938658947354,1.00000000179004,0.540420626260947
5400.00000000211,11.0596094055451,1.00000000135823,0.551275676628883
5500.00000000248,11.0120342875326,1.00000000145144,0.560945211252283
5600.00000000284,10.9388073563637,1.00000000163604,0.567134818315692
5700.00000000321,10.8444494281008,1.00000000154255,0.545180593832633
5800.00000000357,10.7380412649009,1.00000000160274,0.571812518768824
5900.00000000393,10.6296836803778,1.00000000133231,0.56416987597416
6000.0000000043,10.5252955745767,1.00000000133743,0.574534564905537
6100.00000000466,10.4066494469581,1.00000000161998,0.580331266531561
6200.00000000502,10.2723173490224,1.00000000187602,0.583159532437476
6300.00000000539,10.1248591608374,1.0000000020718,0.59390444367557
6400.00000000575,9.9740247947621,1.00000000178349,0.584316402437544
6500.00000000612,9.83975191478673,1.00000000111964,0.510724487765574
6600.00000000648,9.77222894699792,1.00000000073361,0.429421077689489
6700.00000000684,9.82180344811817,1.00000000083762,0.396818002078275
6800.00000000721,9.97198579178943,1.00000000126411,0.425985898377295
6900.00000000757,10.1519674379225,1.0000000015723,0.469604798591746
7000.00000000793,10.3027282676551,1.00000000167086,0.512035427397903
7100.0000000083,10.4206354374512,1.00000000167923,0.549049017325171
7200.00000000866,10.5035495807932,1.00000000161217,0.565855168362998
7300.00000000903,10.5621424731317,1.00000000153408,0.572819289507008
7400.00000000939,10.5945842501742,1.00000000163439,0.593252616683724
7500.00000000975,10.590944100378,1.00000000168122,0.59776015920704
7600.00000001012,10.563847931678,1.00000000150562,0.58529862964299
7700.00000001048,10.5312709923226,1.00000000160759,0.569194431516554
7800.00000001084,10.4951211560176,1.00000000154281,0.565648709440043
7900.00000001121,10.4540418799054,1.00000000160622,0.548564138007147
8000.00000001157,10.4103527594394,1.00000000154825,0.555468926613035
8100.00000001194,10.3625519925935,1.00000000165178,0.571940354783941
8200.0000000123,10.3173278393703,1.00000000149962,0.568097247418014
8300.00000001266,10.2720920166824,1.00000000151353,0.571671643186289
8400.00000001303,10.2288985185433,1.00000000150834,0.576842808623432
8500.00000001339,10.1801216847324,1.00000000156878,0.573499085291154
8600.00000001376,10.1227231930803,1.00000000151996,0.565586084931653
8700.00000001412,10.0549122183007,1.00000000172921,0.581658856909241
8800.00000001448,9.97762362140896,1.00000000160559,0.606079230145906
8900.00000001485,9.89729343482392,1.00000000138161,0.598161172488597
9000.00000001521,9.81876837225193,1.00000000143757,0.602842787349987
9100.00000001557,9.73582424625994,1.00000000159267,0.601150771776084
9200.00000001594,9.64775208300637,1.00000000179824,0.598078616707399
9300.0000000163,9.55809806366721,1.0000000019644,0.604455567956228
9400.00000001667,9.4704713423288,1.00000000206379,0.591237562015509
9500.00000001703,9.38548926224833,1.00000000209751,0.582635007721948
9600.00000001739,9.29676447289399,1.00000000175548,0.579741034011485
9700.00000001776,9.2034120813102,1.00000000134468,0.542251710647129
9800.00000001812,9.12358713853688,1.00000000100799,0.486144648966741
9900.00000001848,9.09646582508996,1.00000000088964,0.439761127243678
10000.0000000188,9.16095698935176,1.00000000077647,0.407527316067421
10100.0000000192,9.33424399264712,1.00000000116511,0.412925170381146
10200.0000000196,9.59164083557579,1.00000000114414,0.43309300054434
10300.0000000199,9.88412409268272,1.00000000183764,0.45928647607277
10400.0000000203,10.1735996900927,1.0000000015872,0.491828352018189
10500.0000000207,10.4371920293741,1.00000000188438,0.521554710361295
10600.000000021,10.6686189695545,1.0000000016786,0.534030656365019
10700.0000000214,10.873652095811,1.00000000180915,0.559272006031982
10800.0000000218,11.0517913739447,1.00000000155489,0.576125759182769
10900.0000000221,11.2047498731705,1.00000000184495,0.591921037028498
11000.0000000225,11.3247497354131,1.00000000175522,0.596978769421286
11100.0000000229,11.423512301827,1.00000000168953,0.612193125907946
11200.0000000232,11.5012050295338,1.00000000175534,0.624696653254288
11300.0000000236,11.5557013220124,1.0000000017466,0.62461209158037
11400.0000000239,11.5845963056038,1.00000000180108,0.629719399435246
11500.0000000243,11.5976990578684,1.00000000165824,0.62464785491472
11600.0000000247,11.6005960004465,1.00000000176537,0.624822054118355
11700.000000025,11.5962065808271,1.00000000165622,0.613512837146004
11800.0000000254,11.5851151345356,1.00000000170752,0.621943011527602
11900.0000000258,11.5617092798244,1.00000000177839,0.615578995424358
12000.0000000261,11.5374917954366,1.00000000154467,0.604620662854545
12100.0000000265,11.5064067907821,1.00000000176132,0.619708028247472
12200.0000000269,11.4670119733959,1.00000000161732,0.614467292163449
12300.0000000272,11.4232501967911,1.00000000168323,0.62561293763903
12400.0000000276,11.3735137877098,1.00000000174253,0.633951833882749
12500.0000000279,11.3169990536285,1.00000000171633,0.641261617634659
12600.0000000283,11.2577742576528,1.00000000163715,0.641205511178851
12700.0000000287,11.2033305629114,1.00000000149807,0.621660932839207
12800.000000029,11.1570890175847,1.00000000161445,0.60872036675995
12900.0000000294,11.1178700130071,1.00000000168571,0.603197515269911
13000.0000000298,11.082394695713,1.00000000173924,0.603816948420188
13100.0000000301,11.0496853143366,1.00000000162149,0.606493394478978
13200.0000000305,11.0198417237714,1.00000000170783,0.601682961762974
13300.0000000309,10.9907917202935,1.00000000173552,0.615032623143517
13400.0000000312,10.9627232464559,1.0000000016002,0.614748917362401
13500.0000000316,10.9362222282603,1.00000000174037,0.60855293168301
13600.0000000319,10.9079981154872,1.0000000017344,0.604772024942046
13700.0000000323,10.8816473288542,1.00000000155389,0.607339700045372
13800.0000000327,10.8584301436137,1.00000000165068,0.597499451279063
13900.000000033,10.8370187559187,1.00000000167924,0.584331529539486
14000.0000000334,10.8130926815762,1.00000000174252,0.58808225855791
14100.0000000338,10.7909992300068,1.00000000166023,0.582686590044417
14200.0000000341,10.7698157672536,1.0000000018171,0.609739362169815
14300.0000000345,10.7424564266726,1.00000000181427,0.631296429893783
14400.0000000349,10.7139568450353,1.00000000185168,0.616989838940945
14500.0000000352,10.6866374102768,1.00000000182554,0.60496798395172
14600.0000000356,10.657114912232,1.00000000182556,0.613231081592172
14700.0000000359,10.6305065364528,1.00000000163678,0.614242204209109
14800.0000000363,10.6065565105939,1.00000000184039,0.621200572117435
14900.0000000367,10.5793916546686,1.00000000193502,0.634113303780977
15000.000000037,10.5495591470591,1.00000000170308,0.626980850195415
15100.0000000374,10.5248168860467,1.00000000149025,0.627487049103303
15200.0000000378,10.4984459696727,1.0000000018598,0.638098227676497
15300.0000000381,10.465786272047,1.00000000188296,0.624257926203083
15400.0000000385,10.4296089167204,1.00000000184082,0.617216000082748
15500.0000000389,10.3924685871201,1.00000000206282,0.62423953831511
15600.0000000392,10.3592692084492,1.0000000016014,0.636565140149134
15700.0000000396,10.3291723955423,1.00000000165701,0.645752414423001
15800.0000000399,10.2972939930593,1.00000000177143,0.637655475969931
15900.0000000403,10.2609922658988,1.00000000193852,0.642669864505207
16000.0000000407,10.2245218327547,1.00000000166315,0.628766356650118
16100.000000041,10.1906187487169,1.00000000184551,0.642441510232921
16200.0000000414,10.150840961481,1.00000000175379,0.639495262684728
16300.0000000418,10.1112506075483,1.00000000169427,0.630412186104623
16400.0000000418,10.0738919931127,1.00000000178736,0.628754540768638
16500.0000000404,10.0364636319634,1.00000000187855,0.61380408507184
16600.0000000389,9.99836225982724,1.00000000175982,0.641821666552825
16700.0000000375,9.95732248978414,1.0000000017618,0.644263085936497
16800.000000036,9.914400443196,1.00000000178603,0.651529835752505
16900.0000000346,9.86919915708443,1.00000000177526,0.635662655934472
17000.0000000331,9.82228472613084,1.00000000181722,0.642989378218128
17100.0000000317,9.77279234894077,1.00000000191437,0.634842901661815
17200.0000000302,9.72346170391104,1.00000000163603,0.63638312195723
17300.0000000287,9.67422309556886,1.00000000182221,0.649668132585387
17400.0000000273,9.62165037152168,1.00000000198898,0.658950469817864
17500.0000000258,9.5678500892478,1.000000001964,0.655025022790417
17600.0000000244,9.51438171896984,1.00000000182434,0.626679635967903
17700.0000000229,9.46126048326481,1.00000000168261,0.64682274933472
17800.0000000215,9.40850607800156,1.00000000180048,0.647101617320838
17900.00000002,9.35658275763512,1.00000000166473,0.626637459280037
18000.0000000186,9.30549882582197,1.00000000166197,0.634075321432084
18100.0000000171,9.25621971336447,1.00000000173533,0.635259455006295
18200.0000000156,9.2096175296127,1.00000000188646,0.638107373463916
18300.0000000142,9.16808872030221,1.00000000195496,0.643636588745371
18400.0000000127,9.1344067667907,1.00000000194765,0.655365918545918
18500.0000000113,9.10909295521169,1.00000000213991,0.659861148205463
18600.0000000098,9.09967904306498,1.00000000206053,0.659476119584901
18700.0000000084,9.09883973545352,1.00000000217837,0.661456876536376
18800.0000000069,9.12070452444437,1.00000000207197,0.658424951360805
18900.0000000055,9.14524516373477,1.00000000223417,0.653544246843865
19000.000000004,9.18990563415105,1.00000000194414,0.63705619342613
19100.0000000026,9.22384118848472,1.00000000227686,0.624476107190171
19200.0000000011,9.25944657917742,1.0000000022253,0.610156344444634
19299.9999999996,9.26857783103394,1.00000000191117,0.598177021916155
19399.9999999982,9.25784831311223,1.00000000160763,0.580166993542108
19499.9999999967,9.22498883732543,1.00000000143701,0.550275059121445
19599.9999999953,9.18128465221293,1.0000000014424,0.51890031384538
19699.9999999938,9.14712487305151,1.00000000124241,0.49524204772135
19799.9999999924,9.14303784358213,1.00000000110962,0.468504032291005
19899.9999999909,9.19578128175894,1.00000000111208,0.449001463229398
19999.9999999895,9.32264945684902,1.0000000011898,0.436704969300205
20099.999999988,9.54769986148322,1.00000000126949,0.438614643554317
20199.9999999865,9.85453893771346,1.00000000133244,0.442642018996157
20299.9999999851,10.266211279536,1.00000000143273,0.454222160564581
20399.9999999836,10.7149750851068,1.00000000173114,0.46464683592415
20499.9999999822,11.2329706960608,1.0000000019234,0.476292996619667
20599.9999999807,11.7398580345085,1.00000000183575,0.490774525758671
20699.9999999793,12.2730753323164,1.00000000217954,0.496525234848793
20799.9999999778,12.7792140479322,1.00000000200322,0.515032796848924
20899.9999999764,13.2768632809716,1.00000000220467,0.518036759729304
20999.9999999749,13.7514074964692,1.00000000218599,0.53681771452049
21099.9999999734,14.1940210933921,1.00000000212286,0.54731195086639
21199.999999972,14.6213950445959,1.0000000020141,0.55504318857196
21299.9999999705,15.0202939507385,1.00000000200498,0.562432502655406
21399.9999999691,15.4119379565619,1.00000000195926,0.571452963419229
21499.9999999676,15.7778827407272,1.00000000187584,0.582753207752717
21599.9999999662,16.1305962589592,1.00000000188051,0.584633331735745
21699.9999999647,16.466249172567,1.00000000202799,0.595743042745398
21799.9999999633,16.761925699318,1.00000000211425,0.612247213463627
21899.9999999618,17.0464074644845,1.0000000018384,0.614145215113761
21999.9999999603,17.3052567535943,1.00000000198329,0.627906882607781
22099.9999999589,17.5450784449191,1.00000000198463,0.630244953663061
22199.9999999574,17.7526217434987,1.00000000194466,0.631011083067468
22299.999999956,17.9371307899031,1.0000000020789,0.641557636135409
22399.9999999545,18.1032421466118,1.00000000197863,0.64680775608988
22499.9999999531,18.2533854191129,1.00000000187251,0.642939577549524
22599.9999999516,18.3954153685444,1.00000000194293,0.645110558456305
22699.9999999502,18.5140149656168,1.00000000193754,0.642455313382836
22799.9999999487,18.6193012308193,1.00000000218907,0.644321223716604
22899.9999999473,18.7043859357035,1.00000000200979,0.647432890330601
22999.9999999458,18.7814032245332,1.00000000208364,0.655801135718777
23099.9999999443,18.8480113674279,1.00000000186281,0.652172192916702
23199.9999999429,18.9044542891527,1.00000000172624,0.657391403526718
23299.9999999414,18.9542137004966,1.00000000204037,0.66332610594967
23399.99999994,18.9953614824863,1.00000000188667,0.649484672390308
23499.9999999385,19.0354440236004,1.00000000189227,0.65510289153489
23599.9999999371,19.0600863513825,1.00000000204805,0.645253931476993
23699.9999999356,19.0726844270616,1.00000000220266,0.649335144825699
23799.9999999342,19.0746848139067,1.00000000198618,0.654054901788431
23899.9999999327,19.0797493280628,1.00000000177786,0.643009956625078
23999.9999999312,19.0902781934825,1.00000000188318,0.648247542904018
24099.9999999298,19.0996335180772,1.0000000019548,0.649672368741767
24199.9999999283,19.1048874260105,1.00000000197331,0.660102249739665
24299.9999999269,19.0984669369628,1.00000000210554,0.65649442404531
24399.9999999254,19.0837390821742,1.00000000211041,0.648127710374986
24499.999999924,19.0631388744103,1.00000000195558,0.639436749511454
24599.9999999225,19.0414627704685,1.00000000186217,0.645955055505497
24699.9999999211,19.0243273907141,1.00000000180817,0.631101264395748
24799.9999999196,19.0084048538286,1.00000000201017,0.632713587270009
24899.9999999181,18.9860781371779,1.00000000222416,0.64130077839478
24999.9999999167,18.9547366822079,1.00000000187693,0.631537569236184
25099.9999999152,18.9235178570626,1.00000000180566,0.62030050404738
25199.9999999138,18.8988525853169,1.00000000173744,0.621867078277725
25299.9999999123,18.8806768696435,1.00000000208704,0.64784160689059
25399.9999999109,18.859093016836,1.00000000208708,0.658986699360046
25499.9999999094,18.8292492461238,1.00000000229136,0.652844283330836
25599.999999908,18.7960911281282,1.00000000191361,0.656833546753637
25699.9999999065,18.7599598309265,1.00000000198843,0.647728524528017
25799.9999999051,18.7254308209004,1.0000000018681,0.641443096801233
25899.9999999036,18.690527054292,1.00000000217359,0.646515158602231
25999.9999999021,18.6582374360232,1.00000000205496,0.636347347633399
26099.9999999007,18.6332570828428,1.00000000185147,0.624507873263501
26199.9999998992,18.6106536983288,1.0000000020782,0.64524681822453
26299.9999998978,18.5816413236966,1.00000000233866,0.651879433587908
26399.9999998963,18.5476097094987,1.00000000212345,0.627866045069888
26499.9999998949,18.5137046813076,1.00000000193794,0.629307588142954
26599.9999998934,18.4870293015418,1.00000000178937,0.633131624504153
26699.999999892,18.4606854742852,1.00000000230076,0.661793213359534
26799.9999998905,18.4277052225124,1.00000000213746,0.655731279945142
26899.999999889,18.3920330051967,1.00000000207107,0.65354128460025
26999.9999998876,18.3607197923159,1.00000000206071,0.645160709119777
27099.9999998861,18.3343099640789,1.00000000192837,0.63943124115877
27199.9999998847,18.309964777385,1.00000000216188,0.643730549666057
27299.9999998832,18.2816712980383,1.00000000208079,0.652102275890023
27399.9999998818,18.2462151451208,1.00000000206231,0.64129480714819
27499.9999998803,18.2080227600565,1.0000000021224,0.635016981091801
27599.9999998789,18.1676232933243,1.00000000195212,0.63626432739099
27699.9999998774,18.1279147410298,1.00000000203658,0.629541516036482
27799.9999998759,18.0890237592348,1.00000000205558,0.64100195706471
27899.9999998745,18.0510455677683,1.00000000199332,0.633340750446917
27999.999999873,18.012709797911,1.00000000215885,0.641618264596287
28099.9999998716,17.9739749941083,1.00000000214878,0.641189660197072
28199.9999998701,17.9353462204848,1.00000000205913,0.629349660612553
28299.9999998687,17.8978785363247,1.00000000213541,0.615516967473839
28399.9999998672,17.8617759066613,1.00000000251932,0.629738608404337
28499.9999998658,17.8228987900498,1.00000000226394,0.651019591156119
28599.9999998643,17.7820856864795,1.00000000210061,0.638790268818902
28699.9999998629,17.7422342839723,1.00000000193927,0.623879545677046
28799.9999998614,17.7073004728384,1.00000000180173,0.623286207272463
28899.9999998599,17.6757427558115,1.00000000202321,0.651152821435148
28999.9999998585,17.6436906512009,1.00000000218632,0.649168279631088
29099.999999857,17.6136019723084,1.00000000210215,0.642548002682879
