Time,AGPnorm,Energy,Entropy
0,0,1,-1.81527501882848e-18
99.9999999999986,0.00821607827751623,0.999999999997818,0.023423837204936
199.999999999993,0.021991440715813,0.999999999999441,0.066820098624626
300,0.0435294192807559,0.999999999999764,0.13425505791151
400.000000000022,0.0654215155957012,1.00000000007709,0.232856033744505
500.000000000045,0.0943098854523776,1.00000000075398,0.37030014200246
600.000000000068,0.388448751740496,1.0000000020653,0.478694374271028
700.000000000091,1.26657448878072,1.00000000270997,0.542545226066066
800.000000000113,2.99091126812476,1.00000000306105,0.572811378473905
900.000000000136,5.37113559000318,1.00000000299337,0.584675610055952
1000.00000000016,8.08918543267785,1.00000000311793,0.584193351171516
1100.0000000001,10.7963530769336,1.00000000292863,0.579540227492559
1200,13.2118155679238,1.000000002567,0.568531787869082
1299.99999999991,15.1695894462176,1.00000000259072,0.562138346746643
1399.99999999982,16.6060384908895,1.00000000218447,0.550673091986855
1499.99999999973,17.5205126026622,1.00000000198131,0.554097685207532
1599.99999999964,17.9528988161969,1.00000000206508,0.555828023828938
1699.99999999955,18.0329577762664,1.0000000015551,0.505793488303062
1799.99999999946,17.8570238068467,1.00000000225361,0.578019637850143
1899.99999999937,17.4723146680189,1.00000000115589,0.459617708396275
1999.99999999928,17.0153924105292,1.00000000250934,0.581588918994089
2099.99999999919,16.5006454467898,1.00000000099966,0.40466864509327
2199.99999999909,15.9131787593202,1.00000000265909,0.564152143549131
2299.999999999,15.4061591236376,1.00000000183642,0.499139911967839
2399.99999999891,14.8532670573136,1.00000000123536,0.404301993064658
2499.99999999882,14.2984282211912,1.00000000241504,0.550346170214761
2599.99999999873,13.8110542971311,1.00000000202957,0.53845559656407
2699.99999999864,13.3471409265835,1.00000000106326,0.382625172916597
2799.99999999855,12.8981842442436,1.00000000178564,0.481671594874745
2899.99999999846,12.4609872322393,1.00000000184674,0.530162569251087
2999.99999999837,12.0518263882361,1.00000000238523,0.5662650038078
3099.99999999828,11.6858593075341,1.00000000121864,0.435340879774375
3199.99999999819,11.3874965599942,1.00000000150687,0.408575137336287
3299.99999999809,11.0939232014744,1.0000000020721,0.522978512768818
3399.999999998,10.8052826138835,1.00000000182708,0.521151795166219
3499.99999999791,10.524181698365,1.00000000215878,0.530119185154131
3599.99999999782,10.2368907071401,1.00000000249796,0.567190217125773
3699.99999999773,9.98336911570365,1.00000000136269,0.469516729188433
3799.99999999764,9.81895783962461,1.00000000125052,0.406370291018384
3899.99999999755,9.70504730276641,1.00000000200625,0.477858545527023
3999.99999999746,9.57209848975138,1.00000000203142,0.52599371122971
4099.99999999738,9.42929138515394,1.00000000211862,0.550902176548699
4199.99999999775,9.27593171228828,1.00000000184441,0.556673144656268
4299.99999999811,9.12006865710389,1.00000000167424,0.547829898789582
4399.99999999848,8.9549703162765,1.00000000231418,0.543419599290624
4499.99999999884,8.77340996394405,1.00000000249026,0.575588570118773
4599.9999999992,8.6086620181895,1.00000000156178,0.514318771149179
4699.99999999957,8.52518542434785,1.00000000105986,0.422510888560949
4799.99999999993,8.54096279209836,1.00000000162018,0.433813828414058
4900.00000000029,8.56993497823081,1.00000000184204,0.488675935709357
5000.00000000066,8.57190761069359,1.00000000220619,0.540681896822023
5100.00000000102,8.55076841932746,1.0000000019011,0.556846010507055
5200.00000000139,8.51516727091148,1.00000000192132,0.576847759187982
5300.00000000175,8.46856709545394,1.0000000019991,0.568082863269473
5400.00000000211,8.40902368794364,1.0000000018416,0.562400167543189
5500.00000000248,8.33105282453006,1.00000000213427,0.580287508325435
5600.00000000284,8.24590787053189,1.00000000177775,0.580085685940841
5700.00000000321,8.1621393449615,1.00000000190257,0.588332404111607
5800.00000000357,8.06881087498187,1.0000000021803,0.582526101026491
5900.00000000393,7.96293466086813,1.00000000243868,0.585008163824469
6000.0000000043,7.84796262259002,1.00000000246066,0.583201097114188
6100.00000000466,7.73451491925823,1.00000000181996,0.554176591195382
6200.00000000502,7.66600346572187,1.00000000123313,0.479954681880802
6300.00000000539,7.69200007636866,1.00000000123909,0.440485944523734
6400.00000000575,7.80688443046708,1.00000000164992,0.458120707127439
6500.00000000612,7.93798946091191,1.00000000215027,0.499417809755179
6600.00000000648,8.0518696826814,1.00000000201816,0.532314794210072
6700.00000000684,8.14530525850582,1.00000000204648,0.556427846949446
6800.00000000721,8.21849831858475,1.00000000202856,0.58384555924579
6900.00000000757,8.26333000458711,1.00000000218515,0.59898433255219
7000.00000000793,8.28781204457002,1.00000000202651,0.611655097003373
7100.0000000083,8.29041954891399,1.00000000215141,0.621785851736754
7200.00000000866,8.27378607540664,1.00000000210241,0.617434832865611
7300.00000000903,8.25113053248304,1.00000000198395,0.60632855487802
7400.00000000939,8.22879394978372,1.00000000198691,0.599317623277778
7500.00000000975,8.20823320240835,1.00000000203628,0.577969910660607
7600.00000001012,8.17568898175944,1.00000000226741,0.585956772270585
7700.00000001048,8.13866824729336,1.00000000207294,0.598204269972971
7800.00000001084,8.1085128876064,1.0000000019206,0.605542349292657
7900.00000001121,8.07254974994566,1.0000000020938,0.618152656860318
8000.00000001157,8.03620653608519,1.00000000208209,0.607684552915218
8100.00000001194,7.99405031932564,1.00000000208381,0.602546178774961
8200.0000000123,7.94829853596457,1.00000000216147,0.596285473601703
8300.00000001266,7.89112043002472,1.00000000230048,0.625027211366691
8400.00000001303,7.82687436109623,1.00000000215347,0.6317642871188
8500.00000001339,7.76095929274925,1.00000000192881,0.625260195499385
8600.00000001376,7.69515907685721,1.00000000215618,0.63184843001525
8700.00000001412,7.62729772549201,1.00000000234655,0.629732151175407
8800.00000001448,7.55768688695994,1.00000000244619,0.640118430885431
8900.00000001485,7.48904718413176,1.00000000265055,0.636639105895782
9000.00000001521,7.41874277079032,1.00000000262564,0.617834303748896
9100.00000001557,7.34214777187057,1.00000000240684,0.596670336552161
9200.00000001594,7.26898689214573,1.0000000016585,0.549260985781992
9300.0000000163,7.22901522739134,1.00000000153408,0.503929222302728
9400.00000001667,7.26009719347716,1.00000000136924,0.467009404803125
9500.00000001703,7.3790290630423,1.0000000014169,0.459953538809772
9600.00000001739,7.57028400639049,1.00000000212033,0.474493433915269
9700.00000001776,7.78808557737413,1.00000000208221,0.495609550356693
9800.00000001812,7.9991481459782,1.00000000239662,0.51578998415269
9900.00000001848,8.19832685783988,1.00000000220333,0.539106548784816
10000.0000000188,8.37514213575913,1.00000000237563,0.560854238169671
10100.0000000192,8.5350621634318,1.0000000021796,0.566089872275012
10200.0000000196,8.67587555570396,1.00000000230899,0.591243106920642
10300.0000000199,8.79687415188766,1.00000000226715,0.615301417989173
10400.0000000203,8.89765251806519,1.00000000244711,0.612278999652335
10500.0000000207,8.97786034544034,1.00000000230849,0.615273735307151
10600.000000021,9.03829510633793,1.00000000234881,0.635635957714253
10700.0000000214,9.07919366786047,1.00000000227767,0.64286970828926
10800.0000000218,9.1062057175927,1.00000000224191,0.643499439175673
10900.0000000221,9.12616555070253,1.00000000213574,0.635791465099184
11000.0000000225,9.14020172110494,1.00000000246105,0.641830854381921
11100.0000000229,9.14331624336588,1.00000000209503,0.641260001499464
11200.0000000232,9.14332856220964,1.00000000221596,0.63854852892487
11300.0000000236,9.13201112879008,1.00000000233885,0.635083516372544
11400.0000000239,9.116311974239,1.00000000236709,0.629157666619469
11500.0000000243,9.09531653511477,1.00000000239185,0.644421919932774
11600.0000000247,9.06700048600519,1.00000000236583,0.63343311308924
11700.000000025,9.03595767821609,1.00000000226336,0.650930845783105
11800.0000000254,9.00042958298367,1.00000000234588,0.654540760330005
11900.0000000258,8.96228015706036,1.00000000246018,0.656800876999658
12000.0000000261,8.92342568280932,1.00000000228884,0.637677273033408
12100.0000000265,8.88918783831848,1.00000000217074,0.625615924299736
12200.0000000269,8.86337372892614,1.00000000208868,0.602429109897747
12300.0000000272,8.84445786972811,1.00000000234327,0.605342342844996
12400.0000000276,8.83337552350248,1.00000000223283,0.614252898592728
12500.0000000279,8.82619533514454,1.0000000022819,0.617638911349019
12600.0000000283,8.81739217633037,1.00000000241087,0.628663438644513
12700.0000000287,8.80197535060188,1.00000000249203,0.629663426188942
12800.000000029,8.78787120355145,1.00000000207251,0.619980054417554
12900.0000000294,8.77323145411281,1.00000000239206,0.61033770875356
13000.0000000298,8.75860507970984,1.0000000022943,0.623910368558167
13100.0000000301,8.74693911004611,1.00000000234636,0.620640498995541
13200.0000000305,8.7354819313726,1.00000000224009,0.615382285126998
13300.0000000309,8.71979881081383,1.00000000259913,0.627696621191633
13400.0000000312,8.70281724939961,1.00000000219989,0.6198422974655
13500.0000000316,8.68905802039575,1.00000000231842,0.625660719266662
13600.0000000319,8.67503232623987,1.00000000238982,0.642002844790281
13700.0000000323,8.66520434873473,1.00000000222105,0.637533730058835
13800.0000000327,8.65657866177202,1.0000000025643,0.627694644311558
13900.000000033,8.64412039921572,1.00000000236853,0.625269401641355
14000.0000000334,8.63209545000891,1.00000000242262,0.635115447359244
14100.0000000338,8.62121952470605,1.00000000226401,0.65147268052905
14200.0000000341,8.60508229558297,1.00000000252422,0.662816215972292
14300.0000000345,8.58834998507084,1.00000000224207,0.655453391040773
14400.0000000349,8.57335614594245,1.00000000250897,0.670002822923192
14500.0000000352,8.55187310449338,1.00000000240202,0.664673065506761
14600.0000000356,8.53002783960243,1.00000000230856,0.645763962135711
14700.0000000359,8.50571163172813,1.00000000238074,0.654295779079131
14800.0000000363,8.48344836953213,1.00000000228068,0.662559726858061
14900.0000000367,8.46254676197446,1.00000000238551,0.662822687392995
15000.000000037,8.44094246166228,1.00000000244454,0.656035422049454
15100.0000000374,8.41628922395149,1.0000000024781,0.648917461707629
15200.0000000378,8.38883170611633,1.000000002348,0.653271298723309
15300.0000000381,8.36288174581408,1.00000000228347,0.649842284098948
15400.0000000385,8.33304639194475,1.00000000261432,0.650854632931816
15500.0000000389,8.30510974215882,1.00000000235499,0.644107026935373
15600.0000000392,8.28044081614797,1.00000000233998,0.653308693529311
15700.0000000396,8.25164272952988,1.00000000252443,0.654328733643334
15800.0000000399,8.2204441199707,1.00000000233289,0.66140578067876
15900.0000000403,8.1895155924059,1.00000000231614,0.654548060248271
16000.0000000407,8.15701974629842,1.00000000261967,0.659200438683992
16100.000000041,8.12306266509526,1.00000000250801,0.650162247666165
16200.0000000414,8.08668285635709,1.00000000274574,0.660105377810431
16300.0000000418,8.04729660002925,1.00000000252893,0.667209812708943
16400.0000000418,8.00918721390438,1.00000000231397,0.653433098224604
16500.0000000404,7.96787651723977,1.00000000259037,0.665184319958595
16600.0000000389,7.92315830117828,1.00000000242701,0.644778987070792
16700.0000000375,7.87801196695848,1.00000000252464,0.660985407797534
16800.000000036,7.8326486001878,1.0000000024182,0.663574600073748
16900.0000000346,7.7874045360656,1.00000000253361,0.679840618199408
17000.0000000331,7.74264071480455,1.0000000023113,0.669312857821812
17100.0000000317,7.69884683590032,1.00000000243318,0.674734842009769
17200.0000000302,7.65657044892803,1.00000000229752,0.667686779763336
17300.0000000287,7.61769502877045,1.0000000025111,0.667648600802205
17400.0000000273,7.58307467942474,1.00000000265012,0.663687799630502
17500.0000000258,7.55419560926424,1.00000000283569,0.672864979032575
17600.0000000244,7.53461221519673,1.00000000271854,0.67553625227011
17700.0000000229,7.51983197984461,1.00000000280453,0.682290813358769
17800.0000000215,7.51796608928199,1.00000000300585,0.679577687801395
17900.00000002,7.51442938004375,1.00000000294802,0.675109378079377
18000.0000000186,7.51983510984297,1.00000000284927,0.662600779416979
18100.0000000171,7.51306805811248,1.00000000306473,0.650544373613669
18200.0000000156,7.50232645626648,1.00000000272591,0.628186318821303
18300.0000000142,7.47567993025589,1.00000000257902,0.611934507708118
18400.0000000127,7.44017713559969,1.0000000020583,0.596735242949659
18500.0000000113,7.40637162581085,1.00000000196457,0.569250472841807
18600.0000000098,7.38806158115625,1.00000000180247,0.54156015972072
18700.0000000084,7.40924237346176,1.00000000201613,0.519463639911379
18800.0000000069,7.48457870848027,1.0000000017732,0.501359152583569
18900.0000000055,7.63560986079996,1.00000000182586,0.495281526116223
19000.000000004,7.85246836135535,1.00000000196474,0.494867816979754
19100.0000000026,8.1516140478714,1.00000000222025,0.500376815382243
19200.0000000011,8.48378056988785,1.00000000244079,0.499918749311989
19299.9999999996,8.86929882922996,1.00000000268363,0.513400904357341
19399.9999999982,9.24254203833743,1.00000000263934,0.518383244765032
19499.9999999967,9.63945059213118,1.00000000257742,0.527726585517924
19599.9999999953,10.013345715291,1.00000000282688,0.541157642086724
19699.9999999938,10.3865291598043,1.00000000287406,0.544772617972908
19799.9999999924,10.7446272016079,1.00000000274208,0.558603648737527
19899.9999999909,11.0824810127845,1.00000000286272,0.556964956251032
19999.9999999895,11.4185169607579,1.00000000248295,0.56352360428446
20099.999999988,11.7346237084192,1.00000000275268,0.577017557131455
20199.9999999865,12.0450902650988,1.00000000279065,0.591239576072816
20299.9999999851,12.3460125701689,1.00000000268293,0.59947743636946
20399.9999999836,12.6365845954575,1.0000000030507,0.602445138318479
20499.9999999822,12.912641343415,1.00000000265326,0.608844605808303
20599.9999999807,13.1752751495671,1.00000000298041,0.625119625565822
20699.9999999793,13.4300110335755,1.00000000307556,0.639979312998028
20799.9999999778,13.6581721356445,1.00000000273591,0.643306720413121
20899.9999999764,13.8832557897647,1.00000000308843,0.661993892981739
20999.9999999749,14.0853961978068,1.00000000280479,0.658433850771685
21099.9999999734,14.2780042651881,1.00000000309403,0.650363698357019
21199.999999972,14.4553870201813,1.00000000309218,0.675065958271026
21299.9999999705,14.6191149427648,1.00000000299697,0.664883188564456
21399.9999999691,14.7806120229744,1.00000000299717,0.667684683639571
21499.9999999676,14.9198565125013,1.00000000299322,0.667334488246319
21599.9999999662,15.0522170587958,1.00000000303362,0.67599028081581
21699.9999999647,15.1689435699009,1.00000000308014,0.684619592030541
21799.9999999633,15.2832109031522,1.00000000274913,0.678315202352324
21899.9999999618,15.3958557353851,1.00000000308586,0.684481925163459
21999.9999999603,15.5022307545736,1.00000000297834,0.683176413701938
22099.9999999589,15.5907359759019,1.00000000306487,0.689621119461195
22199.9999999574,15.6693568103188,1.00000000279093,0.684991797730288
22299.999999956,15.7514198436832,1.00000000275107,0.678876842866543
22399.9999999545,15.8320784271061,1.0000000029697,0.680748939167419
22499.9999999531,15.9108001963136,1.00000000281743,0.681071603208688
22599.9999999516,15.9796094070253,1.00000000298388,0.691314949972324
22699.9999999502,16.04303996272,1.00000000300591,0.688635913849309
22799.9999999487,16.1141099003693,1.00000000290989,0.685598125460647
22899.9999999473,16.1865911448836,1.00000000308296,0.680801709199552
22999.9999999458,16.2633936814546,1.00000000294937,0.674215958127372
23099.9999999443,16.3334323323533,1.00000000315385,0.679334491179362
23199.9999999429,16.3920113393038,1.00000000313492,0.680506915308631
23299.9999999414,16.4408921257902,1.00000000290724,0.678775350076549
23399.99999994,16.4910679131708,1.00000000311615,0.68207361971571
23499.9999999385,16.5516672816422,1.00000000291138,0.670266838374927
23599.9999999371,16.6088962733606,1.00000000309861,0.679891503288398
23699.9999999356,16.6631494977234,1.00000000333078,0.679481271527288
23799.9999999342,16.7116032639274,1.0000000032154,0.677939541362767
23899.9999999327,16.7616344262845,1.00000000296399,0.67750617211166
23999.9999999312,16.8161177133462,1.00000000312858,0.674621029209714
24099.9999999298,16.8747804899479,1.0000000030178,0.685133925817149
24199.9999999283,16.9313369469912,1.00000000330639,0.687572518672881
24299.9999999269,16.9831238357814,1.00000000323688,0.68922587057458
24399.9999999254,17.0400308699031,1.00000000288822,0.682090989568831
24499.999999924,17.1041720963681,1.00000000284556,0.671316668419295
24599.9999999225,17.1712493935858,1.00000000299291,0.680145281732171
24699.9999999211,17.2333178928413,1.00000000300969,0.680192116995259
24799.9999999196,17.3042938928952,1.00000000285331,0.657832690938157
24899.9999999181,17.3830612543739,1.0000000030914,0.661023083597998
24999.9999999167,17.4512239520308,1.00000000336758,0.684520174740125
25099.9999999152,17.5119028791567,1.00000000327414,0.680208605102627
25199.9999999138,17.5747523429061,1.0000000027926,0.659934928244204
25299.9999999123,17.6491784940428,1.00000000320253,0.656608863914554
25399.9999999109,17.7224867210762,1.00000000335167,0.678904125138127
25499.9999999094,17.7894981687887,1.00000000327486,0.692768081505059
25599.999999908,17.8549556003131,1.00000000336934,0.683606548733132
25699.9999999065,17.9292047445998,1.00000000302865,0.657922087402294
25799.9999999051,18.0101831615535,1.00000000337925,0.671424336117521
25899.9999999036,18.0893653737036,1.00000000312702,0.663118656491487
25999.9999999021,18.1557655663416,1.00000000375649,0.687205448271476
26099.9999999007,18.218500096556,1.00000000314449,0.6630792401902
26199.9999998992,18.2917854650242,1.00000000328053,0.675869862945142
26299.9999998978,18.3721428113593,1.00000000317842,0.687143146106412
26399.9999998963,18.4498116646105,1.00000000382409,0.690708582976286
26499.9999998949,18.5267682913676,1.00000000313816,0.668861120109797
26599.9999998934,18.5988297870577,1.00000000347575,0.678403906634495
26699.999999892,18.6599023881877,1.00000000346469,0.69334677591361
26799.9999998905,18.7188962630629,1.00000000341239,0.692036444622826
26899.999999889,18.7799502955761,1.00000000341664,0.695578324996348
26999.9999998876,18.8464588515997,1.00000000316242,0.682386494991071
27099.9999998861,18.9196618474759,1.00000000307777,0.677040382223099
27199.9999998847,19.0075924549123,1.00000000322898,0.667206918064373
27299.9999998832,19.1013599887698,1.00000000317151,0.669374065962593
27399.9999998818,19.2039662270058,1.00000000333505,0.66080721220441
27499.9999998803,19.3123814298381,1.00000000342032,0.678120408824758
27599.9999998789,19.4209080546447,1.00000000317734,0.670085173199902
27699.9999998774,19.5230226992046,1.00000000339449,0.682569077306664
27799.9999998759,19.6260690740658,1.00000000307479,0.656487352538777
27899.9999998745,19.7387424842231,1.00000000326364,0.680766163884606
27999.999999873,19.8470404002745,1.00000000354814,0.696420954522394
28099.9999998716,19.9539704828013,1.00000000339281,0.68697769549374
28199.9999998701,20.066989387393,1.00000000345774,0.69863656203805
28299.9999998687,20.1705080135019,1.00000000342318,0.685574458688516
28399.9999998672,20.2728938260171,1.00000000339879,0.675463710582893
28499.9999998658,20.3807814274846,1.00000000314755,0.688463130926847
28599.9999998643,20.5011310512017,1.00000000323739,0.684583064390744
28699.9999998629,20.630678116589,1.00000000349258,0.68157646830781
28799.9999998614,20.760731882312,1.00000000375391,0.688060232777002
28899.9999998599,20.8915153877974,1.00000000338438,0.684348822356135
28999.9999998585,21.0176567377975,1.00000000357857,0.68740718668407
29099.999999857,21.1373714571993,1.00000000341958,0.677658464947884
