Time,AGPnorm,Energy,Entropy
0,0,1,-9.47012960190282e-18
99.9999999999986,2.19080256952642e-05,0.99999999999725,0.000961640607936996
199.999999999993,0.00196564666773741,1.00000000000022,0.00153927127585268
300,0.00493678189918284,0.999999999998475,0.00265318221187414
400.000000000022,0.00685684170294621,0.999999999998193,0.00461001368822494
500.000000000045,0.00815449118951363,1.00000000000028,0.00613664267724495
600.000000000068,0.0117683615187952,0.999999999997377,0.00855302498376802
700.000000000091,0.0145994474810783,0.999999999999759,0.0109977026007552
800.000000000113,0.0185861185370566,0.999999999999087,0.0134358921410279
900.000000000136,0.02309014035574,0.999999999997726,0.0166298272054552
1000.00000000016,0.0267270461284291,1.00000000000032,0.0194994209759313
1100.0000000001,0.0324876777291303,0.999999999997759,0.0228271238742006
1200,0.0382443993922048,0.999999999999213,0.0264461481509216
1299.99999999991,0.0436827884121372,0.999999999999564,0.0298848987278368
1399.99999999982,0.0497442525277533,0.999999999997475,0.0339645044626804
1499.99999999973,0.0556713566327869,1.00000000000019,0.0379037416130041
1599.99999999964,0.0631996305120954,0.999999999998297,0.0420520776272858
1699.99999999955,0.0708788835435141,0.999999999998621,0.046666837305228
1799.99999999946,0.0776664191700231,0.999999999999823,0.0510393220527462
1899.99999999937,0.0852792743981724,0.999999999997507,0.0559391043886758
1999.99999999928,0.0931376206511151,0.999999999999946,0.0609229734161678
2099.99999999919,0.101651691886434,0.999999999998842,0.0659867171688118
2199.99999999909,0.110189803240593,0.999999999998093,0.0715985993339492
2299.999999999,0.118184983869008,0.999999999999875,0.0770257495097209
2399.99999999891,0.127144047201102,0.9999999999978,0.0828992237593083
2499.99999999882,0.136469717790077,0.999999999999549,0.0891055129939749
2599.99999999873,0.145330199098144,0.999999999999271,0.0953311809442251
2699.99999999864,0.154106537275708,0.999999999997799,0.102157443852908
2799.99999999855,0.162976698031555,0.999999999999871,0.109011654853566
2899.99999999846,0.172692917363673,0.999999999998275,0.116324901444662
2999.99999999837,0.182612781284105,0.999999999999005,0.124273754231695
3099.99999999828,0.19143637998094,0.999999999999618,0.132292065427
3199.99999999819,0.200372889064168,0.999999999997945,0.141147097130872
3299.99999999809,0.209674534932355,1.00000000000036,0.150469623806406
3399.999999998,0.219620385074224,0.999999999999909,0.160532997432806
3499.99999999791,0.228944684259616,1.00000000000118,0.171768396595203
3599.99999999782,0.237593219671385,1.00000000000539,0.183458591910793
3699.99999999773,0.247376931659531,1.00000000000938,0.19628501559302
3799.99999999764,0.255736669169041,1.00000000002009,0.209921253770959
3899.99999999755,0.267916947123123,1.00000000003197,0.223898141396931
3999.99999999746,0.278041438025336,1.00000000004872,0.238578242510524
4099.99999999738,0.289352440807599,1.00000000006814,0.252928095810748
4199.99999999775,0.313101873985803,1.00000000009242,0.267396511164245
4299.99999999811,0.333250931623587,1.00000000011576,0.28192466187447
4399.99999999848,0.375497497205665,1.00000000014694,0.295606518662805
4499.99999999884,0.433927111151261,1.00000000017477,0.309467730870871
4599.9999999992,0.507412833009688,1.00000000020967,0.322648104986937
4699.99999999957,0.636050027808561,1.00000000024235,0.335555071388734
4799.99999999993,0.789104952738158,1.00000000028022,0.348478168754469
4900.00000000029,1.00712323087587,1.00000000029961,0.360455728146102
5000.00000000066,1.30494687586909,1.00000000033876,0.372230411246136
5100.00000000102,1.66038315906648,1.00000000037293,0.383741250601099
5200.00000000139,2.1419739814269,1.00000000039124,0.394506862974379
5300.00000000175,2.71958865930338,1.00000000042172,0.405278952952941
5400.00000000211,3.41886123603848,1.00000000043305,0.41526694667851
5500.00000000248,4.28524479800712,1.00000000046768,0.424860347978779
5600.00000000284,5.27293351928956,1.00000000048686,0.43449684952845
5700.00000000321,6.45290935579157,1.00000000051742,0.443079185745375
5800.00000000357,7.81391063662858,1.00000000052602,0.451716603831045
5900.00000000393,9.34458366969647,1.00000000056177,0.459702930761955
6000.0000000043,11.1105898291069,1.00000000058129,0.46723638800375
6100.00000000466,13.0590925491238,1.0000000005885,0.474845145948061
6200.00000000502,15.2329887717434,1.00000000060191,0.481688510660051
6300.00000000539,17.647832643664,1.00000000060342,0.488210443671408
6400.00000000575,20.2577712525648,1.00000000062529,0.494627549063294
6500.00000000612,23.1272809248252,1.00000000062688,0.500309576619856
6600.00000000648,26.2161231643782,1.00000000064001,0.506016288515162
6700.00000000684,29.5254535149912,1.0000000006561,0.511137462609189
6800.00000000721,33.0910536166869,1.00000000064966,0.515977228067108
6900.00000000757,36.8520972742892,1.00000000067035,0.520961958565955
7000.00000000793,40.8515179554835,1.00000000064921,0.525218348642187
7100.0000000083,45.0728941913903,1.00000000066096,0.529240081276031
7200.00000000866,49.4816591965313,1.00000000068109,0.533050188166615
7300.00000000903,54.119029958947,1.00000000066825,0.536682417758293
7400.00000000939,58.9303740634808,1.00000000067517,0.54027444896935
7500.00000000975,63.9280347912222,1.00000000069685,0.543198610198528
7600.00000001012,69.1175322134044,1.00000000067172,0.546145152497969
7700.00000001048,74.4467201718917,1.00000000069745,0.549051225507437
7800.00000001084,79.9469860285934,1.00000000069205,0.551497321770577
7900.00000001121,85.5831548025336,1.00000000068019,0.553811793478869
8000.00000001157,91.340602635818,1.00000000068133,0.556000402607064
8100.00000001194,97.2364076835711,1.0000000006635,0.558068961948211
8200.0000000123,103.219521976554,1.00000000067479,0.560069909249301
8300.00000001266,109.304176930226,1.00000000066366,0.561695608486959
8400.00000001303,115.475992202149,1.00000000067127,0.563150344920517
8500.00000001339,121.702992192368,1.00000000067106,0.564764872976314
8600.00000001376,128.004807068505,1.00000000065956,0.566021295455921
8700.00000001412,134.342141389029,1.00000000065016,0.567243103870702
8800.00000001448,140.71227381199,1.0000000006453,0.568353608940812
8900.00000001485,147.116217220353,1.00000000065849,0.569174793182701
9000.00000001521,153.517656794894,1.00000000065625,0.570029386054635
9100.00000001557,159.930209232813,1.00000000063447,0.57101909387422
9200.00000001594,166.330017876907,1.0000000006302,0.571556337150748
9300.0000000163,172.702436037079,1.00000000063725,0.572122763242935
9400.00000001667,179.057928774989,1.00000000061346,0.572664527435286
9500.00000001703,185.362248277051,1.00000000060003,0.573111031267734
9600.00000001739,191.622838787225,1.00000000060015,0.573573948259871
9700.00000001776,197.827741114342,1.00000000060167,0.57364132279724
9800.00000001812,203.959645088067,1.00000000061374,0.574043921753478
9900.00000001848,210.028163090356,1.00000000058601,0.573990515418665
10000.0000000188,216.009706525322,1.0000000005897,0.574580601128826
10100.0000000192,221.903259250277,1.00000000055681,0.574240209203278
10200.0000000196,227.706299153896,1.00000000057922,0.574562450629122
10300.0000000199,233.402843042165,1.00000000056254,0.574567337449949
10400.0000000203,238.999421834886,1.00000000056761,0.574072371678514
10500.0000000207,244.48292662875,1.00000000055917,0.575015918410715
10600.000000021,249.847979377373,1.00000000056035,0.573765705591311
10700.0000000214,255.095975590485,1.00000000055583,0.574369535436558
10800.0000000218,260.21691281328,1.00000000054082,0.574496639926739
10900.0000000221,265.211903216606,1.00000000054044,0.573044904262396
11000.0000000225,270.074956670902,1.00000000053016,0.574227622701853
11100.0000000229,274.801354329271,1.00000000052841,0.573156916074186
11200.0000000232,279.393597621531,1.00000000051539,0.572215859488213
11300.0000000236,283.843039430936,1.00000000052105,0.573413528965294
11400.0000000239,288.154548048471,1.00000000049348,0.571816077716025
11500.0000000243,292.321632944437,1.00000000049527,0.571809203374235
11600.0000000247,296.341392129497,1.00000000049102,0.572405261986642
11700.000000025,300.22098774512,1.00000000047987,0.570514791476138
11800.0000000254,303.949238498345,1.00000000049247,0.571035909600194
11900.0000000258,307.533013111043,1.00000000048409,0.570907568621688
12000.0000000261,310.971036060614,1.00000000047458,0.569397937548186
12100.0000000265,314.256613881376,1.00000000047317,0.570294572144443
12200.0000000269,317.40099805155,1.00000000046824,0.569143712188738
12300.0000000272,320.396178849169,1.00000000044342,0.568535444422993
12400.0000000276,323.243591988748,1.00000000045235,0.569018698988029
12500.0000000279,325.950346833738,1.00000000044244,0.567919253424948
12600.0000000283,328.507816056201,1.00000000044625,0.567355738771015
12700.0000000287,330.926208530262,1.00000000043893,0.567861134137343
12800.000000029,333.202990595145,1.00000000043508,0.566840849684839
12900.0000000294,335.336099297463,1.00000000041644,0.567005794585026
13000.0000000298,337.334860948668,1.00000000042054,0.566207716385512
13100.0000000301,339.194949835797,1.00000000041741,0.56478972498385
13200.0000000305,340.919918852969,1.00000000041313,0.565955952194843
13300.0000000309,342.514669429234,1.00000000041991,0.567130071716697
13400.0000000312,343.978465455143,1.0000000004103,0.565044926319868
13500.0000000316,345.315635476513,1.00000000039631,0.562331688490598
13600.0000000319,346.523095648855,1.00000000038673,0.563445266507382
13700.0000000323,347.609008664406,1.00000000038507,0.566523587057562
13800.0000000327,348.57916378583,1.00000000039653,0.56640475815769
13900.000000033,349.431696751201,1.00000000037427,0.563030931473982
14000.0000000334,350.169066973739,1.00000000036636,0.559548229384097
14100.0000000338,350.788887724919,1.00000000036484,0.561332346195067
14200.0000000341,351.300136041204,1.00000000037277,0.567292657535651
14300.0000000345,351.716063448825,1.00000000039713,0.568166426082948
14400.0000000349,352.034990621232,1.00000000037227,0.561659795828327
14500.0000000352,352.25167301834,1.00000000034285,0.554779389239006
14600.0000000356,352.361274917428,1.00000000033604,0.556584426946623
14700.0000000359,352.376996924752,1.00000000037456,0.56728334911933
14800.0000000363,352.3192195282,1.00000000039215,0.570818737262407
14900.0000000367,352.189951765813,1.00000000038655,0.562811096459895
15000.000000037,351.979316625706,1.00000000033957,0.552117872091334
15100.0000000374,351.673630684726,1.00000000031449,0.547485633186595
15200.0000000378,351.282263316697,1.00000000035656,0.560193288410718
15300.0000000381,350.831122900844,1.00000000040476,0.572188125561726
15400.0000000385,350.337885723376,1.00000000040877,0.570492527679978
15500.0000000389,349.792536421895,1.00000000036246,0.555156333566836
15600.0000000392,349.17815742331,1.0000000003193,0.541295950362859
15700.0000000396,348.479737532843,1.00000000029019,0.540603438993952
15800.0000000399,347.718035595467,1.00000000036888,0.56038336325136
15900.0000000403,346.921785097277,1.00000000043349,0.576613507200264
16000.0000000407,346.10996422291,1.00000000043119,0.570669789601639
16100.000000041,345.266308980263,1.00000000034735,0.550309062595517
16200.0000000414,344.364535674765,1.00000000029882,0.530462733642565
16300.0000000418,343.39271047446,1.00000000028562,0.528143908469306
16400.0000000418,342.365373504411,1.00000000035877,0.552798343376365
16500.0000000404,341.319864870639,1.00000000047363,0.576273937829028
16600.0000000389,340.276261805298,1.00000000047006,0.575617433642601
16700.0000000375,339.224975212851,1.00000000040441,0.555616960070665
16800.000000036,338.141626013517,1.00000000030476,0.526831049540591
16900.0000000346,336.999472322902,1.00000000025468,0.51225942586385
17000.0000000331,335.804036371252,1.00000000029099,0.526970039874369
17100.0000000317,334.583059130501,1.00000000041298,0.561532202834438
17200.0000000302,333.36710677753,1.00000000051285,0.58069221271705
17300.0000000287,332.168432117867,1.00000000049521,0.572806410342207
17400.0000000273,330.97086283908,1.00000000039963,0.54454447728192
17500.0000000258,329.746079418116,1.00000000029431,0.512726179481823
17600.0000000244,328.4750551602,1.00000000023923,0.498538061562181
17700.0000000229,327.159472988934,1.00000000029545,0.515481843850239
17800.0000000215,325.829105125354,1.00000000042386,0.555454732274643
17900.00000002,324.511110851998,1.00000000049973,0.579733029031278
18000.0000000186,323.217690233463,1.00000000050795,0.576424989449488
18100.0000000171,321.940009046127,1.00000000043675,0.550427356210853
18200.0000000156,320.652058032322,1.0000000003377,0.515921433265019
18300.0000000142,319.335240878066,1.00000000024955,0.491798869643725
18400.0000000127,317.980779822477,1.00000000025881,0.492746995271422
18500.0000000113,316.603162735572,1.00000000034611,0.524679572071295
18600.0000000098,315.228713544878,1.00000000047739,0.563725826125352
18700.0000000084,313.875680532294,1.00000000053433,0.580386671127967
18800.0000000069,312.549205919045,1.00000000050794,0.570278850407578
18900.0000000055,311.238168561905,1.00000000043234,0.542243329096838
19000.000000004,309.922789883779,1.00000000032872,0.508211789157232
19100.0000000026,308.588575139054,1.00000000025626,0.485646640562884
19200.0000000011,307.228090444421,1.00000000025215,0.486005541780918
19299.9999999996,305.852305354411,1.00000000032331,0.51069950402972
19399.9999999982,304.477513149194,1.00000000043878,0.546706750904621
19499.9999999967,303.118953836558,1.00000000051096,0.570887771062025
19599.9999999953,301.785049981633,1.00000000052366,0.571987247588199
19699.9999999938,300.472424668643,1.00000000048781,0.553444952109729
19799.9999999924,299.169499049723,1.0000000003943,0.522595038127256
19899.9999999909,297.86297726228,1.00000000030049,0.495157513568483
19999.9999999895,296.54344294022,1.00000000028043,0.483437302962707
20099.999999988,295.212680028572,1.00000000028516,0.489173870226067
20199.9999999865,293.874817167468,1.00000000033727,0.507451563247288
20299.9999999851,292.540455954929,1.00000000041481,0.533839326853858
20399.9999999836,291.220156654043,1.00000000048082,0.558133546082628
20499.9999999822,289.918920373534,1.00000000051638,0.564870427321089
20599.9999999807,288.63709740399,1.00000000048969,0.551910765078894
20699.9999999793,287.368231393979,1.00000000041835,0.528707083181862
20799.9999999778,286.104087596899,1.00000000037259,0.506249186118187
20899.9999999764,284.839662884001,1.00000000031326,0.493090552374313
20999.9999999749,283.571152467708,1.0000000002998,0.49013791646953
21099.9999999734,282.301375205902,1.00000000031589,0.494487087438346
21199.999999972,281.031835204503,1.00000000036044,0.506514071001242
21299.9999999705,279.768085806845,1.00000000041451,0.52518364231112
21399.9999999691,278.515950143397,1.00000000045123,0.541784314669966
21499.9999999676,277.277982972312,1.0000000004892,0.550067104196617
21599.9999999662,276.054484745125,1.00000000047284,0.544410512368076
21699.9999999647,274.843494789706,1.00000000043954,0.530930138344916
21799.9999999633,273.640877649866,1.00000000041611,0.517159553213677
21899.9999999618,272.444516624251,1.00000000036589,0.506000767638119
21999.9999999603,271.251548812681,1.00000000032799,0.498759624423801
22099.9999999589,270.062300903,1.00000000032271,0.497486911659458
22199.9999999574,268.876688142766,1.00000000033448,0.499517776550355
22299.999999956,267.695733896607,1.00000000035483,0.505573303338971
22399.9999999545,266.522065086819,1.0000000003993,0.514031207980075
22499.9999999531,265.357065992223,1.00000000041312,0.523639105533401
22599.9999999516,264.202282777791,1.00000000045402,0.531799060267118
22699.9999999502,263.058622680427,1.00000000044932,0.534462425200827
22799.9999999487,261.92503123238,1.00000000044798,0.532086327344491
22899.9999999473,260.800957108698,1.00000000040594,0.524679799099844
22999.9999999458,259.685238293157,1.00000000040183,0.51767074583299
23099.9999999443,258.577157165738,1.00000000036217,0.513426718321339
23199.9999999429,257.476701349035,1.00000000035475,0.511008289819082
23299.9999999414,256.383288811452,1.00000000033107,0.507952746876699
23399.99999994,255.29760153487,1.00000000033861,0.504836910920511
23499.9999999385,254.218797957911,1.00000000034047,0.502016558879813
23599.9999999371,253.147687356448,1.00000000034624,0.502564455065188
23699.9999999356,252.085015884093,1.00000000035679,0.506800203234984
23799.9999999342,251.030918692573,1.00000000040472,0.514673888234593
23899.9999999327,249.985691278389,1.00000000042396,0.522143303231112
23999.9999999312,248.949309711543,1.000000000422,0.527672293380158
24099.9999999298,247.921069093675,1.00000000042461,0.530762410261864
24199.9999999283,246.901426122577,1.00000000038598,0.526009139386692
24299.9999999269,245.889942301097,1.00000000039095,0.522462687494013
24399.9999999254,244.886900056715,1.00000000038665,0.522895404340377
24499.999999924,243.892357406567,1.00000000037716,0.526658667833807
24599.9999999225,242.906612486631,1.00000000037951,0.523222146961722
24699.9999999211,241.930098111128,1.00000000035356,0.516548620301292
24799.9999999196,240.962604523532,1.00000000033097,0.505084551423773
24899.9999999181,240.005021358038,1.00000000031097,0.494646987191458
24999.9999999167,239.057299298385,1.0000000003136,0.490822438950343
25099.9999999152,238.119322371858,1.00000000034292,0.495811038898404
25199.9999999138,237.190641125364,1.00000000039385,0.504275662382569
25299.9999999123,236.27005328814,1.00000000042902,0.515935117753187
25399.9999999109,235.356095443751,1.00000000044656,0.523841300232255
25499.9999999094,234.448837266995,1.00000000041328,0.526992600998051
25599.999999908,233.548429796626,1.00000000038664,0.528708190758855
25699.9999999065,232.656077446821,1.00000000036451,0.524112173805416
25799.9999999051,231.771652522067,1.00000000037591,0.522461820919972
25899.9999999036,230.89472402084,1.0000000004086,0.530650743285331
25999.9999999021,230.024859354256,1.00000000043014,0.539716493460091
26099.9999999007,229.162133089155,1.00000000042012,0.534519510346497
26199.9999998992,228.307918899787,1.00000000039374,0.522947770109379
26299.9999998978,227.463495436204,1.00000000034321,0.508543909199031
26399.9999998963,226.631145518758,1.00000000028704,0.489063105616784
26499.9999998949,225.812046937128,1.00000000027799,0.478298534832464
26599.9999998934,225.006002907582,1.00000000031187,0.478648398058926
26699.999999892,224.211460047078,1.00000000035795,0.488116204029095
26799.9999998905,223.425875166377,1.00000000041179,0.501430943552994
26899.999999889,222.645822805857,1.00000000045594,0.513940138030105
26999.9999998876,221.86973228458,1.0000000004476,0.517283848028994
27099.9999998861,221.097385366758,1.0000000004268,0.518692701757554
27199.9999998847,220.329921629539,1.00000000038134,0.52302249677816
27299.9999998832,219.569342282413,1.00000000036142,0.523427580989858
27399.9999998818,218.815985542347,1.00000000038457,0.523315726274063
27499.9999998803,218.068795604401,1.0000000003824,0.525119653494031
27599.9999998789,217.326250820935,1.00000000043208,0.5373585470063
27699.9999998774,216.58722483589,1.00000000046402,0.546065144507569
27799.9999998759,215.852364861147,1.0000000004311,0.537668546637405
27899.9999998745,215.124081114214,1.00000000040066,0.52289755564193
27999.999999873,214.405287160305,1.0000000003496,0.508239432902203
28099.9999998716,213.699377041671,1.00000000029658,0.489777933972721
28199.9999998701,213.009409696715,1.00000000026843,0.473857757626318
28299.9999998687,212.335730019475,1.00000000027831,0.468851607363653
28399.9999998672,211.676523204505,1.00000000032541,0.475075411988631
28499.9999998658,211.028211093945,1.00000000038688,0.486853277683901
28599.9999998643,210.386768790854,1.00000000042261,0.500077591983089
28699.9999998629,209.74851129876,1.00000000045148,0.509582554751507
28799.9999998614,209.111853499861,1.0000000004449,0.512185005051682
28899.9999998599,208.476077854817,1.00000000042508,0.512391103422844
