Time,AGPnorm,Energy,Entropy
0,0,1,-1.16524639076267e-17
99.9999999999986,3.7827778146128e-05,1.0000000000035,0.00151950786276186
199.999999999993,0.00326977166881095,1.00000000000003,0.00240194867574112
300,0.00825774416347221,1.00000000000195,0.00432538240582373
400.000000000022,0.0115577782670504,1.00000000000251,0.00719779539849761
500.000000000045,0.0141677711141703,0.999999999999614,0.00979215949847856
600.000000000068,0.0199090078830642,1.00000000000346,0.0135680826330929
700.000000000091,0.0247688780557576,1.00000000000045,0.0172425886238534
800.000000000113,0.0318876850125063,1.00000000000139,0.0214234901852494
900.000000000136,0.0396083679363453,1.000000000003,0.0261047593124968
1000.00000000016,0.0460547072449274,0.999999999999378,0.0307801865538094
1100.0000000001,0.0545673713679121,1.00000000000325,0.0361302774152868
1200,0.0640470328565419,1.00000000000106,0.0415404872896252
1299.99999999991,0.0737181441417751,1.00000000000076,0.0474451226559631
1399.99999999982,0.0836604033902525,1.0000000000033,0.0536656333246795
1499.99999999973,0.0935068444989573,0.999999999999415,0.0600178871747268
1599.99999999964,0.104504006835488,1.0000000000029,0.0670260172486801
1699.99999999955,0.116428048527835,1.00000000000172,0.0741712199687916
1799.99999999946,0.127695953806486,1.00000000000016,0.0818883396463033
1899.99999999937,0.138916640910651,1.00000000000346,0.0899755361325199
1999.99999999928,0.151071694896301,0.999999999999746,0.09836265465725
2099.99999999919,0.163451519650208,1.00000000000239,0.10764928737176
2199.99999999909,0.176127586243535,1.00000000000228,0.117283310983396
2299.999999999,0.188085464759718,0.999999999999761,0.127742853370142
2399.99999999891,0.199918736321847,1.00000000000368,0.139091517136562
2499.99999999882,0.212855838189411,1.00000000000098,0.151352386974039
2599.99999999873,0.225489785002774,1.0000000000043,0.165338377076266
2699.99999999864,0.237610594720981,1.00000000001031,0.180662065793988
2799.99999999855,0.248922962930744,1.00000000002039,0.197560160663477
2899.99999999846,0.262842954610665,1.00000000004549,0.21603638926403
2999.99999999837,0.27345869395431,1.00000000008096,0.234980373106272
3099.99999999828,0.290520814046926,1.00000000012286,0.254625829697756
3199.99999999819,0.311282289675831,1.00000000018261,0.273851503154059
3299.99999999809,0.335345288044243,1.00000000023373,0.292723837570426
3399.999999998,0.388881378386678,1.00000000031321,0.311426992125512
3499.99999999791,0.45390608100277,1.00000000038256,0.32924542680368
3599.99999999782,0.565594062369307,1.00000000046125,0.346761749798095
3699.99999999773,0.731482451009104,1.00000000052264,0.363452191408228
3799.99999999764,0.955008902880496,1.00000000060225,0.379349607123037
3899.99999999755,1.28033028426259,1.00000000066246,0.395026579448425
3999.99999999746,1.69760902225011,1.00000000074359,0.409306379231008
4099.99999999738,2.24761099780989,1.0000000007849,0.423393479123309
4199.99999999775,2.93868353477382,1.00000000086261,0.436525297263501
4299.99999999811,3.78557083213336,1.00000000089955,0.448763009886841
4399.99999999848,4.81683130922006,1.00000000094112,0.460916842563938
4499.99999999884,6.02722656039638,1.00000000099037,0.47148201513889
4599.9999999992,7.45415175229876,1.00000000103793,0.481897463334708
4699.99999999957,9.07897653466792,1.00000000105478,0.491738861742504
4799.99999999993,10.928993695069,1.00000000107354,0.500419157364287
4900.00000000029,13.0084222644016,1.00000000112387,0.509024471960969
5000.00000000066,15.2936016432399,1.0000000011232,0.516706679013214
5100.00000000102,17.8309091568172,1.00000000114913,0.523677911634007
5200.00000000139,20.5654222493276,1.00000000116162,0.530854998048308
5300.00000000175,23.5242790291498,1.0000000011905,0.536520701016241
5400.00000000211,26.7078164897555,1.00000000114099,0.542674010785753
5500.00000000248,30.0585180002296,1.00000000120822,0.547868678821787
5600.00000000284,33.6371854147104,1.00000000118081,0.552410194244206
5700.00000000321,37.370151651048,1.00000000117355,0.557401176615146
5800.00000000357,41.266147238582,1.00000000120865,0.561120707916517
5900.00000000393,45.3432035479787,1.00000000116529,0.564949246544998
6000.0000000043,49.5140440465181,1.00000000117676,0.568834485076923
6100.00000000466,53.8447034897664,1.00000000117533,0.571260931721704
6200.00000000502,58.2689194372291,1.00000000116241,0.574694263484805
6300.00000000539,62.7670505756941,1.00000000109784,0.577407515807055
6400.00000000575,67.3801886117126,1.00000000114609,0.579138844403252
6500.00000000612,72.010018759151,1.00000000111693,0.581877010971418
6600.00000000648,76.7119360366612,1.00000000111818,0.583243618102224
6700.00000000684,81.4449190496127,1.00000000110495,0.585150052285194
6800.00000000721,86.1645464784273,1.00000000109118,0.586733376496037
6900.00000000757,90.9271970904191,1.0000000011427,0.587282680427304
7000.00000000793,95.6421542453581,1.0000000010859,0.589427681126736
7100.0000000083,100.344838312783,1.00000000106941,0.589747785845366
7200.00000000866,105.023016577235,1.00000000107103,0.590389524940661
7300.00000000903,109.620056343976,1.00000000105661,0.591449907447237
7400.00000000939,114.192791091629,1.0000000010196,0.591841186707579
7500.00000000975,118.670716347517,1.00000000100567,0.592442082597989
7600.00000001012,123.071254052543,1.0000000009842,0.592556638953847
7700.00000001048,127.401911206728,1.00000000096472,0.592731143125629
7800.00000001084,131.605437042592,1.00000000100515,0.593428585707685
7900.00000001121,135.731793988074,1.00000000097949,0.592638255869068
8000.00000001157,139.735381254337,1.00000000096101,0.592910247900207
8100.00000001194,143.615625419496,1.00000000095256,0.593723583879445
8200.0000000123,147.396156623345,1.00000000093605,0.59205699356747
8300.00000001266,151.023413904054,1.00000000094237,0.593433298533023
8400.00000001303,154.542359906581,1.00000000088447,0.591810082212289
8500.00000001339,157.919893811756,1.00000000090167,0.592742474833745
8600.00000001376,161.154577880065,1.00000000087782,0.591761911462474
8700.00000001412,164.267681639136,1.00000000084578,0.591503134188147
8800.00000001448,167.221972143038,1.00000000084362,0.591529395461242
8900.00000001485,170.045230902025,1.00000000084888,0.59031672949963
9000.00000001521,172.727808923083,1.00000000084642,0.590454068195374
9100.00000001557,175.254395227777,1.00000000081626,0.589737787538579
9200.00000001594,177.656849990661,1.00000000081174,0.589418906115284
9300.0000000163,179.899016085248,1.00000000077124,0.588736110450372
9400.00000001667,182.008787479057,1.0000000007762,0.589260759338865
9500.00000001703,183.979984522109,1.0000000007482,0.586898847656328
9600.00000001739,185.799629523484,1.00000000077649,0.588463103236097
9700.00000001776,187.497461068009,1.00000000075672,0.586542162846876
9800.00000001812,189.045873177358,1.0000000007239,0.586855492134206
9900.00000001848,190.467004653221,1.00000000075042,0.58713856205065
10000.0000000188,191.760313930031,1.00000000072266,0.585261471736709
10100.0000000192,192.915476490864,1.00000000069638,0.587014089236499
10200.0000000196,193.95714473941,1.00000000069106,0.585092294261026
10300.0000000199,194.867355856715,1.00000000068563,0.58483711020157
10400.0000000203,195.660798797457,1.00000000068244,0.585903446997679
10500.0000000207,196.343390904201,1.00000000068684,0.584109877387044
10600.000000021,196.9037835712,1.00000000064838,0.583623278448381
10700.0000000214,197.36354026042,1.00000000066069,0.585739269529016
10800.0000000218,197.716261268026,1.00000000067028,0.584515939049914
10900.0000000221,197.966460245901,1.00000000062638,0.580767214072869
11000.0000000225,198.121723728332,1.00000000065534,0.585106909432584
11100.0000000229,198.184407678284,1.0000000006611,0.585706074879083
11200.0000000232,198.165098015819,1.00000000061412,0.576768987003084
11300.0000000236,198.052340778028,1.00000000062353,0.581391743539806
11400.0000000239,197.868268081581,1.00000000065491,0.58608560447567
11500.0000000243,197.620400671228,1.00000000060658,0.576540785649047
11600.0000000247,197.289452758725,1.00000000059943,0.571954654657013
11700.000000025,196.897371205657,1.0000000006829,0.582706319208835
11800.0000000254,196.453142877182,1.00000000067085,0.580717794944086
11900.0000000258,195.952989383141,1.00000000060811,0.57131073769381
12000.0000000261,195.391995071224,1.00000000058356,0.568043351754351
12100.0000000265,194.778970374849,1.00000000068564,0.582124460044392
12200.0000000269,194.138089197395,1.00000000068668,0.578614230343416
12300.0000000272,193.456105691241,1.00000000059267,0.56543592539117
12400.0000000276,192.722067435301,1.00000000058125,0.559375400919498
12500.0000000279,191.954624170012,1.00000000070519,0.581308444040174
12600.0000000283,191.168202910289,1.00000000069658,0.577829638668031
12700.0000000287,190.360269001556,1.00000000062752,0.562764227991019
12800.000000029,189.509096473194,1.00000000054201,0.549157168638363
12900.0000000294,188.626651064649,1.00000000069666,0.574796814242529
13000.0000000298,187.741300708809,1.00000000076991,0.580848567468321
13100.0000000301,186.845198380596,1.00000000067663,0.563051008093801
13200.0000000305,185.925589604009,1.00000000055735,0.54642070337793
13300.0000000309,184.974132987398,1.0000000006207,0.551908841935707
13400.0000000312,184.014470267366,1.00000000075966,0.58197660325088
13500.0000000316,183.061804454266,1.00000000077595,0.571841865277176
13600.0000000319,182.102373639345,1.00000000061093,0.550009870412225
13700.0000000323,181.123892603018,1.00000000056892,0.539883302100809
13800.0000000327,180.126752639786,1.00000000066951,0.552517830166996
13900.000000033,179.130049748105,1.00000000078279,0.578790013351601
14000.0000000334,178.145243278095,1.00000000081214,0.567572830999855
14100.0000000338,177.159484182724,1.00000000062727,0.542345859894406
14200.0000000341,176.162401903473,1.00000000058851,0.537319644872114
14300.0000000345,175.153183608611,1.00000000064344,0.542747312392999
14400.0000000349,174.14449393474,1.000000000767,0.570250746588358
14500.0000000352,173.149064332119,1.00000000082482,0.571919575373653
14600.0000000356,172.161350150376,1.00000000065675,0.542147918280184
14700.0000000359,171.17029509094,1.00000000058927,0.532636242679704
14800.0000000363,170.172815976312,1.00000000064524,0.53716509792064
14900.0000000367,169.172470113697,1.0000000006885,0.547775825257815
15000.000000037,168.181494769742,1.00000000079952,0.568818941616584
15100.0000000374,167.201539699302,1.00000000079675,0.560954883575614
15200.0000000378,166.22939188485,1.00000000065552,0.530600923338035
15300.0000000381,165.257559505394,1.00000000061108,0.531342248368553
15400.0000000385,164.283903673271,1.00000000063461,0.539354820321136
15500.0000000389,163.313603209474,1.00000000069562,0.543219060005302
15600.0000000392,162.3497538785,1.00000000076895,0.555284198842951
15700.0000000396,161.396997748239,1.00000000078586,0.559138903451209
15800.0000000399,160.453883745492,1.00000000067789,0.533305292706564
15900.0000000403,159.51439038267,1.0000000006389,0.526400975073179
16000.0000000407,158.579606685895,1.00000000063918,0.537074287690245
16100.000000041,157.64770578906,1.00000000068013,0.543033502388341
16200.0000000414,156.722093846602,1.00000000068325,0.541268239469125
16300.0000000418,155.805262220798,1.00000000072726,0.54579637472655
16400.0000000418,154.896958234418,1.00000000074616,0.547654554900924
16500.0000000404,153.997673054245,1.00000000071792,0.533903246334663
16600.0000000389,153.10508630137,1.00000000064761,0.524950052469419
16700.0000000375,152.218811631394,1.00000000065383,0.537284807478932
16800.000000036,151.339187844405,1.00000000068978,0.545203292305915
16900.0000000346,150.465933032428,1.00000000067297,0.538750137542293
17000.0000000331,149.600741753929,1.00000000067398,0.533762647442271
17100.0000000317,148.743683430659,1.00000000069393,0.539622129034588
17200.0000000302,147.894784762945,1.00000000073842,0.542721792499357
17300.0000000287,147.054673648484,1.00000000066008,0.531615026570815
17400.0000000273,146.222134459644,1.0000000006785,0.530994317973693
17500.0000000258,145.398146577004,1.00000000068474,0.542788821063641
17600.0000000244,144.581635444241,1.00000000066496,0.543873617305103
17700.0000000229,143.77276710633,1.00000000067106,0.535876789287126
17800.0000000215,142.971967120907,1.0000000006491,0.529913887395684
17900.00000002,142.179077036611,1.00000000066359,0.533251416267566
18000.0000000186,141.394660082776,1.00000000071946,0.542697894155757
18100.0000000171,140.618686893028,1.00000000069777,0.542666235199465
18200.0000000156,139.850998852199,1.00000000066585,0.535616009899156
18300.0000000142,139.092137668837,1.00000000070041,0.540592864333558
18400.0000000127,138.341875798515,1.00000000064506,0.545236546151886
18500.0000000113,137.600626605299,1.00000000064947,0.542331804028875
18600.0000000098,136.867619199083,1.00000000061444,0.530531041484305
18700.0000000084,136.143056116411,1.00000000064663,0.529440262997746
18800.0000000069,135.427276286958,1.00000000067627,0.529794120644316
18900.0000000055,134.719628106371,1.00000000068789,0.541359030400544
19000.000000004,134.020036770494,1.00000000069684,0.547870808523357
19100.0000000026,133.328443773787,1.00000000068261,0.542746532254531
19200.0000000011,132.645053345013,1.00000000069094,0.541797404108773
19299.9999999996,131.969850655479,1.00000000072876,0.54892538322096
19399.9999999982,131.303588582453,1.00000000062184,0.543734635518994
19499.9999999967,130.647334931034,1.00000000059367,0.532013812665894
19599.9999999953,130.000857552905,1.00000000059308,0.521686673109334
19699.9999999938,129.363143764564,1.00000000066843,0.52735578362495
19799.9999999924,128.733364075561,1.00000000067777,0.530086933553715
19899.9999999909,128.111168122805,1.00000000069558,0.53515253209155
19999.9999999895,127.49622452166,1.00000000067109,0.545950888077561
20099.999999988,126.888296178627,1.00000000068782,0.5486549934579
20199.9999999865,126.287005747013,1.0000000006815,0.547116479126961
20299.9999999851,125.691796119996,1.00000000075257,0.551146092769348
20399.9999999836,125.10376080192,1.00000000068268,0.544685900064252
20499.9999999822,124.526317490894,1.00000000060219,0.535005489612478
20599.9999999807,123.960536522832,1.00000000056099,0.522623909602888
20699.9999999793,123.405466331551,1.00000000064981,0.517534142880464
20799.9999999778,122.858277125218,1.00000000073848,0.524110876924078
20899.9999999764,122.31736957561,1.0000000007253,0.529249555600347
20999.9999999749,121.782965856742,1.0000000006462,0.525682603880658
21099.9999999734,121.255373343155,1.00000000065254,0.533910691975257
21199.999999972,120.73286181163,1.00000000071288,0.550178136926546
21299.9999999705,120.213957097591,1.00000000072669,0.556045556739621
21399.9999999691,119.698820575164,1.00000000073497,0.552164230602145
21499.9999999676,119.188722170221,1.00000000071768,0.546934757737199
21599.9999999662,118.686322392145,1.00000000064345,0.537630486471107
21699.9999999647,118.195303919601,1.0000000005823,0.525045698244421
21799.9999999633,117.716597992681,1.00000000058518,0.524255116274101
21899.9999999618,117.248279336514,1.00000000063542,0.517873338680222
21999.9999999603,116.788181081589,1.00000000070106,0.516425329857707
22099.9999999589,116.333727310202,1.00000000070781,0.522108306762637
22199.9999999574,115.884702879587,1.00000000066785,0.521314757634243
22299.999999956,115.441294203894,1.00000000069516,0.523902122336811
22399.9999999545,115.001437552065,1.00000000072799,0.53735257721079
22499.9999999531,114.563003349687,1.00000000074557,0.552673821956418
22599.9999999516,114.125222455765,1.0000000007363,0.556493751560751
22699.9999999502,113.690358525274,1.00000000070836,0.54938312316213
22799.9999999487,113.26011015151,1.00000000072152,0.542852903864686
22899.9999999473,112.836858900997,1.00000000067252,0.535554984799453
22999.9999999458,112.424232360247,1.0000000005928,0.52937010453555
23099.9999999443,112.022010453543,1.00000000061693,0.52691970921231
23199.9999999429,111.63057273357,1.00000000063478,0.52459039354001
23299.9999999414,111.248214410908,1.00000000064927,0.518076853073209
23399.99999994,110.87408994283,1.00000000063438,0.511009845232397
23499.9999999385,110.506791534993,1.00000000071169,0.517802939974476
23599.9999999371,110.14328542625,1.00000000069817,0.522684540276087
23699.9999999356,109.782853251199,1.00000000070337,0.528685701519612
23799.9999999342,109.423447243279,1.00000000073755,0.537106021962555
23899.9999999327,109.063539081415,1.00000000074223,0.542882341504431
23999.9999999312,108.702801447822,1.00000000077671,0.550817552839473
24099.9999999298,108.342800983621,1.00000000071058,0.548581868177805
24199.9999999283,107.986730744804,1.00000000066387,0.541521303600584
24299.9999999269,107.636607768139,1.00000000066501,0.539362812827391
24399.9999999254,107.292535635774,1.00000000068947,0.541514846544828
24499.999999924,106.955341121628,1.00000000068175,0.540419448835803
24599.9999999225,106.626054958807,1.0000000006457,0.536137273223483
24699.9999999211,106.306785629891,1.00000000063406,0.526305382073437
24799.9999999196,105.998022651333,1.00000000061048,0.522136123553612
24899.9999999181,105.699248022928,1.00000000062786,0.517087590480522
24999.9999999167,105.408908976471,1.00000000065718,0.516947252838466
25099.9999999152,105.124009167812,1.00000000068715,0.523101531879586
25199.9999999138,104.841866872127,1.00000000070876,0.530649599606803
25299.9999999123,104.55980888245,1.00000000072651,0.540120886382755
25399.9999999109,104.276529834451,1.00000000071527,0.5421595102001
25499.9999999094,103.992560800244,1.00000000075012,0.543518243331958
25599.999999908,103.706980266615,1.00000000073407,0.544668678788431
25699.9999999065,103.422086165807,1.00000000068331,0.542574608895218
25799.9999999051,103.140621231139,1.00000000067251,0.54392153374358
25899.9999999036,102.863256179517,1.00000000064676,0.546526998181615
25999.9999999021,102.589897813302,1.00000000068652,0.548072818462146
26099.9999999007,102.320424360341,1.00000000069277,0.549370039674291
26199.9999998992,102.054633136954,1.00000000071161,0.54995895292701
26299.9999998978,101.794485707837,1.00000000067156,0.543119042373533
26399.9999998963,101.542698345077,1.00000000061864,0.533284513297635
26499.9999998949,101.302161231856,1.00000000058244,0.523647178756567
26599.9999998934,101.072857107867,1.00000000059783,0.522297052867838
26699.999999892,100.853041367634,1.00000000064921,0.524025315409038
26799.9999998905,100.639838989027,1.00000000065106,0.527397772242849
26899.999999889,100.431696257093,1.00000000067819,0.530871743135552
26999.9999998876,100.225558758673,1.0000000006965,0.537756363608521
27099.9999998861,100.018316895258,1.00000000068526,0.545147830474397
27199.9999998847,99.8088225707632,1.00000000072188,0.551739646603747
27299.9999998832,99.5980109625798,1.00000000070715,0.546215846688068
27399.9999998818,99.3864191782323,1.00000000070668,0.544036286262229
27499.9999998803,99.1745403363028,1.00000000073341,0.543777888895298
27599.9999998789,98.9631176529895,1.0000000006936,0.543998778799358
27699.9999998774,98.7538035850101,1.00000000067615,0.547824272373865
27799.9999998759,98.5470122017683,1.00000000065537,0.552838710994317
27899.9999998745,98.3423297737254,1.00000000068232,0.557693912932446
27999.999999873,98.1388771293212,1.00000000072049,0.555686323392861
28099.9999998716,97.9363149500071,1.0000000007091,0.552590823840674
28199.9999998701,97.7355274258802,1.00000000071752,0.548587608476687
28299.9999998687,97.5391430936029,1.00000000067238,0.541834788112941
28399.9999998672,97.3500967896562,1.00000000061759,0.532406286170513
28499.9999998658,97.171965878266,1.00000000058192,0.523711722240026
28599.9999998643,97.0057390368929,1.00000000058016,0.521714454515049
28699.9999998629,96.8487420385643,1.0000000006426,0.52581269310849
28799.9999998614,96.6977352765228,1.00000000069907,0.531337064984566
28899.9999998599,96.5493094470839,1.00000000069601,0.536131434268896
28999.9999998585,96.4035950353099,1.00000000068977,0.539073924243666
