Time,AGPnorm,Energy,Entropy
0,0,1,-2.66952208651462e-20
99.9999999999986,0.00850492509504297,0.999999999997691,0.0242503058487802
199.999999999993,0.0222577304423355,1.00000000000036,0.070950492200068
300,0.0442386104378577,0.999999999999263,0.14276898283394
400.000000000022,0.0660790933471781,1.00000000013366,0.252476172850247
500.000000000045,0.11273443038722,1.00000000110047,0.394941420304231
600.000000000068,0.487450444206451,1.00000000249603,0.498085666055183
700.000000000091,1.55735037183051,1.00000000301007,0.55444658067528
800.000000000113,3.40880936876491,1.00000000322013,0.580471382213427
900.000000000136,5.87190796617513,1.00000000323289,0.587484843058992
1000.00000000016,8.50498128433621,1.0000000032699,0.585972956469035
1100.0000000001,11.0365796379772,1.00000000295649,0.578938154229376
1200,13.1786569670561,1.00000000248969,0.567747264896043
1299.99999999991,14.8284041882299,1.00000000249624,0.560636723917892
1399.99999999982,15.94815257602,1.00000000210837,0.547966255168114
1499.99999999973,16.5777550415436,1.00000000204847,0.54255553578284
1599.99999999964,16.7938608124004,1.0000000021961,0.571320348223284
1699.99999999955,16.6691882374145,1.00000000157291,0.510391976346393
1799.99999999946,16.4153337743831,1.00000000208342,0.541529772067936
1899.99999999937,15.9438716303005,1.00000000197878,0.516291859120751
1999.99999999928,15.4978392945197,1.00000000219526,0.531200482849929
2099.99999999919,14.9455997243784,1.00000000146762,0.437302736902375
2199.99999999909,14.414960658295,1.00000000280352,0.575814123116075
2299.999999999,13.9206642149044,1.00000000124982,0.409330267324152
2399.99999999891,13.3900327957739,1.00000000189619,0.479354903425503
2499.99999999882,12.8941066696056,1.00000000250588,0.558566649051362
2599.99999999873,12.4490070183962,1.00000000148324,0.449831460146271
2699.99999999864,12.0256423913812,1.00000000164209,0.425413157787879
2799.99999999855,11.6099550940416,1.00000000218059,0.52228499248286
2899.99999999846,11.2151524290775,1.00000000249846,0.541401648557013
2999.99999999837,10.8513633483245,1.00000000198307,0.513984763392639
3099.99999999828,10.5523937552774,1.00000000106061,0.390189302213615
3199.99999999819,10.2834597419244,1.0000000021642,0.487228266825591
3299.99999999809,10.0084322463527,1.00000000183732,0.526788511108578
3399.999999998,9.74827885384986,1.00000000197857,0.529413538778558
3499.99999999791,9.47999260341816,1.00000000260997,0.551174251515345
3599.99999999782,9.22858402146198,1.00000000181566,0.520905971642837
3699.99999999773,9.05225514224698,1.00000000126238,0.413843252493478
3799.99999999764,8.94510363620715,1.00000000176809,0.45366588202916
3899.99999999755,8.82134868643592,1.00000000225328,0.526609812515526
3999.99999999746,8.69373130511095,1.00000000214518,0.546483446129278
4099.99999999738,8.55344327934024,1.00000000202955,0.55622189265214
4199.99999999775,8.40527477035079,1.00000000192167,0.562257620845142
4299.99999999811,8.25408964373881,1.000000002239,0.544421321241998
4399.99999999848,8.08799657688798,1.0000000026764,0.568167059915563
4499.99999999884,7.93023309960976,1.00000000180401,0.536748340809356
4599.9999999992,7.84408882621044,1.00000000116927,0.438998229712069
4699.99999999957,7.85429268392028,1.00000000168621,0.443384745607248
4799.99999999993,7.87683997057918,1.00000000217224,0.495697837597701
4900.00000000029,7.87867407790638,1.00000000214051,0.54177628042085
5000.00000000066,7.85932227249016,1.00000000216864,0.563261724293325
5100.00000000102,7.82364220438609,1.00000000226378,0.579680114954891
5200.00000000139,7.78054483017959,1.00000000204606,0.572534452270935
5300.00000000175,7.72747300155214,1.00000000221121,0.572022235423966
5400.00000000211,7.65588721971974,1.00000000217532,0.579286578145944
5500.00000000248,7.575481467534,1.00000000206377,0.586183865214056
5600.00000000284,7.49462782214864,1.00000000204315,0.591800418911648
5700.00000000321,7.40623390996422,1.000000002211,0.586768988212783
5800.00000000357,7.30815515725051,1.00000000267294,0.586851220290964
5900.00000000393,7.20153044600746,1.00000000253707,0.578388227755163
6000.0000000043,7.10071728386218,1.00000000180749,0.547211856393464
6100.00000000466,7.05306151858404,1.00000000138893,0.479546066968407
6200.00000000502,7.10121364285383,1.00000000147232,0.454956237857005
6300.00000000539,7.21878648748576,1.00000000198635,0.481279839607241
6400.00000000575,7.33476850899433,1.00000000225608,0.521044131411709
6500.00000000612,7.43070517877204,1.00000000229636,0.546744637668275
6600.00000000648,7.51151094479524,1.00000000212992,0.568741881127616
6700.00000000684,7.57385270630972,1.00000000236181,0.599043936460662
6800.00000000721,7.60711141791204,1.00000000230113,0.608418839929996
6900.00000000757,7.6233785822632,1.00000000205915,0.626946329416838
7000.00000000793,7.62160544553974,1.00000000239205,0.625918679541051
7100.0000000083,7.60201124564315,1.00000000230209,0.629726193581715
7200.00000000866,7.58067408759786,1.00000000227817,0.621910003144252
7300.00000000903,7.56370793828207,1.00000000197508,0.606161123809339
7400.00000000939,7.54463470833669,1.00000000242093,0.592054362025736
7500.00000000975,7.51212227924928,1.00000000227972,0.607089900799791
7600.00000001012,7.48078026303833,1.00000000206651,0.609858226210477
7700.00000001048,7.45334220463046,1.00000000238135,0.627615336894364
7800.00000001084,7.41898938324394,1.00000000209033,0.628883739876526
7900.00000001121,7.38241166918771,1.00000000235365,0.620269178446863
8000.00000001157,7.34372915165019,1.00000000220457,0.60522399226914
8100.00000001194,7.29792537821579,1.00000000250515,0.628801480456476
8200.0000000123,7.24183497049017,1.00000000222651,0.644790661170572
8300.00000001266,7.179660884832,1.00000000223557,0.634843961702214
8400.00000001303,7.11811236476465,1.00000000214118,0.636392079888279
8500.00000001339,7.0547933812321,1.00000000235236,0.641135805690775
8600.00000001376,6.98951438622889,1.00000000252082,0.649164384691011
8700.00000001412,6.92470891178869,1.00000000266304,0.660381641143275
8800.00000001448,6.85957887172982,1.00000000277019,0.646222003841759
8900.00000001485,6.78962912810002,1.00000000259541,0.625855201313326
9000.00000001521,6.71975716684942,1.00000000216648,0.586887086638665
9100.00000001557,6.67595057888774,1.0000000017399,0.536676458777974
9200.00000001594,6.69442083536331,1.00000000152546,0.493339917766897
9300.0000000163,6.79734090982609,1.00000000175384,0.483367139883973
9400.00000001667,6.97022054232477,1.00000000202117,0.490785416073902
9500.00000001703,7.16718349689757,1.0000000024396,0.518958112664603
9600.00000001739,7.36429556004224,1.0000000024598,0.535058955442343
9700.00000001776,7.54498173882094,1.00000000239856,0.551932489159102
9800.00000001812,7.71243969871784,1.00000000264545,0.570756082549007
9900.00000001848,7.86271470966967,1.0000000025333,0.577893018632052
10000.0000000188,7.99824158294476,1.00000000261988,0.600042877019656
10100.0000000192,8.11069002700334,1.0000000024987,0.618249720893492
10200.0000000196,8.20532350011729,1.00000000255575,0.621478057852971
10300.0000000199,8.28081705558026,1.00000000257608,0.612699147016465
10400.0000000203,8.33836137637098,1.00000000251136,0.639721204766459
10500.0000000207,8.37812826282148,1.00000000263839,0.654257826865928
10600.000000021,8.40662986550449,1.00000000252344,0.65090161598056
10700.0000000214,8.4307307318833,1.00000000236039,0.642278539388465
10800.0000000218,8.45402778277163,1.0000000026998,0.649032177425451
10900.0000000221,8.46361102755633,1.00000000254962,0.648151568636358
11000.0000000225,8.47217084096482,1.00000000245931,0.652858377491031
11100.0000000229,8.47184433023653,1.00000000241346,0.648502930426682
11200.0000000232,8.46304981987564,1.00000000243912,0.655610128216977
11300.0000000236,8.44984201267794,1.00000000256886,0.654766497154988
11400.0000000239,8.43167326987873,1.00000000258771,0.648679584356709
11500.0000000243,8.41087587454116,1.00000000257033,0.66144696717621
11600.0000000247,8.38471440278128,1.00000000248396,0.659671617332341
11700.000000025,8.35783835064304,1.00000000237869,0.655799870954775
11800.0000000254,8.33123599945909,1.00000000259032,0.651109094384795
11900.0000000258,8.30601786372538,1.00000000257856,0.637938085107439
12000.0000000261,8.28854993914824,1.00000000245251,0.61134230615092
12100.0000000265,8.28129601758479,1.00000000233598,0.61876276117944
12200.0000000269,8.28250727206258,1.00000000239115,0.639248713384914
12300.0000000272,8.28737763328427,1.00000000253933,0.637162556488252
12400.0000000276,8.28788433228103,1.00000000280614,0.640354777458082
12500.0000000279,8.28219319889172,1.00000000250559,0.627049361140792
12600.0000000283,8.28329527523799,1.00000000239953,0.625780634373575
12700.0000000287,8.2808182674884,1.0000000026575,0.620730581272572
12800.000000029,8.27586996033753,1.00000000269634,0.628967397680399
12900.0000000294,8.27564668142812,1.00000000241138,0.634184167835623
13000.0000000298,8.2762402224355,1.00000000268979,0.648907366497194
13100.0000000301,8.26978933198155,1.00000000268472,0.636818297259625
13200.0000000305,8.26294397849724,1.0000000025255,0.64599197300544
13300.0000000309,8.26097146345124,1.00000000260298,0.648037226414166
13400.0000000312,8.2609558540106,1.00000000247894,0.644933981479195
13500.0000000316,8.26798417839598,1.00000000259739,0.642201872742865
13600.0000000319,8.27350974506582,1.00000000271128,0.651025373512309
13700.0000000323,8.273203243115,1.00000000280756,0.655615520278941
13800.0000000327,8.26811567452609,1.00000000257723,0.648410103178637
13900.000000033,8.26772328458548,1.00000000277373,0.661461808462067
14000.0000000334,8.26258280509384,1.00000000268594,0.666351786580707
14100.0000000338,8.25600582114211,1.00000000265152,0.663356752676944
14200.0000000341,8.24489599154723,1.00000000281191,0.67403898200177
14300.0000000345,8.23147320844617,1.00000000264812,0.662837519161392
14400.0000000349,8.22397455620117,1.00000000263248,0.664438768311092
14500.0000000352,8.21481574010558,1.00000000268896,0.661992379962088
14600.0000000356,8.20620749581303,1.00000000261818,0.668147204083024
14700.0000000359,8.19724013581437,1.0000000028128,0.654597656582689
14800.0000000363,8.18429913843399,1.00000000298869,0.653462204379644
14900.0000000367,8.16716667384675,1.0000000027488,0.648253106937504
15000.000000037,8.14877945691887,1.00000000267236,0.657924124916612
15100.0000000374,8.13080862965927,1.00000000262216,0.651974546974872
15200.0000000378,8.11473886662386,1.00000000259775,0.659358963726843
15300.0000000381,8.10237112144902,1.00000000258751,0.650782535691089
15400.0000000385,8.08668910663926,1.00000000290214,0.675533441335294
15500.0000000389,8.06149855933729,1.00000000268563,0.669591656424578
15600.0000000392,8.03746307370044,1.00000000251404,0.655324611569999
15700.0000000396,8.01662717385526,1.0000000025117,0.655317569408314
15800.0000000399,7.99246518373519,1.00000000279511,0.667275215439285
15900.0000000403,7.96450940508227,1.00000000282946,0.677421290218392
16000.0000000407,7.93261373135637,1.0000000030957,0.679011960598459
16100.000000041,7.89922895406114,1.00000000256263,0.659035131883485
16200.0000000414,7.86404847505017,1.00000000302111,0.669676044452981
16300.0000000418,7.82547208495296,1.00000000279049,0.667213995778811
16400.0000000418,7.78485787817992,1.00000000250847,0.670649717080049
16500.0000000404,7.74215403073064,1.00000000279623,0.668260462590115
16600.0000000389,7.69945582294143,1.00000000269155,0.668204272108473
16700.0000000375,7.65669836521356,1.00000000309175,0.665683864959574
16800.000000036,7.61440643413117,1.0000000024979,0.657280134311436
16900.0000000346,7.57342813780529,1.00000000286924,0.651749348937658
17000.0000000331,7.53431398139632,1.00000000280384,0.653201524874607
17100.0000000317,7.49832657630197,1.00000000304512,0.649028765275104
17200.0000000302,7.46593544279738,1.00000000338297,0.654287902206897
17300.0000000287,7.43704438081317,1.00000000306086,0.669558224270106
17400.0000000273,7.41497978403329,1.000000002762,0.669886685658087
17500.0000000258,7.39405829198954,1.00000000339998,0.683994410687964
17600.0000000244,7.37828871788635,1.00000000293317,0.67937051651674
17700.0000000229,7.35711697494013,1.00000000314128,0.669339030049907
17800.0000000215,7.3342777844499,1.00000000324162,0.655532244204868
17900.00000002,7.30069439760811,1.00000000301308,0.633541583291327
18000.0000000186,7.26184610415177,1.00000000271613,0.609002777414114
18100.0000000171,7.22594014617377,1.00000000243327,0.596558403666091
18200.0000000156,7.20502412650765,1.000000002501,0.574329070585797
18300.0000000142,7.2209807480697,1.00000000205695,0.556766534706975
18400.0000000127,7.29065480282805,1.0000000022141,0.53157641574174
18500.0000000113,7.43502104716912,1.00000000212303,0.527020520394622
18600.0000000098,7.64881132024304,1.00000000233298,0.525111200872908
18700.0000000084,7.94185501247014,1.00000000242326,0.53386050732283
18800.0000000069,8.27172114939429,1.00000000306599,0.535970954222817
18900.0000000055,8.65278245262604,1.00000000284077,0.542945707452473
19000.000000004,9.02429466359156,1.00000000308479,0.547926247623122
19100.0000000026,9.42271268892563,1.00000000339836,0.554732615571554
19200.0000000011,9.80033066346524,1.00000000298083,0.562988983503184
19299.9999999996,10.1799160638247,1.00000000303119,0.568630006370891
19399.9999999982,10.5458128944421,1.00000000300543,0.5768250334154
19499.9999999967,10.8984129635248,1.00000000311288,0.57736217947024
19599.9999999953,11.2539859710352,1.00000000302396,0.579977961067765
19699.9999999938,11.5966640284576,1.00000000304727,0.593725559296919
19799.9999999924,11.94558952185,1.00000000313996,0.60049426188085
19899.9999999909,12.2788092560225,1.00000000299599,0.613717737848941
19999.9999999895,12.6063271457817,1.00000000342802,0.625575643874571
20099.999999988,12.9184741277774,1.00000000318537,0.639402571480028
20199.9999999865,13.2145416385843,1.00000000308684,0.640592286927941
20299.9999999851,13.5011995874933,1.0000000032564,0.647914066290607
20399.9999999836,13.7601236383482,1.00000000306595,0.649369788255554
20499.9999999822,14.0152390917607,1.00000000321447,0.655088427997693
20599.9999999807,14.2355179766975,1.00000000357375,0.651630571399797
20699.9999999793,14.4394317536704,1.00000000279781,0.667672495911112
20799.9999999778,14.6244610921305,1.00000000318576,0.668310265661373
20899.9999999764,14.8025194803375,1.0000000032639,0.669481244102297
20999.9999999749,14.9711954195369,1.00000000288805,0.66394287012841
21099.9999999734,15.1156006782455,1.00000000348945,0.667020445222479
21199.999999972,15.2519913032322,1.00000000327009,0.680644740216225
21299.9999999705,15.3709340092974,1.00000000314478,0.681625412670425
21399.9999999691,15.4887233565857,1.00000000318407,0.68927415170973
21499.9999999676,15.6075864978891,1.00000000289554,0.686204481962933
21599.9999999662,15.725269357051,1.00000000320143,0.6946267013459
21699.9999999647,15.8251723978288,1.00000000360983,0.696213833802106
21799.9999999633,15.905815372399,1.00000000332636,0.699887184321954
21899.9999999618,15.9876670868175,1.00000000302291,0.694866779343773
21999.9999999603,16.0738683352356,1.00000000303108,0.68528115088348
22099.9999999589,16.1725527171055,1.00000000332205,0.681534185504597
22199.9999999574,16.2620886527596,1.00000000316086,0.684537524788991
22299.999999956,16.3356248683612,1.0000000035609,0.676183009373949
22399.9999999545,16.4012330316463,1.00000000329065,0.69194217625986
22499.9999999531,16.4643743325593,1.00000000320988,0.684407458791816
22599.9999999516,16.5360209209866,1.00000000309998,0.680230554350923
22699.9999999502,16.6088699095143,1.00000000330741,0.690371837945968
22799.9999999487,16.6780753721013,1.00000000315765,0.697307228322364
22899.9999999473,16.7357859766645,1.00000000355031,0.6876904442228
22999.9999999458,16.7891069399072,1.00000000330307,0.692387766608646
23099.9999999443,16.8415555820144,1.00000000336898,0.695748361251737
23199.9999999429,16.8901943142514,1.00000000297907,0.687862240212895
23299.9999999414,16.9458739081071,1.00000000311235,0.658771821491095
23399.99999994,16.9962094206153,1.00000000343201,0.684640554262486
23499.9999999385,17.0399342852476,1.00000000355867,0.693877732947372
23599.9999999371,17.0790369634292,1.00000000329883,0.682701610403783
23699.9999999356,17.1224955464645,1.00000000282683,0.67085218378099
23799.9999999342,17.1687989222324,1.00000000347834,0.688578302648171
23899.9999999327,17.2151958387509,1.00000000333557,0.687878153644929
23999.9999999312,17.2659257210087,1.00000000310671,0.673190771536642
24099.9999999298,17.3214310106621,1.00000000317379,0.674319382618319
24199.9999999283,17.3792992370464,1.00000000324641,0.68183599863368
24299.9999999269,17.4351572023845,1.0000000036907,0.684814206118823
24399.9999999254,17.4841490151392,1.00000000336804,0.68906509473207
24499.999999924,17.5325947017103,1.00000000337183,0.676418173805653
24599.9999999225,17.5717975168416,1.00000000344994,0.673740304799733
24699.9999999211,17.6099260206881,1.00000000314747,0.670955566864438
24799.9999999196,17.6519541847079,1.00000000329248,0.653059751956706
24899.9999999181,17.6980007605404,1.00000000348662,0.648317066391508
24999.9999999167,17.7499195786492,1.00000000389438,0.670933241176531
25099.9999999152,17.8026211879384,1.00000000351256,0.680530406949383
25199.9999999138,17.8570835788371,1.00000000358875,0.681199775606795
25299.9999999123,17.9092289187573,1.00000000339958,0.678667307046692
25399.9999999109,17.9601175444418,1.00000000352753,0.690122193185874
25499.9999999094,18.0023514554607,1.00000000388239,0.688454095086564
25599.999999908,18.0394357250975,1.00000000336403,0.668096841611911
25699.9999999065,18.0781057915033,1.00000000327736,0.681440333657149
25799.9999999051,18.1195357313306,1.00000000344639,0.67623369637827
25899.9999999036,18.1656282968083,1.00000000340491,0.678210283591552
25999.9999999021,18.2084675888552,1.00000000342377,0.700905156495462
26099.9999999007,18.2449483404684,1.00000000396211,0.69987637974171
26199.9999998992,18.2741527128288,1.00000000381355,0.702262295819455
26299.9999998978,18.2983930143155,1.00000000343518,0.686271540736263
26399.9999998963,18.3242193905316,1.00000000347118,0.703333035678451
26499.9999998949,18.3519624525754,1.00000000351162,0.700022001790301
26599.9999998934,18.3892327911526,1.00000000334858,0.69028146644921
26699.999999892,18.435742670517,1.00000000404358,0.674055664841327
26799.9999998905,18.4905453184305,1.00000000345948,0.677870858361661
26899.999999889,18.5576743967532,1.00000000361891,0.685754807354601
26999.9999998876,18.6305151570864,1.00000000337519,0.695613297978768
27099.9999998861,18.7041857142118,1.000000004273,0.691672000861833
27199.9999998847,18.7766847986137,1.00000000404113,0.697753646987987
27299.9999998832,18.8497645464517,1.000000003537,0.679931714234131
27399.9999998818,18.9267009169614,1.00000000371428,0.686367875230307
27499.9999998803,19.0003359511622,1.00000000381482,0.684222606797308
27599.9999998789,19.070383713176,1.00000000382076,0.68599465988153
27699.9999998774,19.140009104622,1.00000000343056,0.692093573867659
27799.9999998759,19.213760737157,1.00000000377005,0.691353727867133
27899.9999998745,19.2910968576672,1.00000000339666,0.693525622422328
27999.999999873,19.3711487275292,1.0000000032033,0.6884515626553
28099.9999998716,19.4512492678536,1.00000000329304,0.689813975096264
28199.9999998701,19.5362736711384,1.0000000033989,0.682003578538983
28299.9999998687,19.6312091984046,1.00000000352912,0.680197626886933
28399.9999998672,19.7287079441822,1.00000000372672,0.680356532798728
28499.9999998658,19.8187313288297,1.00000000435611,0.687001454223238
28599.9999998643,19.9025080305296,1.000000003796,0.678129733410785
28699.9999998629,19.9892891480775,1.00000000376356,0.684462772423965
28799.9999998614,20.0790636306513,1.00000000371667,0.675509718152145
28899.9999998599,20.1653190535186,1.00000000367042,0.670759980174225
28999.9999998585,20.244233135278,1.00000000391327,0.687063363291796
29099.999999857,20.3161227716198,1.00000000393789,0.69921639440841
