Time,AGPnorm,Energy,Entropy
0,0,1,-7.41822051812008e-17
99.9999999999986,0.000822805502831036,0.999999999999521,0.00284284184710119
199.999999999993,0.0054400527661231,0.999999999998237,0.00841325658289654
300,0.0114580177320541,0.99999999999848,0.0155398016815108
400.000000000022,0.01731352113544,0.999999999999782,0.024493947294601
500.000000000045,0.0243891782710053,0.999999999999728,0.0354405878554896
600.000000000068,0.033992491704955,0.999999999998541,0.0479594567004139
700.000000000091,0.0443784865317259,0.999999999998298,0.0616454037751089
800.000000000113,0.0546482470788022,0.999999999999503,0.0768118442872152
900.000000000136,0.0658033815160917,0.999999999999894,0.0939579884726355
1000.00000000016,0.0783038502827821,0.999999999998861,0.11320813074031
1100.0000000001,0.0906155216096224,0.999999999998588,0.134779880842553
1200,0.103013337006055,1.00000000000072,0.159477043866181
1299.99999999991,0.115045904731402,1.0000000000079,0.188769212184661
1399.99999999982,0.126338572255985,1.00000000003203,0.223596355936201
1499.99999999973,0.139157756450368,1.00000000009093,0.262569947251299
1599.99999999964,0.170046675431346,1.00000000019249,0.3027595542064
1699.99999999955,0.230398528741304,1.00000000033559,0.341156392672514
1799.99999999946,0.344315358941747,1.00000000046587,0.376187373460931
1899.99999999937,0.58386451428963,1.00000000059439,0.407377202506546
1999.99999999928,1.0401897880412,1.0000000007301,0.434189365321696
2099.99999999919,1.76410793746119,1.00000000083186,0.45778253003264
2199.99999999909,2.80120365167117,1.00000000095185,0.478294528687086
2299.999999999,4.22942210784811,1.0000000010551,0.495849488968712
2399.99999999891,6.10455253549575,1.00000000107431,0.510386174658375
2499.99999999882,8.42005217150659,1.0000000010666,0.523068174332834
2599.99999999873,11.1581252024408,1.00000000112925,0.533534759572202
2699.99999999864,14.3195920028963,1.00000000120591,0.542330107678686
2799.99999999855,17.8858995418278,1.00000000127129,0.548735765340164
2899.99999999846,21.7849767248522,1.000000001184,0.55454828849613
2999.99999999837,25.9529410867344,1.00000000113122,0.559153745265169
3099.99999999828,30.351083521822,1.00000000110436,0.56252570055211
3199.99999999819,34.9286254985933,1.00000000117068,0.564423782318252
3299.99999999809,39.6069655984577,1.00000000110115,0.566439331369149
3399.999999998,44.3131406717002,1.00000000110118,0.567245578319117
3499.99999999791,49.0067810780472,1.0000000010974,0.567469004190375
3599.99999999782,53.6493654272194,1.00000000110777,0.567150618526377
3699.99999999773,58.1872960830092,1.0000000010713,0.565587215517822
3799.99999999764,62.5651710804572,1.00000000102966,0.565294103704912
3899.99999999755,66.749951720731,1.00000000097564,0.565367973120655
3999.99999999746,70.724232881201,1.00000000095928,0.563307586783779
4099.99999999738,74.469323129028,1.00000000092532,0.560301612897617
4199.99999999775,77.9537770132005,1.00000000088106,0.560812540884063
4299.99999999811,81.155763714207,1.00000000089133,0.558285629153621
4399.99999999848,84.0843858682444,1.00000000085684,0.555584892250385
4499.99999999884,86.7338417832996,1.000000000842,0.555170438206758
4599.9999999992,89.101953934934,1.0000000008239,0.551675283030027
4699.99999999957,91.1810427134518,1.00000000080594,0.550233007397995
4799.99999999993,92.9784963960604,1.00000000078103,0.551629062987722
4900.00000000029,94.5117187324665,1.00000000075516,0.546527424804892
5000.00000000066,95.7802308865769,1.00000000070246,0.542257589282548
5100.00000000102,96.8029364571353,1.00000000071607,0.552662924183351
5200.00000000139,97.5965727713332,1.00000000070481,0.542600559188662
5300.00000000175,98.1503036456803,1.00000000063683,0.533265187139674
5400.00000000211,98.49726418897,1.00000000069079,0.554734953296724
5500.00000000248,98.6913681431242,1.00000000065516,0.549095513276019
5600.00000000284,98.6917240597488,1.00000000054268,0.518718210186398
5700.00000000321,98.4930478907834,1.0000000006185,0.541008580188422
5800.00000000357,98.2001493702881,1.00000000079073,0.5663053486725
5900.00000000393,97.8256564307494,1.00000000062509,0.530861416743555
6000.0000000043,97.2864845472736,1.00000000045225,0.496161482933268
6100.00000000466,96.6170762700395,1.00000000069134,0.546397767218686
6200.00000000502,95.9345229174677,1.00000000087602,0.572663707522399
6300.00000000539,95.2339713891265,1.00000000065665,0.526063145960931
6400.00000000575,94.4192565685132,1.00000000040362,0.468992373907779
6500.00000000612,93.4976001661809,1.00000000066752,0.517421684571282
6600.00000000648,92.5805220887503,1.0000000009459,0.573796221221691
6700.00000000684,91.710158233282,1.0000000008641,0.556815095012017
6800.00000000721,90.8165839550833,1.00000000050471,0.476987916683038
6900.00000000757,89.8331174871066,1.00000000036946,0.442179216603603
7000.00000000793,88.8016225505247,1.00000000070288,0.517474611147457
7100.0000000083,87.8045844042286,1.00000000100841,0.572659876579237
7200.00000000866,86.8686352335484,1.00000000090028,0.556490877959866
7300.00000000903,85.9447301200937,1.00000000060577,0.483644569037061
7400.00000000939,84.9749032715953,1.0000000003811,0.417961220181205
7500.00000000975,83.9614821687247,1.00000000052011,0.452745871207996
7600.00000001012,82.9538175510356,1.00000000084476,0.534034055194086
7700.00000001048,81.9919653364339,1.00000000097271,0.561183920749226
7800.00000001084,81.0787367629379,1.00000000083319,0.541539842464171
7900.00000001121,80.1818588493246,1.00000000063489,0.482598709929081
8000.00000001157,79.2696373522703,1.00000000043223,0.41857089218888
8100.00000001194,78.3405985350965,1.00000000046143,0.424622976295306
8200.0000000123,77.4141093416172,1.00000000064918,0.481070708179305
8300.00000001266,76.5091152336304,1.00000000087747,0.532145928080359
8400.00000001303,75.6361487705007,1.00000000091818,0.547303604218842
8500.00000001339,74.7935972831593,1.00000000081476,0.532374310662903
8600.00000001376,73.9676175156054,1.00000000063133,0.484374861313468
8700.00000001412,73.147824395631,1.00000000050535,0.443616161274605
8800.00000001448,72.3366182416657,1.00000000049408,0.429537392413667
8900.00000001485,71.5378313840522,1.00000000053076,0.453402634165845
9000.00000001521,70.7532178865919,1.00000000065833,0.485863158505878
9100.00000001557,69.9843568279872,1.00000000081414,0.516275884603336
9200.00000001594,69.2318460845753,1.00000000084412,0.529380808641167
9300.0000000163,68.4958732590989,1.00000000086128,0.53609274592968
9400.00000001667,67.7760690061993,1.00000000068592,0.515833827437842
9500.00000001703,67.0721968704917,1.00000000053991,0.469053050495805
9600.00000001739,66.3875968393995,1.00000000050013,0.447691520615207
9700.00000001776,65.7250795386735,1.00000000057217,0.449788402328768
9800.00000001812,65.0820594922427,1.00000000063131,0.475433945840568
9900.00000001848,64.4553688438195,1.00000000062882,0.485848424363036
10000.0000000188,63.8443403044649,1.00000000062012,0.489811656970813
10100.0000000192,63.2485102957684,1.00000000063998,0.502523112909415
10200.0000000196,62.6619991347653,1.00000000073853,0.517262530473818
10300.0000000199,62.0779921282084,1.0000000008512,0.534840718125521
10400.0000000203,61.4985542097699,1.00000000081956,0.533606008667228
10500.0000000207,60.9326898033166,1.0000000006432,0.500433489985206
10600.000000021,60.3919389551799,1.00000000048714,0.457877872552548
10700.0000000214,59.8803714970909,1.00000000053427,0.448354458425239
10800.0000000218,59.3922856745301,1.00000000073804,0.461524435850319
10900.0000000221,58.9168236848678,1.00000000075736,0.478277731251121
11000.0000000225,58.4488143196514,1.00000000072139,0.498457379620562
11100.0000000229,57.9918811868864,1.00000000065629,0.497011584439957
11200.0000000232,57.5518513559627,1.00000000057746,0.486499713390946
11300.0000000236,57.1282921388057,1.000000000616,0.496354164823647
11400.0000000239,56.7128737784481,1.00000000072237,0.512182891819773
11500.0000000243,56.294651540833,1.00000000086375,0.527757346500978
11600.0000000247,55.8678479720609,1.0000000009322,0.539171481844245
11700.000000025,55.4394631647894,1.00000000078822,0.534045442795749
11800.0000000254,55.0213914274742,1.00000000065535,0.50880595296848
11900.0000000258,54.626159473371,1.00000000053737,0.474206264930641
12000.0000000261,54.2612769685377,1.00000000049681,0.460024569285446
12100.0000000265,53.9247997082351,1.00000000056319,0.460403492214384
12200.0000000269,53.6071352831776,1.00000000063235,0.474282927465708
12300.0000000272,53.2962687330712,1.00000000070736,0.487564505439803
12400.0000000276,52.9879982364982,1.00000000073378,0.493274312888009
12500.0000000279,52.6844781110829,1.00000000069752,0.502950688563881
12600.0000000283,52.3882590855897,1.00000000066659,0.511215871013084
12700.0000000287,52.1010592626301,1.00000000066452,0.514966474374456
12800.000000029,51.8212876294691,1.00000000064368,0.521925110515384
12900.0000000294,51.5465606528698,1.00000000063665,0.526180492090694
13000.0000000298,51.2739926659589,1.00000000070728,0.52511488010242
13100.0000000301,51.0005102591566,1.00000000073318,0.523860041523687
13200.0000000305,50.721754606325,1.00000000082202,0.53276106346382
13300.0000000309,50.4350873741149,1.00000000079569,0.544403433291917
13400.0000000312,50.1462803762144,1.00000000073952,0.539677792002055
13500.0000000316,49.8692476398399,1.00000000061505,0.518608558452543
13600.0000000319,49.6166075691824,1.00000000055691,0.492532263635278
13700.0000000323,49.3923968769484,1.00000000057165,0.474867840016392
13800.0000000327,49.1918162686465,1.00000000060704,0.484497650182665
13900.000000033,49.0058535438834,1.00000000069206,0.488288683141535
14000.0000000334,48.8294356328785,1.00000000071607,0.485181347904802
14100.0000000338,48.6591420585854,1.00000000071261,0.493735558752421
14200.0000000341,48.4947743989055,1.00000000066776,0.502068981205589
14300.0000000345,48.3417278377266,1.00000000059713,0.498370008553589
14400.0000000349,48.2010209009477,1.00000000063965,0.502819260497597
14500.0000000352,48.0627776389475,1.00000000071552,0.517854963875646
14600.0000000356,47.9154307860034,1.0000000007815,0.534510824271017
14700.0000000359,47.7534716267399,1.00000000074944,0.544324868948434
14800.0000000363,47.5801468793603,1.00000000071871,0.547973364109148
14900.0000000367,47.4023764277716,1.0000000006793,0.550017402868084
15000.000000037,47.2277061226108,1.00000000060863,0.538513131480922
15100.0000000374,47.0616308050533,1.00000000058759,0.527794532752211
15200.0000000378,46.9013317505671,1.00000000066525,0.523016807035326
15300.0000000381,46.7404078623795,1.00000000076993,0.525054062732954
15400.0000000385,46.5726816062729,1.00000000081786,0.536643260611286
15500.0000000389,46.3951657823534,1.00000000083223,0.549973960259988
15600.0000000392,46.2120447052088,1.00000000074574,0.551783392051362
15700.0000000396,46.0333243205679,1.00000000062061,0.538673788563974
15800.0000000399,45.8706189904448,1.00000000055924,0.521643400366725
15900.0000000403,45.7317529537408,1.00000000053084,0.506057741552447
16000.0000000407,45.6177004103236,1.00000000054388,0.492751942379485
16100.000000041,45.5251133866792,1.0000000005777,0.491786744223979
16200.0000000414,45.4467961372239,1.00000000065695,0.495179574513122
16300.0000000418,45.3724713048903,1.00000000067462,0.497411654781468
16400.0000000418,45.2998744322611,1.00000000069093,0.497855259493115
16500.0000000404,45.2331707296563,1.00000000068057,0.495695690838942
16600.0000000389,45.1739256997522,1.00000000068496,0.504238006540085
16700.0000000375,45.1181798928727,1.00000000070101,0.517512720997475
16800.000000036,45.0638688478306,1.00000000068058,0.531775300455056
16900.0000000346,45.0133337522689,1.00000000064688,0.537110306516021
17000.0000000331,44.9688504490155,1.00000000061706,0.539468326346646
17100.0000000317,44.9297539953813,1.00000000064981,0.543566097490465
17200.0000000302,44.8909625744825,1.00000000066567,0.542503775653674
17300.0000000287,44.8433441595348,1.000000000764,0.547880756996379
17400.0000000273,44.7811164291686,1.00000000077995,0.55303282674179
17500.0000000258,44.7010222172919,1.00000000077395,0.549221830902857
17600.0000000244,44.6037929216019,1.00000000074018,0.548886785396023
17700.0000000229,44.4948984095551,1.00000000074484,0.564359770286953
17800.0000000215,44.3798359017208,1.00000000071537,0.573940982724956
17900.00000002,44.2634988544509,1.00000000061613,0.565612844818101
18000.0000000186,44.1507449086007,1.00000000060099,0.558505396315062
18100.0000000171,44.0450150720607,1.00000000062569,0.555770920033139
18200.0000000156,43.945583647556,1.0000000006391,0.550177892386762
18300.0000000142,43.8492569121303,1.00000000069587,0.547906901748825
18400.0000000127,43.7520260361191,1.00000000071802,0.55091692143619
18500.0000000113,43.6504050469372,1.00000000075966,0.559509493089469
18600.0000000098,43.5422859776908,1.00000000086973,0.566250831515954
18700.0000000084,43.4279467071411,1.00000000081019,0.569203127873831
18800.0000000069,43.3142616047184,1.00000000068162,0.565050983935004
18900.0000000055,43.21092528529,1.00000000061463,0.551069327741282
19000.000000004,43.1248997355096,1.00000000059364,0.538392190797257
19100.0000000026,43.0597076682502,1.0000000005634,0.528106317017773
19200.0000000011,43.0163822704453,1.00000000056718,0.515390102650322
19299.9999999996,42.9898427707022,1.00000000064511,0.508093378310903
19399.9999999982,42.9719682832009,1.00000000071874,0.512360698232875
19499.9999999967,42.9593969376107,1.0000000006938,0.517529369554196
19599.9999999953,42.9536095684349,1.00000000066662,0.510457432602942
19699.9999999938,42.9534189094207,1.00000000069135,0.507315027465272
19799.9999999924,42.9554670661462,1.00000000067279,0.508795877862285
19899.9999999909,42.9605663953767,1.00000000066591,0.511676196097181
19999.9999999895,42.9723262079659,1.00000000062626,0.50595971370659
20099.999999988,42.9922294335751,1.00000000060264,0.506790545151845
20199.9999999865,43.0169103479084,1.00000000065836,0.524182000090777
20299.9999999851,43.0387687546174,1.00000000072434,0.544345246762064
20399.9999999836,43.0526932728767,1.00000000073617,0.552136596069143
20499.9999999822,43.056960395667,1.00000000074148,0.558564218969952
20599.9999999807,43.0553918242623,1.00000000072091,0.56666489025401
20699.9999999793,43.0538396077823,1.00000000067855,0.568467144370519
20799.9999999778,43.0536370538784,1.00000000070872,0.56603055839421
20899.9999999764,43.0510058000151,1.00000000070943,0.568424766996795
20999.9999999749,43.0440110074374,1.00000000069456,0.582407243477447
21099.9999999734,43.0334010583413,1.00000000071611,0.589616881336667
21199.999999972,43.0198712888597,1.00000000067212,0.588020611064401
21299.9999999705,42.9996919354463,1.00000000069177,0.586463852355485
21399.9999999691,42.9705068628819,1.00000000069322,0.582214212924263
21499.9999999676,42.9330111864215,1.00000000070134,0.577984970505886
21599.9999999662,42.8870640182607,1.0000000007168,0.570552385377587
21699.9999999647,42.8322896817995,1.00000000074734,0.557557393167203
21799.9999999633,42.7693668193622,1.00000000075294,0.556186621524545
21899.9999999618,42.6969822144956,1.00000000079867,0.570388202441852
21999.9999999603,42.6155523526286,1.00000000084333,0.582837073166259
22099.9999999589,42.526795196923,1.00000000078221,0.583346303084583
22199.9999999574,42.4346644196296,1.00000000070799,0.582123695977476
22299.999999956,42.3436759298114,1.00000000065455,0.580180338201933
22399.9999999545,42.2560873448454,1.00000000062417,0.582309643923739
22499.9999999531,42.1729007997348,1.00000000061345,0.584207483122913
22599.9999999516,42.0942893348502,1.00000000061058,0.584909896051124
22699.9999999502,42.0191574281859,1.0000000006534,0.580629140696203
22799.9999999487,41.9476077023487,1.0000000007046,0.58071472810291
22899.9999999473,41.8771832194601,1.00000000070179,0.582874026069649
22999.9999999458,41.8066706149357,1.00000000077637,0.580038238876187
23099.9999999443,41.7341925081222,1.00000000077552,0.573856335912691
23199.9999999429,41.6586456274748,1.00000000078816,0.568101453146597
23299.9999999414,41.5794157523173,1.00000000078375,0.567455868663301
23399.99999994,41.4971342177852,1.00000000076006,0.564321723569434
23499.9999999385,41.4163751639738,1.00000000069827,0.562328887680622
23599.9999999371,41.3431401703392,1.00000000064072,0.559533857785576
23699.9999999356,41.2825550642357,1.00000000060771,0.558191332282973
23799.9999999342,41.2379992786622,1.00000000060037,0.548125069906258
23899.9999999327,41.2106063313197,1.00000000061129,0.541676174777084
23999.9999999312,41.1992046812028,1.00000000060999,0.535512017147501
24099.9999999298,41.2012505536015,1.0000000006522,0.52833409513242
24199.9999999283,41.2123137203007,1.00000000067475,0.526341408186938
24299.9999999269,41.2304705273883,1.00000000065075,0.52731662460517
24399.9999999254,41.2548073564063,1.00000000067949,0.523701768487692
24499.999999924,41.284605334137,1.00000000067392,0.521896750857805
24599.9999999225,41.3167219825504,1.0000000006921,0.522636214863522
24699.9999999211,41.3522119567916,1.00000000069735,0.523590707304773
24799.9999999196,41.394262297376,1.00000000065299,0.519663342880158
24899.9999999181,41.4435672149734,1.0000000006409,0.514316326914509
24999.9999999167,41.498570202578,1.00000000067251,0.515599952990444
25099.9999999152,41.5547652260865,1.00000000071537,0.520621632416693
25199.9999999138,41.6076376446225,1.00000000076786,0.53005646670623
25299.9999999123,41.6555713909346,1.00000000078199,0.53946535796286
25399.9999999109,41.6983867973087,1.0000000007295,0.548710322925035
25499.9999999094,41.7386944576126,1.0000000007509,0.560938667623717
25599.999999908,41.7760888546957,1.00000000070045,0.564786922821155
25699.9999999065,41.8110002499865,1.00000000069706,0.570473593740353
25799.9999999051,41.8418742759661,1.00000000068228,0.574307360832761
25899.9999999036,41.8692628715533,1.00000000070486,0.578168320042135
25999.9999999021,41.8934504118149,1.00000000066576,0.581608297178499
26099.9999999007,41.9150648439934,1.00000000068433,0.581612272605694
26199.9999998992,41.9332279115379,1.00000000067022,0.585088660061549
26299.9999998978,41.9464482771107,1.00000000068502,0.586134787418661
26399.9999998963,41.9542938947798,1.00000000073591,0.587910229859394
26499.9999998949,41.9565370265868,1.00000000075558,0.585861079695036
26599.9999998934,41.9540893871456,1.00000000069524,0.582753195322405
26699.999999892,41.9496625564235,1.00000000068935,0.586637626589445
26799.9999998905,41.9450609112543,1.00000000065875,0.587499326371746
26899.999999889,41.9402311429186,1.00000000068545,0.580469399343715
26999.9999998876,41.9340016083982,1.0000000006963,0.581962192000874
27099.9999998861,41.9240277933803,1.00000000072393,0.582829284739448
27199.9999998847,41.9093560367828,1.00000000072056,0.585765824798935
27299.9999998832,41.8905753754414,1.00000000071074,0.580092173952568
27399.9999998818,41.869353063014,1.00000000068367,0.574671364865819
27499.9999998803,41.8456511232368,1.00000000072512,0.571900444351386
27599.9999998789,41.8189197055584,1.00000000072192,0.568741270888589
27699.9999998774,41.7886345465757,1.00000000071848,0.569732391544241
27799.9999998759,41.7530357720393,1.00000000074555,0.578882614238269
27899.9999998745,41.7127024268219,1.00000000074589,0.582846355230781
27999.999999873,41.6688566081409,1.00000000070994,0.590881686551123
28099.9999998716,41.6218065918792,1.00000000072702,0.595356382878308
28199.9999998701,41.5740193275942,1.00000000064679,0.590135370381935
28299.9999998687,41.5270999055111,1.00000000069117,0.588781005322364
28399.9999998672,41.4800989183026,1.00000000067538,0.589569218329104
28499.9999998658,41.4328749525458,1.00000000070064,0.588319071391338
28599.9999998643,41.3860810165588,1.00000000068343,0.579763676033067
28699.9999998629,41.3389946619844,1.00000000071024,0.575225199698612
28799.9999998614,41.2893832999886,1.00000000072398,0.576021524036055
28899.9999998599,41.2355565226278,1.00000000076051,0.579820955882228
28999.9999998585,41.1768673758088,1.00000000075583,0.583108612658207
