Time,AGPnorm,Energy,Entropy
0,0,1,5.68608204427147e-18
99.9999999999986,0.0054762877162764,1.00000000000024,0.0171579517336642
199.999999999993,0.0157823905731123,0.999999999999563,0.0489166112466591
300,0.0320400420553132,1.00000000000101,0.0964783700757812
400.000000000022,0.0485811112378788,1.00000000000349,0.159102523416053
500.000000000045,0.0639339708431433,1.00000000009209,0.249820502768164
600.000000000068,0.11896983397626,1.0000000005735,0.361953047075262
700.000000000091,0.334183856707859,1.00000000126183,0.457150861020804
800.000000000113,1.12918169320962,1.00000000174153,0.517610799039167
900.000000000136,2.67125460047231,1.00000000211274,0.552091748707304
1000.00000000016,5.04488967509083,1.0000000022125,0.568140407389431
1100.0000000001,8.01492528275607,1.00000000223802,0.573670874460921
1200,11.300781980455,1.00000000225313,0.571551803426594
1299.99999999991,14.597157991227,1.00000000206476,0.568552312098786
1399.99999999982,17.6534326320297,1.0000000019055,0.560865294313224
1499.99999999973,20.2950172132385,1.00000000174731,0.549635273742197
1599.99999999964,22.4310553787737,1.00000000167127,0.545663414380372
1699.99999999955,24.0221183062236,1.00000000149467,0.535897627793948
1799.99999999946,25.118547852388,1.00000000152491,0.53222974720337
1899.99999999937,25.7003921134295,1.00000000133357,0.531529672027755
1999.99999999928,25.9553081820044,1.00000000127324,0.523103190433833
2099.99999999919,25.7936165836752,1.0000000011698,0.506623427018732
2199.99999999909,25.5159999354928,1.00000000153117,0.560774266473128
2299.999999999,25.0233770571127,1.00000000070983,0.417544117014767
2399.99999999891,24.3833856462716,1.00000000170458,0.562090268206569
2499.99999999882,23.828236730717,1.00000000149683,0.532196221292254
2599.99999999873,23.1541958235774,1.00000000057822,0.363415091783121
2699.99999999864,22.4135816703069,1.00000000163359,0.52351191208757
2799.99999999855,21.7686518098279,1.00000000167088,0.572472117636509
2899.99999999846,21.1701375729171,1.00000000108164,0.430873166622562
2999.99999999837,20.5313667871666,1.00000000076852,0.357786918569959
3099.99999999828,19.8911102561939,1.00000000146313,0.506897239412195
3199.99999999819,19.2876318238301,1.00000000177328,0.542328322257038
3299.99999999809,18.7478392508421,1.00000000160173,0.558036268908754
3399.999999998,18.2346075721525,1.00000000074247,0.398553375453423
3499.99999999791,17.7665746053428,1.00000000086658,0.357783295229168
3599.99999999782,17.328919925286,1.00000000139524,0.485814192925502
3699.99999999773,16.8892684551927,1.0000000013325,0.535522794693845
3799.99999999764,16.4657634382236,1.00000000145397,0.508987493472544
3899.99999999755,16.0463767366141,1.00000000191031,0.572147909103639
3999.99999999746,15.6529995138559,1.00000000129745,0.526659840746768
4099.99999999738,15.3140007818109,1.00000000066033,0.380075126300362
4199.99999999775,15.080502971,1.00000000089382,0.358175483864977
4299.99999999811,14.892903091563,1.00000000136085,0.468662648804392
4399.99999999848,14.6794247841116,1.0000000015061,0.528568112479687
4499.99999999884,14.4359692704166,1.00000000148967,0.546601830732792
4599.9999999992,14.1990824010312,1.00000000107819,0.5215615164558
4699.99999999957,13.9651437621144,1.00000000133077,0.524926210400928
4799.99999999993,13.7092294428206,1.00000000175459,0.538533033574229
4900.00000000029,13.4401486392032,1.00000000177976,0.582758819048297
5000.00000000066,13.1822004669917,1.00000000126578,0.536467281163332
5100.00000000102,12.9809518060855,1.00000000067279,0.411976673178141
5200.00000000139,12.9006263649246,1.00000000072611,0.361617110656448
5300.00000000175,12.9258038450463,1.00000000111452,0.39847449033547
5400.00000000211,12.9625446587057,1.00000000151937,0.483332386380938
5500.00000000248,12.9467572384767,1.00000000152656,0.537729921948879
5600.00000000284,12.9090685768657,1.00000000130319,0.532578408926777
5700.00000000321,12.8507299518406,1.00000000144805,0.549031419142757
5800.00000000357,12.757236382794,1.00000000156413,0.555677463262799
5900.00000000393,12.6449176821371,1.00000000130489,0.529630204239991
6000.0000000043,12.5261518417574,1.00000000129058,0.552722768835696
6100.00000000466,12.4072959510366,1.00000000112162,0.543695341938726
6200.00000000502,12.2918330059477,1.00000000120276,0.549908698728154
6300.00000000539,12.158476441755,1.00000000145432,0.558918705853772
6400.00000000575,12.0049979833503,1.00000000165931,0.556728358589128
6500.00000000612,11.8364258130724,1.00000000187181,0.574168634614429
6600.00000000648,11.663822154772,1.00000000155189,0.578298746156363
6700.00000000684,11.5037491735516,1.00000000107014,0.513508420298254
6800.00000000721,11.3987498312102,1.00000000070904,0.430169499122133
6900.00000000757,11.4080587860379,1.00000000065092,0.375831182761815
7000.00000000793,11.544691650805,1.00000000097036,0.391345928433106
7100.0000000083,11.7565292331733,1.00000000126902,0.426908747734054
7200.00000000866,11.958469186136,1.00000000152144,0.485331615290243
7300.00000000903,12.126024074365,1.00000000148082,0.521226571441866
7400.00000000939,12.2514160425065,1.0000000014944,0.552019857059584
7500.00000000975,12.3436335255786,1.00000000142786,0.557063931346315
7600.00000001012,12.4049322425008,1.0000000014881,0.579245428131288
7700.00000001048,12.4278758108191,1.00000000145832,0.590421305154363
7800.00000001084,12.4162250711862,1.0000000013023,0.584625371717144
7900.00000001121,12.3859393252169,1.0000000014286,0.566304934887802
8000.00000001157,12.345919020023,1.00000000139621,0.563096101436076
8100.00000001194,12.3002320135951,1.00000000141068,0.554798472210503
8200.0000000123,12.2450496339759,1.00000000142024,0.543254866308825
8300.00000001266,12.1894923684926,1.0000000012762,0.556226441252923
8400.00000001303,12.1364595383139,1.00000000133792,0.556800400601834
8500.00000001339,12.0861333433294,1.00000000136607,0.558139394333422
8600.00000001376,12.0336258384767,1.00000000136606,0.568500091259653
8700.00000001412,11.9780804427416,1.00000000135096,0.569341655412896
8800.00000001448,11.9163309492004,1.00000000147583,0.565760849131711
8900.00000001485,11.8469418001152,1.00000000148088,0.565133628684027
9000.00000001521,11.766095122084,1.00000000145341,0.58659855643243
9100.00000001557,11.6773670445617,1.00000000139131,0.608100870462196
9200.00000001594,11.5884312309135,1.0000000011431,0.589184442125365
9300.0000000163,11.5000762050533,1.00000000131221,0.598605128766467
9400.00000001667,11.4066221998874,1.00000000131695,0.596593675305593
9500.00000001703,11.3065825393528,1.00000000166988,0.596074429342003
9600.00000001739,11.2036077539028,1.00000000178614,0.604811070295676
9700.00000001776,11.1038720583977,1.0000000017212,0.596445785067453
9800.00000001812,11.0082934444809,1.00000000188462,0.597850197495393
9900.00000001848,10.9110198456313,1.00000000162912,0.587024985529759
10000.0000000188,10.8066031712385,1.00000000129458,0.555901359447619
10100.0000000192,10.7054610394653,1.00000000100646,0.499664613019556
10200.0000000196,10.6411229955639,1.00000000079089,0.447450139044589
10300.0000000199,10.6573547058795,1.00000000067354,0.401504259860921
10400.0000000203,10.7867745924644,1.00000000086992,0.391402043230797
10500.0000000207,11.0281103726975,1.00000000091617,0.40299987882936
10600.000000021,11.3459186760769,1.00000000140911,0.427185837141172
10700.0000000214,11.6869406753364,1.00000000136052,0.45976129162782
10800.0000000218,12.017764746466,1.00000000156291,0.490597890955644
10900.0000000221,12.3143047536768,1.00000000147366,0.512536738992079
11000.0000000225,12.5830185351806,1.00000000163767,0.536396739030389
11100.0000000229,12.8163786519693,1.00000000141269,0.557816347968628
11200.0000000232,13.0196790093123,1.00000000149521,0.572393411135687
11300.0000000236,13.1924780319194,1.00000000149857,0.580321718486827
11400.0000000239,13.3326189271908,1.00000000145248,0.592808641142325
11500.0000000243,13.4434674377024,1.00000000148574,0.604950521928542
11600.0000000247,13.5220193930289,1.00000000149895,0.612233802127229
11700.000000025,13.5700856927823,1.00000000158976,0.617155939912793
11800.0000000254,13.599623452971,1.00000000136179,0.615986219195445
11900.0000000258,13.6145804784455,1.00000000146344,0.61030950809848
12000.0000000261,13.6154916068214,1.0000000013574,0.606257467163604
12100.0000000265,13.6096040165586,1.00000000136573,0.601944801052136
12200.0000000269,13.5909314013861,1.00000000167822,0.600541527199134
12300.0000000272,13.5598126491624,1.00000000134777,0.591510995641554
12400.0000000276,13.5277218435734,1.00000000144569,0.591334098889407
12500.0000000279,13.4838727123055,1.00000000155178,0.598766354753049
12600.0000000283,13.4331359893305,1.00000000145069,0.59880394567136
12700.0000000287,13.3777578365806,1.00000000128264,0.605339191803759
12800.000000029,13.3169535547431,1.00000000149022,0.615862524182993
12900.0000000294,13.2498660435249,1.00000000152006,0.621014027215387
13000.0000000298,13.1819789981565,1.00000000124484,0.606492954374869
13100.0000000301,13.1185107626962,1.00000000138669,0.594210859532403
13200.0000000305,13.061753343244,1.00000000131885,0.574565146221037
13300.0000000309,13.011982768712,1.00000000145209,0.57960569759162
13400.0000000312,12.9637837414503,1.00000000142487,0.587539574104081
13500.0000000316,12.9179361550711,1.00000000136296,0.587998988804175
13600.0000000319,12.8713404343652,1.00000000141506,0.57589933683804
13700.0000000323,12.8243362355791,1.0000000014116,0.58549578345332
13800.0000000327,12.7811061598273,1.00000000136317,0.590067781722311
13900.000000033,12.7414891832815,1.00000000154371,0.59017194414513
14000.0000000334,12.6978763705778,1.0000000014468,0.57939485388872
14100.0000000338,12.6577374945509,1.00000000124843,0.591173197237732
14200.0000000341,12.6252999660393,1.00000000128256,0.575611829497459
14300.0000000345,12.5966898734237,1.00000000136555,0.562784925040097
14400.0000000349,12.5646239955838,1.00000000159355,0.568906848012361
14500.0000000352,12.5322657481548,1.00000000139348,0.578067104782767
14600.0000000356,12.5023720809981,1.00000000143195,0.593785959730733
14700.0000000359,12.4697187943516,1.00000000142237,0.609625122205582
14800.0000000363,12.4374645185765,1.00000000139955,0.612554285253456
14900.0000000367,12.4089398521748,1.00000000138513,0.595024120958842
15000.000000037,12.37755053456,1.00000000157829,0.58663990316458
15100.0000000374,12.3434813124327,1.00000000141373,0.597359841617228
15200.0000000378,12.3123094162638,1.00000000143858,0.604998804292376
15300.0000000381,12.279046191376,1.00000000137902,0.614710157719657
15400.0000000385,12.241302469378,1.00000000152085,0.623412346783736
15500.0000000389,12.2038367979203,1.00000000147897,0.61971135138988
15600.0000000392,12.1645459138536,1.00000000144878,0.622455487275712
15700.0000000396,12.1191688040503,1.00000000153158,0.625740902580281
15800.0000000399,12.0723980398678,1.00000000144434,0.609402067113384
15900.0000000403,12.0238780597812,1.00000000158726,0.617010238385974
16000.0000000407,11.9750796870702,1.0000000013787,0.621222034999442
16100.000000041,11.9302836682522,1.00000000137063,0.624706569654769
16200.0000000414,11.8885382690559,1.00000000146398,0.623723232271283
16300.0000000418,11.8427225211645,1.00000000161121,0.622632520298969
16400.0000000418,11.7908244468542,1.00000000165431,0.617964146171092
16500.0000000404,11.7406568841111,1.00000000131209,0.620988373026045
16600.0000000389,11.6925458886442,1.00000000162141,0.632024434157742
16700.0000000375,11.6410364498928,1.00000000153659,0.620816683534902
16800.000000036,11.5914505115121,1.00000000130463,0.607714039883442
16900.0000000346,11.5445728615824,1.00000000142495,0.621167536358611
17000.0000000331,11.4957072892066,1.00000000140632,0.611245076232581
17100.0000000317,11.4457079519709,1.00000000149949,0.62754658712456
17200.0000000302,11.3941224833694,1.00000000143847,0.626818929377351
17300.0000000287,11.3406564840024,1.00000000157418,0.628912836969365
17400.0000000273,11.2850773052943,1.00000000160825,0.622069071533835
17500.0000000258,11.2275141861765,1.00000000159384,0.638393264451311
17600.0000000244,11.1682948718888,1.0000000016072,0.64080133497296
17700.0000000229,11.109449799261,1.00000000142109,0.636682114503494
17800.0000000215,11.0509308085986,1.00000000171159,0.644474434189505
17900.00000002,10.9908089745625,1.00000000173215,0.641981519939518
18000.0000000186,10.9306463058411,1.00000000162044,0.636952776785515
18100.0000000171,10.8709314398609,1.00000000143305,0.630078516687208
18200.0000000156,10.8116469607809,1.00000000151439,0.62577872967505
18300.0000000142,10.7530976855641,1.00000000155451,0.64867403852762
18400.0000000127,10.6956428047395,1.00000000130476,0.63525125203111
18500.0000000113,10.6385418500099,1.0000000013,0.63638309660604
18600.0000000098,10.5827072165868,1.00000000146645,0.636236210348681
18700.0000000084,10.5293495553402,1.00000000146072,0.642044501944644
18800.0000000069,10.4797475796953,1.00000000164457,0.638728160772263
18900.0000000055,10.4363196307922,1.00000000162846,0.644764391970368
19000.000000004,10.4025289157002,1.00000000166428,0.648429858051572
19100.0000000026,10.3788445878328,1.00000000181822,0.650775164520699
19200.0000000011,10.3745112647807,1.0000000017252,0.656457157690503
19299.9999999996,10.3820135297947,1.00000000199041,0.652713184391067
19399.9999999982,10.4187062986446,1.00000000198571,0.656140598681329
19499.9999999967,10.4625930317711,1.00000000190464,0.644525271880047
19599.9999999953,10.5351569061922,1.00000000180614,0.631938553709858
19699.9999999938,10.6019636799712,1.00000000192769,0.615738460808451
19799.9999999924,10.6787028969867,1.00000000181888,0.601224933144067
19899.9999999909,10.7287143193059,1.00000000152526,0.590713386244591
19999.9999999895,10.7567871420259,1.00000000146657,0.577488001025029
20099.999999988,10.7510790951898,1.00000000122094,0.543390674795876
20199.9999999865,10.7188598286004,1.00000000119116,0.514854575634265
20299.9999999851,10.6751572037428,1.00000000105643,0.484854122201397
20399.9999999836,10.6377157008053,1.00000000101012,0.458720906631723
20499.9999999822,10.6325645596348,1.00000000094217,0.434556221431371
20599.9999999807,10.6836170791839,1.00000000085266,0.418986635528975
20699.9999999793,10.8182102981618,1.0000000009278,0.40924169575333
20799.9999999778,11.0405165949778,1.00000000099,0.407913564453294
20899.9999999764,11.3790254903011,1.00000000113111,0.415500046513066
20999.9999999749,11.7857715608962,1.00000000127402,0.425205193060073
21099.9999999734,12.2952061814669,1.00000000150219,0.435480596728378
21199.999999972,12.8236097255543,1.00000000146388,0.448888260865288
21299.9999999705,13.4122717022313,1.00000000162009,0.453529236705949
21399.9999999691,13.9838964242374,1.00000000179881,0.473483361422633
21499.9999999676,14.5663711225363,1.00000000165545,0.478701002900864
21599.9999999662,15.1292283978263,1.00000000183507,0.501014691299188
21699.9999999647,15.6700340749025,1.00000000178392,0.505512440176139
21799.9999999633,16.1966162141084,1.00000000188045,0.520506348054891
21899.9999999618,16.6881534058304,1.0000000016471,0.529940007850939
21999.9999999603,17.175729894135,1.00000000174527,0.541708853163394
22099.9999999589,17.6291309661403,1.00000000184153,0.552141031488037
22199.9999999574,18.0703286842648,1.00000000156306,0.555313322686359
22299.999999956,18.5036803469723,1.00000000163058,0.576385233994784
22399.9999999545,18.9135959333497,1.00000000179667,0.573056277721696
22499.9999999531,19.3133464160413,1.00000000176466,0.590141871635848
22599.9999999516,19.6768688622599,1.00000000180095,0.608741275535599
22699.9999999502,20.0318345153608,1.00000000167401,0.611647778966437
22799.9999999487,20.3529062182241,1.00000000177058,0.611830489399995
22899.9999999473,20.6548494628004,1.00000000179143,0.62334972714706
22999.9999999458,20.9321283899153,1.00000000175035,0.643443046402896
23099.9999999443,21.1842582732551,1.00000000167582,0.633669411438827
23199.9999999429,21.4217274505998,1.00000000187445,0.639604885937244
23299.9999999414,21.6267312248992,1.00000000179062,0.643177555167148
23399.99999994,21.8182902332032,1.00000000170991,0.649333224224277
23499.9999999385,21.9830447242146,1.00000000169932,0.647005876331951
23599.9999999371,22.1429033688757,1.00000000211483,0.639273820948528
23699.9999999356,22.2842430859127,1.00000000192985,0.651754528303134
23799.9999999342,22.4090045529663,1.00000000167549,0.64294831730741
23899.9999999327,22.5197100021007,1.00000000165028,0.649514573955129
23999.9999999312,22.6140685852661,1.00000000181832,0.636637931433644
24099.9999999298,22.7079407662356,1.00000000177165,0.648264250884698
24199.9999999283,22.7955345321269,1.00000000159596,0.631472693067216
24299.9999999269,22.8837799310766,1.00000000187629,0.63807258839692
24399.9999999254,22.9490616023159,1.00000000204367,0.654823478626974
24499.999999924,22.9941412968953,1.0000000019322,0.654641718846429
24599.9999999225,23.0329082691701,1.00000000164175,0.635000174666888
24699.9999999211,23.0754071388864,1.00000000169143,0.63018071190062
24799.9999999196,23.1204631101782,1.0000000016503,0.625773936543745
24899.9999999181,23.1555876171328,1.00000000195931,0.632483290088958
24999.9999999167,23.1849751963443,1.00000000165489,0.626291933168349
25099.9999999152,23.2080855911624,1.00000000186756,0.635046489634916
25199.9999999138,23.2255507305397,1.00000000159924,0.640832096512735
25299.9999999123,23.2352654530445,1.00000000163662,0.649163434569126
25399.9999999109,23.2423513787474,1.00000000165805,0.627845600690157
25499.9999999094,23.2608913428996,1.00000000160714,0.587517226602141
25599.999999908,23.2836599170046,1.00000000163681,0.600233774576979
25699.9999999065,23.2983165907769,1.0000000020234,0.60666961180085
25799.9999999051,23.2949356238824,1.00000000195597,0.615545032837889
25899.9999999036,23.2869300999874,1.00000000168464,0.618458540372217
25999.9999999021,23.2890927449827,1.00000000152444,0.608199646714434
26099.9999999007,23.2993775489787,1.00000000206951,0.638524057633431
26199.9999998992,23.3020978500794,1.00000000173981,0.640145592812488
26299.9999998978,23.2917836228777,1.00000000211739,0.650939633955326
26399.9999998963,23.2813040122631,1.00000000171638,0.642314669339347
26499.9999998949,23.2776761522706,1.00000000173252,0.636303393816572
26599.9999998934,23.2806408382739,1.00000000159363,0.637751429024081
26699.999999892,23.2828890568859,1.00000000197643,0.636520075826814
26799.9999998905,23.2843549616598,1.00000000162417,0.620501025889889
26899.999999889,23.2960436862703,1.00000000155811,0.59746858346037
26999.9999998876,23.3188464498206,1.00000000168647,0.598810713204376
27099.9999998861,23.3327636586464,1.00000000206188,0.616814302004162
27199.9999998847,23.3258620773028,1.00000000217314,0.619654634432948
27299.9999998832,23.3133014001445,1.00000000180391,0.617898860730926
27399.9999998818,23.3107298016621,1.00000000148938,0.610152757350679
27499.9999998803,23.3178602158728,1.0000000020513,0.645823343890175
27599.9999998789,23.3227196634597,1.00000000199456,0.648350497494163
27699.9999998774,23.3173300341357,1.00000000193561,0.635381878472498
27799.9999998759,23.3077606279155,1.00000000165586,0.622993666490914
27899.9999998745,23.3054913648741,1.00000000167641,0.617475411705751
27999.999999873,23.3104768531641,1.00000000199999,0.618092816558965
28099.9999998716,23.3186672966858,1.0000000018947,0.62224163420002
28199.9999998701,23.3204957470284,1.00000000186973,0.63097684211697
28299.9999998687,23.3179555105194,1.00000000183048,0.626407459260864
28399.9999998672,23.3158083031873,1.0000000016731,0.632746547116173
28499.9999998658,23.3107910102023,1.00000000159208,0.633920241744087
28599.9999998643,23.3089895400639,1.00000000166933,0.628958324641004
28699.9999998629,23.3046683782853,1.00000000183634,0.635440573757103
28799.9999998614,23.2956996777125,1.00000000200979,0.625646134038388
28899.9999998599,23.2806975623884,1.00000000191909,0.642033358220419
28999.9999998585,23.2607496465493,1.00000000180176,0.63987076319746
29099.999999857,23.2425580116787,1.00000000175467,0.627708013657699
