Time,AGPnorm,Energy,Entropy
0,0,1,-9.07637509414251e-19
99.9999999999986,0.00641676367108714,1.00000000000131,0.0189560096543392
199.999999999993,0.0173013931083087,1.0000000000002,0.054887574928877
300,0.0350737923393895,1.00000000000136,0.108398867933524
400.000000000022,0.0532437868511727,1.00000000001243,0.182257128797317
500.000000000045,0.0695297335131706,1.00000000022293,0.290593481171931
600.000000000068,0.172825712023008,1.00000000095362,0.409084763945062
700.000000000091,0.583468251035335,1.00000000186494,0.493648280881884
800.000000000113,1.7138291155467,1.00000000229407,0.542726815514027
900.000000000136,3.65941753781906,1.00000000237935,0.567693574891609
1000.00000000016,6.27991230692962,1.00000000248602,0.577466207451048
1100.0000000001,9.31563572668079,1.00000000249693,0.577828724844939
1200,12.392717655892,1.0000000022932,0.571413009573287
1299.99999999991,15.2789224667652,1.00000000227094,0.566351489871456
1399.99999999982,17.7541107186583,1.00000000211286,0.558945049546619
1499.99999999973,19.7200366128639,1.00000000186513,0.547823286358636
1599.99999999964,21.1536391658497,1.00000000155543,0.535577482957156
1699.99999999955,22.0659936364787,1.00000000155682,0.549943613473167
1799.99999999946,22.526221097049,1.00000000128041,0.50405698761233
1899.99999999937,22.6366004437339,1.00000000179089,0.563733612113906
1999.99999999928,22.4331033702054,1.00000000103685,0.465951855894111
2099.99999999919,22.0528770257164,1.00000000181886,0.582078268402931
2199.99999999909,21.5868838458531,1.0000000009035,0.432496259098929
2299.999999999,20.9458116848416,1.00000000184914,0.531245250466725
2399.99999999891,20.387995610696,1.00000000181126,0.557929184066159
2499.99999999882,19.7822921299443,1.00000000068219,0.366494292357681
2599.99999999873,19.1063534574267,1.00000000174243,0.508277562511848
2699.99999999864,18.5060431488747,1.00000000222774,0.572010797438424
2799.99999999855,17.9584479968053,1.00000000134924,0.440928700168982
2899.99999999846,17.3925452612677,1.00000000092761,0.37285462287443
2999.99999999837,16.8308430055722,1.00000000178191,0.514688669551271
3099.99999999828,16.298153175609,1.00000000183382,0.54028381269068
3199.99999999819,15.8177488037884,1.00000000183548,0.552539073041228
3299.99999999809,15.3710395494247,1.00000000072343,0.382974839683524
3399.999999998,14.9787318077636,1.00000000116215,0.39150306464404
3499.99999999791,14.5993888991653,1.00000000169828,0.513964752732043
3599.99999999782,14.2220300870181,1.00000000147749,0.519770007512969
3699.99999999773,13.8564915557918,1.00000000178708,0.518808268359107
3799.99999999764,13.492814242126,1.00000000193919,0.577240049670844
3899.99999999755,13.1604764709487,1.00000000116947,0.477022620737864
3999.99999999746,12.9070895103594,1.00000000072003,0.364066790934107
4099.99999999738,12.7387132923051,1.00000000138619,0.415723213494051
4199.99999999775,12.56794698527,1.00000000169593,0.508774221851943
4299.99999999811,12.3715216926418,1.00000000165969,0.545245744536549
4399.99999999848,12.1609856654889,1.00000000149436,0.542269857348596
4499.99999999884,11.9589878783724,1.0000000013658,0.532672432155712
4599.9999999992,11.7456899831869,1.00000000173465,0.528453781703366
4699.99999999957,11.5148110600925,1.00000000188709,0.567210529614982
4799.99999999993,11.2831980577687,1.00000000164031,0.570584010884335
4900.00000000029,11.088815462588,1.00000000097396,0.460794000951609
5000.00000000066,10.9973302106747,1.00000000076606,0.381838008784507
5100.00000000102,11.010611650033,1.00000000125773,0.409133592957025
5200.00000000139,11.0448746407921,1.00000000149915,0.483574625910313
5300.00000000175,11.0331016828607,1.00000000169009,0.54224888013863
5400.00000000211,10.9984872489565,1.00000000150125,0.550322148630765
5500.00000000248,10.9507133113463,1.00000000150343,0.563771083720278
5600.00000000284,10.8769795942516,1.00000000158697,0.566515985878694
5700.00000000321,10.7825428954468,1.00000000146271,0.545473518396184
5800.00000000357,10.6754161248183,1.0000000016378,0.574982099760141
5900.00000000393,10.5674284831182,1.0000000012848,0.563431548278637
6000.0000000043,10.4628529234438,1.00000000143604,0.576408672200759
6100.00000000466,10.3439061462732,1.00000000156402,0.581968989085474
6200.00000000502,10.2095864603427,1.00000000184906,0.584308748164172
6300.00000000539,10.0624252884019,1.00000000200447,0.59430561467191
6400.00000000575,9.91249169339913,1.00000000171396,0.581870705577552
6500.00000000612,9.78199319153299,1.00000000109684,0.506558963915978
6600.00000000648,9.72203599874505,1.00000000080915,0.427742959059354
6700.00000000684,9.77975653412475,1.0000000009329,0.401440151950892
6800.00000000721,9.93145248218189,1.00000000122922,0.431029026257873
6900.00000000757,10.105983622908,1.00000000166127,0.474696423950815
7000.00000000793,10.25006347661,1.00000000169908,0.514060298326083
7100.0000000083,10.3643102649651,1.00000000161954,0.551783825363629
7200.00000000866,10.4440532751418,1.00000000162274,0.566850145684655
7300.00000000903,10.5001094675747,1.00000000149549,0.575791094124163
7400.00000000939,10.5304212926289,1.00000000163355,0.594925499712705
7500.00000000975,10.5243981226426,1.00000000166459,0.598872801651723
7600.00000001012,10.4962461859818,1.00000000153537,0.584925294992733
7700.00000001048,10.4637268157411,1.00000000161593,0.571034379395741
7800.00000001084,10.4285312747194,1.00000000156731,0.565870338657628
7900.00000001121,10.388194578402,1.00000000163822,0.548429713580434
8000.00000001157,10.3444504389636,1.0000000015655,0.559326939482283
8100.00000001194,10.2966266877182,1.00000000150562,0.573665480197313
8200.0000000123,10.2518585261478,1.00000000156179,0.57048481427907
8300.00000001266,10.206485096868,1.00000000154456,0.573891684168387
8400.00000001303,10.1632174123664,1.0000000015818,0.577217360135138
8500.00000001339,10.1141859240146,1.00000000164563,0.57419789525592
8600.00000001376,10.0570200310497,1.00000000155707,0.56651947967012
8700.00000001412,9.98862499626929,1.00000000177315,0.58546040704184
8800.00000001448,9.91102764657028,1.00000000154774,0.608399183253153
8900.00000001485,9.83142336515288,1.00000000133738,0.597249858323094
9000.00000001521,9.75322654574939,1.00000000145157,0.604126827780908
9100.00000001557,9.6706044214034,1.00000000166777,0.601592900525077
9200.00000001594,9.58309483273772,1.00000000175647,0.599599133717116
9300.0000000163,9.49444092335105,1.00000000200811,0.606817300239013
9400.00000001667,9.40779236798676,1.00000000205298,0.591636478179013
9500.00000001703,9.32283200873163,1.00000000202476,0.583388320991393
9600.00000001739,9.23348070990254,1.00000000175902,0.579188295583485
9700.00000001776,9.14076557257271,1.00000000140054,0.539523049123613
9800.00000001812,9.06540488052557,1.00000000100744,0.482075541826044
9900.00000001848,9.04734337559003,1.00000000090429,0.439385283758053
10000.0000000188,9.12362177607013,1.00000000083424,0.409417238191295
10100.0000000192,9.30497369820614,1.00000000126553,0.419572669057271
10200.0000000196,9.56518877726549,1.00000000130395,0.437621444182043
10300.0000000199,9.85165031051172,1.0000000017959,0.46507213656002
10400.0000000203,10.1342764617347,1.00000000162795,0.496492313166722
10500.0000000207,10.3896168921276,1.00000000192944,0.525408580790451
10600.000000021,10.6160850600615,1.00000000171311,0.535663789922378
10700.0000000214,10.8175472342688,1.00000000169265,0.563062405508852
10800.0000000218,10.9941215184179,1.00000000167471,0.578707026858861
10900.0000000221,11.1450540334818,1.00000000186338,0.594426508383588
11000.0000000225,11.2631800272838,1.00000000177901,0.597518218859795
11100.0000000229,11.361187299617,1.00000000171841,0.61484296249535
11200.0000000232,11.4373887640623,1.00000000188599,0.62772228025887
11300.0000000236,11.4906735366817,1.00000000183176,0.625871024559531
11400.0000000239,11.5196019500186,1.00000000165645,0.631371886178755
11500.0000000243,11.5342311229323,1.00000000168675,0.624267278205658
11600.0000000247,11.5386165620743,1.00000000171642,0.627996643838476
11700.000000025,11.536129733407,1.00000000158087,0.61655831209542
11800.0000000254,11.5257111892336,1.00000000170663,0.624370003929516
11900.0000000258,11.5031495988356,1.00000000180705,0.61499826459758
12000.0000000261,11.4812855873118,1.00000000162122,0.607460172891624
12100.0000000265,11.4508354108059,1.0000000019067,0.621241401915809
12200.0000000269,11.4128943891025,1.00000000166791,0.615990753636779
12300.0000000272,11.3705376591873,1.00000000165097,0.627473292077884
12400.0000000276,11.32233028032,1.0000000017863,0.637194626553142
12500.0000000279,11.2673223852311,1.00000000180718,0.642024748132756
12600.0000000283,11.2099417386763,1.00000000171448,0.640822898895253
12700.0000000287,11.1581685916881,1.00000000156058,0.62079654715829
12800.000000029,11.1151265706127,1.00000000167749,0.609130467479994
12900.0000000294,11.0795677476235,1.00000000167409,0.603777322277158
13000.0000000298,11.0474662576873,1.00000000169192,0.60487522467804
13100.0000000301,11.0181808855788,1.00000000158097,0.608933087495574
13200.0000000305,10.9914616663998,1.00000000174145,0.603897961108361
13300.0000000309,10.9644054120001,1.00000000184409,0.618033566580247
13400.0000000312,10.938255189139,1.00000000158406,0.613435567608378
13500.0000000316,10.9130017833659,1.00000000173498,0.608981887325124
13600.0000000319,10.8866084655452,1.00000000172669,0.609141309606706
13700.0000000323,10.8624789317276,1.00000000165859,0.606152163701281
13800.0000000327,10.8408666608992,1.00000000169834,0.597259479117228
13900.000000033,10.8210346702642,1.00000000171342,0.585674920059481
14000.0000000334,10.7983418098455,1.00000000181512,0.59029019474255
14100.0000000338,10.7784368516252,1.00000000166323,0.582598254541553
14200.0000000341,10.7591730526058,1.00000000189432,0.613874862043188
14300.0000000345,10.7337255943558,1.0000000017732,0.631993114650389
14400.0000000349,10.7073381576571,1.00000000174817,0.61532285174176
14500.0000000352,10.6815855896364,1.00000000182874,0.606502094772961
14600.0000000356,10.653103405648,1.00000000183184,0.617964325222194
14700.0000000359,10.6282898566602,1.00000000169858,0.614726065524007
14800.0000000363,10.6052571789705,1.00000000174746,0.624456497289942
14900.0000000367,10.5783231821535,1.00000000192182,0.634666623505321
15000.000000037,10.5499607453842,1.00000000164783,0.625412153211862
15100.0000000374,10.5278847497228,1.00000000175292,0.633214270101647
15200.0000000378,10.5028546804998,1.00000000186109,0.639960467907502
15300.0000000381,10.4714043164034,1.00000000192348,0.62299063299375
15400.0000000385,10.4358373992844,1.00000000179708,0.618485265944557
15500.0000000389,10.3993686842692,1.00000000171944,0.629020411766481
15600.0000000392,10.3674671111566,1.000000001684,0.637321276292226
15700.0000000396,10.3383667957088,1.00000000183812,0.64571186643935
15800.0000000399,10.3069792104678,1.00000000189055,0.63807262838429
15900.0000000403,10.2711947316111,1.00000000192595,0.644396715101869
16000.0000000407,10.2366455168129,1.00000000167225,0.625186791901636
16100.000000041,10.2033236008646,1.00000000191106,0.647190629981402
16200.0000000414,10.1635460210739,1.00000000172141,0.640100001311402
16300.0000000418,10.1244759762619,1.00000000171506,0.631512710291263
16400.0000000418,10.087435671148,1.00000000176862,0.631432774730626
16500.0000000404,10.0502567863658,1.00000000197926,0.614157502171865
16600.0000000389,10.01261531299,1.00000000186804,0.645996699477665
16700.0000000375,9.97204076385231,1.00000000173606,0.646992747996862
16800.000000036,9.92931815533686,1.00000000184952,0.652428910570843
16900.0000000346,9.88449668797067,1.0000000017965,0.63445972345877
17000.0000000331,9.83743093194664,1.00000000188938,0.641147911374434
17100.0000000317,9.78779431961818,1.00000000196468,0.635865184377511
17200.0000000302,9.73873960139528,1.00000000178198,0.635460933521308
17300.0000000287,9.68945818011995,1.0000000019426,0.652098239788975
17400.0000000273,9.63654975159954,1.00000000204567,0.660505371094373
17500.0000000258,9.58265510022461,1.00000000184169,0.653154434884492
17600.0000000244,9.52902532614391,1.0000000016971,0.626966951137084
17700.0000000229,9.47589817428175,1.00000000180825,0.64973522573748
17800.0000000215,9.42308847741073,1.00000000173971,0.647231632560795
17900.00000002,9.37125744817283,1.00000000159839,0.625277848416785
18000.0000000186,9.32054380354048,1.00000000176278,0.635373127069943
18100.0000000171,9.27203727680028,1.00000000173168,0.637359210364315
18200.0000000156,9.2267226109631,1.00000000192609,0.639233278671733
18300.0000000142,9.18696263331812,1.00000000199529,0.646170421703666
18400.0000000127,9.15568030932249,1.00000000186229,0.659689658215295
18500.0000000113,9.13288249962588,1.00000000217619,0.660171599482687
18600.0000000098,9.12663192014759,1.00000000219647,0.663291322721903
18700.0000000084,9.12832603624283,1.00000000217944,0.663336743858151
18800.0000000069,9.15251519827911,1.00000000231462,0.660744737614599
18900.0000000055,9.17809458992879,1.00000000232781,0.653364555013237
19000.000000004,9.22160796656389,1.00000000226199,0.638356467777556
19100.0000000026,9.25238692466642,1.00000000222689,0.624849166140346
19200.0000000011,9.28131284592951,1.00000000207738,0.612527960926367
19299.9999999996,9.28350546454171,1.00000000187206,0.59879678389492
19399.9999999982,9.26507000489839,1.00000000168817,0.579165204293297
19499.9999999967,9.22777917370657,1.00000000138125,0.549041723715333
19599.9999999953,9.18347853211587,1.00000000131358,0.518645369460594
19699.9999999938,9.15395814923694,1.00000000124136,0.495933563888854
19799.9999999924,9.15997738884169,1.0000000012142,0.469064518750612
19899.9999999909,9.22765321522085,1.0000000011181,0.45151881416899
19999.9999999895,9.37139063705501,1.00000000121065,0.442500440983777
20099.999999988,9.61402626305953,1.00000000136351,0.445918464619376
20199.9999999865,9.93410088770749,1.00000000140895,0.448343353406158
20299.9999999851,10.3535708532146,1.00000000154972,0.461934884298989
20399.9999999836,10.8028949618455,1.00000000175448,0.472340991134523
20499.9999999822,11.3139144540256,1.00000000201401,0.481792304830475
20599.9999999807,11.8131202761321,1.00000000182759,0.496775848182589
20699.9999999793,12.332666448115,1.00000000219749,0.501412162767391
20799.9999999778,12.8285733080003,1.00000000199289,0.519936620316078
20899.9999999764,13.3119939767364,1.00000000200114,0.522012657184188
20999.9999999749,13.7767940798964,1.00000000210684,0.539905972182394
21099.9999999734,14.2083548754166,1.00000000212752,0.551740096407367
21199.999999972,14.6296427576257,1.00000000200328,0.557772414164246
21299.9999999705,15.0247098666315,1.00000000196636,0.56543492817405
21399.9999999691,15.4125462163852,1.0000000020316,0.573496362096764
21499.9999999676,15.778241972059,1.0000000018875,0.585791764456974
21599.9999999662,16.1288526086758,1.00000000209488,0.586145128295677
21699.9999999647,16.4605889563309,1.00000000201274,0.602740420735801
21799.9999999633,16.7504137778131,1.0000000020318,0.617493157469045
21899.9999999618,17.0338628214748,1.00000000191185,0.617690223720206
21999.9999999603,17.2900779083715,1.00000000208006,0.633229777948561
22099.9999999589,17.5252283001321,1.00000000203406,0.636160101730339
22199.9999999574,17.7290611651796,1.00000000197437,0.637708579335382
22299.999999956,17.9094035134824,1.00000000227884,0.641996208356308
22399.9999999545,18.0733551647876,1.00000000203981,0.648080904326735
22499.9999999531,18.2197496173297,1.0000000019501,0.640059237065456
22599.9999999516,18.3583732998692,1.0000000021192,0.64805909169318
22699.9999999502,18.4734911496685,1.00000000209452,0.641784767482011
22799.9999999487,18.5762893553245,1.00000000189968,0.644639653684084
22899.9999999473,18.6579132272303,1.00000000193604,0.646311414528698
22999.9999999458,18.7312758005153,1.00000000202265,0.658145819813888
23099.9999999443,18.7956116872158,1.00000000186288,0.651910262257842
23199.9999999429,18.8496648411365,1.00000000195381,0.662330031766221
23299.9999999414,18.898142087714,1.00000000189779,0.664565409548009
23399.99999994,18.9388970258055,1.00000000192339,0.649177138315969
23499.9999999385,18.9785848850542,1.00000000213758,0.661600540533647
23599.9999999371,19.0005002936271,1.00000000224866,0.646146785589665
23699.9999999356,19.0099095407206,1.00000000204959,0.654681135644839
23799.9999999342,19.0106050681134,1.0000000018464,0.649390987447927
23899.9999999327,19.016753635581,1.00000000200336,0.646650066565768
23999.9999999312,19.0298253208588,1.00000000181996,0.644533501071135
24099.9999999298,19.0414354586758,1.00000000184462,0.658620277811759
24199.9999999283,19.0476869824133,1.00000000232116,0.662717943285988
24299.9999999269,19.0412930632957,1.00000000209148,0.659194084549807
24399.9999999254,19.025780689528,1.00000000213685,0.64445625117292
24499.999999924,19.0060697828559,1.00000000196351,0.639410752410144
24599.9999999225,18.9858277713444,1.00000000182327,0.644895069163832
24699.9999999211,18.9704795076591,1.00000000180629,0.630895779649851
24799.9999999196,18.9548511501797,1.00000000212084,0.638046587111185
24899.9999999181,18.9316864304364,1.00000000217706,0.643261007564257
24999.9999999167,18.9004459374018,1.00000000239667,0.631969513545767
25099.9999999152,18.8719056022829,1.00000000180896,0.621111585491813
25199.9999999138,18.8510079516666,1.00000000177028,0.62560440741391
25299.9999999123,18.8359249008143,1.00000000180534,0.652380001627028
25399.9999999109,18.8155754495792,1.00000000223461,0.661524855220974
25499.9999999094,18.7874031664991,1.00000000216513,0.652440588293411
25599.999999908,18.7559583210509,1.00000000245505,0.653259634950582
25699.9999999065,18.7219061555695,1.00000000189536,0.637097041311892
25799.9999999051,18.6903792759242,1.00000000188374,0.638811821667628
25899.9999999036,18.6571975789769,1.00000000214403,0.651725432425739
25999.9999999021,18.627986466073,1.00000000152825,0.6317144153765
26099.9999999007,18.6067768308797,1.00000000181742,0.632827363111419
26199.9999998992,18.5851144650232,1.00000000209794,0.650219880284971
26299.9999998978,18.5577466268122,1.00000000211778,0.647514086731
26399.9999998963,18.5277538968214,1.00000000209243,0.635174869517836
26499.9999998949,18.4984125717779,1.00000000199026,0.633113647228983
26599.9999998934,18.475737067831,1.00000000189932,0.648612160383643
26699.999999892,18.449838970735,1.00000000227028,0.662258866104342
26799.9999998905,18.4185210166116,1.00000000207851,0.651878690636107
26899.999999889,18.3861039667426,1.00000000184759,0.653812718209028
26999.9999998876,18.3588994204811,1.00000000173837,0.646091634401512
27099.9999998861,18.3350596005352,1.00000000186142,0.639577875703498
27199.9999998847,18.3129004472977,1.00000000202762,0.649804561819458
27299.9999998832,18.2856205592841,1.00000000226267,0.64968800105642
27399.9999998818,18.2523806594109,1.0000000021172,0.642050254860836
27499.9999998803,18.2159375477553,1.00000000206809,0.642362538753696
27599.9999998789,18.1765991140747,1.00000000193576,0.639179158789813
27699.9999998774,18.1379080598114,1.0000000020164,0.623575542298915
27799.9999998759,18.1000287110612,1.0000000018916,0.632029282913893
27899.9999998745,18.063994238336,1.00000000206423,0.636036190586116
27999.999999873,18.027078422432,1.00000000209484,0.644111624301622
28099.9999998716,17.9901984183928,1.00000000215497,0.633095314296257
28199.9999998701,17.9560720680411,1.00000000214013,0.619822733807253
28299.9999998687,17.9240705033041,1.00000000209924,0.608847235210274
28399.9999998672,17.8916492452372,1.00000000246972,0.637678624449893
28499.9999998658,17.8557591141226,1.0000000022716,0.650386833918114
28599.9999998643,17.8171511765545,1.00000000202981,0.64069691488336
28699.9999998629,17.7792785911057,1.00000000200008,0.625997534404722
28799.9999998614,17.747466794738,1.00000000194327,0.625988159789028
28899.9999998599,17.7174297811282,1.00000000220978,0.644062600762636
28999.9999998585,17.6873269846148,1.00000000208087,0.645978597919934
29099.999999857,17.6612227907227,1.00000000202308,0.640528485860212
