Time,AGPnorm,Energy,Entropy
0,0,1,2.10892244834479e-18
99.9999999999986,0.0138534085036561,0.999999999996204,0.034887553586868
199.999999999993,0.0344860931977775,1.00000000000018,0.102228239898945
300,0.0635292957326777,1.00000000005677,0.218613015838762
400.000000000022,0.118778727108636,1.00000000164975,0.391517054711499
500.000000000045,0.482218064500419,1.0000000037692,0.517204324855697
600.000000000068,1.59111733767616,1.00000000505944,0.57675065284549
700.000000000091,3.43276426051024,1.00000000507093,0.598325410126783
800.000000000113,5.54288060531423,1.00000000457239,0.602664926070854
900.000000000136,7.57867632308251,1.00000000437752,0.594572816776712
1000.00000000016,9.20305956691396,1.00000000395443,0.584747358803027
1100.0000000001,10.3369879708528,1.00000000336644,0.57032527471093
1200,10.9595231426133,1.00000000300689,0.566010745747271
1299.99999999991,11.1437253373261,1.00000000257674,0.551644867134437
1399.99999999982,11.0398947621979,1.00000000236488,0.516861314574658
1499.99999999973,10.7800087980111,1.00000000231615,0.516151261959659
1599.99999999964,10.4060013697807,1.00000000371505,0.578084719939699
1699.99999999955,9.98140831026782,1.00000000232151,0.467289864466727
1799.99999999946,9.56571574675408,1.00000000332916,0.532442769384805
1899.99999999937,9.14244116912563,1.00000000253801,0.465261856221308
1999.99999999928,8.7324352426857,1.00000000393416,0.550948798973554
2099.99999999919,8.36369488000032,1.00000000233482,0.452998016703727
2199.99999999909,7.99910121261086,1.00000000314159,0.519964612247466
2299.999999999,7.6601207253376,1.00000000342347,0.544729086690068
2399.99999999891,7.37769962258564,1.00000000205559,0.451182083359559
2499.99999999882,7.10268578350875,1.00000000325488,0.536185093418926
2599.99999999873,6.84832679002445,1.00000000319059,0.548922054925084
2699.99999999864,6.6023307722981,1.00000000311087,0.539506759929547
2799.99999999855,6.42413010035192,1.00000000222492,0.464327804596241
2899.99999999846,6.25773008974145,1.00000000380446,0.53266148700676
2999.99999999837,6.0971236941682,1.00000000290747,0.535851059187232
3099.99999999828,5.93648963623413,1.0000000031859,0.570768507652552
3199.99999999819,5.77477597777273,1.00000000379884,0.557830534442289
3299.99999999809,5.64850185191004,1.00000000232617,0.49799707152066
3399.999999998,5.59182025641726,1.00000000319048,0.510676105904261
3499.99999999791,5.52326509322967,1.00000000332184,0.545210288296424
3599.99999999782,5.45363763537702,1.00000000295798,0.567561588001146
3699.99999999773,5.38619908899963,1.00000000333963,0.579848468623306
3799.99999999764,5.29241791260199,1.00000000334021,0.608272540337982
3899.99999999755,5.20015533665637,1.00000000343754,0.595645164209372
3999.99999999746,5.10561357439942,1.00000000365907,0.579988511797105
4099.99999999738,5.0307479372129,1.00000000276943,0.54505118418718
4199.99999999775,5.03493595210188,1.00000000244642,0.506035819983116
4299.99999999811,5.05939807353111,1.00000000356006,0.549408730065277
4399.99999999848,5.06598597897857,1.00000000337562,0.556297899389408
4499.99999999884,5.066510469674,1.00000000323393,0.590998250780711
4599.9999999992,5.05316267441832,1.00000000351293,0.611122887491349
4699.99999999957,5.04415107648923,1.00000000337935,0.614590949318602
4799.99999999993,5.02067719560199,1.00000000382024,0.637841707685243
4900.00000000029,4.98501949268168,1.00000000329864,0.603952451273301
5000.00000000066,4.93741827697419,1.00000000374476,0.631362540067149
5100.00000000102,4.88519155884171,1.00000000334877,0.640221071822178
5200.00000000139,4.82805236897684,1.00000000355304,0.638236016463467
5300.00000000175,4.76958333047055,1.00000000384936,0.62625910882733
5400.00000000211,4.71246903569587,1.00000000372799,0.592468223224114
5500.00000000248,4.6938063234115,1.00000000277662,0.551173788952721
5600.00000000284,4.74724088377401,1.00000000284083,0.536172607869068
5700.00000000321,4.82964702283883,1.00000000349276,0.561208900402615
5800.00000000357,4.89962464454288,1.00000000387782,0.583956369160471
5900.00000000393,4.9595789171832,1.00000000353563,0.589422246909503
6000.0000000043,5.00707043845085,1.00000000374246,0.599358669181608
6100.00000000466,5.04790802284255,1.00000000361997,0.629269962419808
6200.00000000502,5.07483990703348,1.00000000373136,0.637965212068236
6300.00000000539,5.08917046122807,1.0000000035155,0.651807988363143
6400.00000000575,5.09317211853891,1.00000000392883,0.64725718232179
6500.00000000612,5.09232790906177,1.00000000409884,0.641081450877519
6600.00000000648,5.10205340860251,1.000000003503,0.641257290673343
6700.00000000684,5.10997921188703,1.00000000402467,0.652827044406276
6800.00000000721,5.10534260828821,1.00000000408087,0.629021638158003
6900.00000000757,5.10146652485489,1.00000000357419,0.640911384969605
7000.00000000793,5.09900419892254,1.00000000366232,0.647691868667496
7100.0000000083,5.08804851418989,1.00000000396759,0.668798318205314
7200.00000000866,5.07190038120107,1.00000000415308,0.657743165722544
7300.00000000903,5.05529503869895,1.00000000389576,0.644536094533415
7400.00000000939,5.03641003817554,1.00000000419956,0.660692486897366
7500.00000000975,5.00532366403587,1.00000000414358,0.673847043999571
7600.00000001012,4.96527208864557,1.00000000387727,0.666618372079102
7700.00000001048,4.92459521061478,1.0000000037697,0.674247314133339
7800.00000001084,4.88330396514564,1.00000000423498,0.66179970682788
7900.00000001121,4.84448854880736,1.0000000044318,0.663022300775325
8000.00000001157,4.80806921184564,1.00000000460485,0.652538824735331
8100.00000001194,4.77246492148026,1.00000000396754,0.60654221361097
8200.0000000123,4.75341014443493,1.00000000348718,0.57705377886777
8300.00000001266,4.78573816043995,1.00000000318383,0.557931063280224
8400.00000001303,4.88249911876115,1.00000000409221,0.557364760091347
8500.00000001339,5.01890663281852,1.000000003959,0.567223661891456
8600.00000001376,5.16236731274166,1.00000000412269,0.576973699194831
8700.00000001412,5.2953751380531,1.00000000436963,0.591068096286411
8800.00000001448,5.42554491507269,1.00000000455328,0.590856846939499
8900.00000001485,5.54777503533768,1.00000000415724,0.597764320169738
9000.00000001521,5.66084468388048,1.00000000432768,0.624737993454729
9100.00000001557,5.76232883748768,1.00000000395872,0.632092945816611
9200.00000001594,5.85687671203355,1.00000000434456,0.66149082902741
9300.0000000163,5.94456850215452,1.00000000436587,0.662285652863901
9400.00000001667,6.01720687555316,1.00000000462266,0.652034310454576
9500.00000001703,6.07062489254371,1.00000000456073,0.665004791979569
9600.00000001739,6.10970876819021,1.00000000470099,0.691108542716917
9700.00000001776,6.15382315218811,1.00000000400456,0.679816394823253
9800.00000001812,6.20151067415371,1.0000000043339,0.668548056787351
9900.00000001848,6.24360464128604,1.00000000474149,0.690667975128606
10000.0000000188,6.27307810655313,1.00000000428048,0.697001450021461
10100.0000000192,6.30516226567384,1.00000000409691,0.695353676287532
10200.0000000196,6.33117887004251,1.00000000444651,0.692044378600733
10300.0000000199,6.35427281326262,1.0000000049093,0.688957154001034
10400.0000000203,6.36792817049479,1.00000000469192,0.694631393572378
10500.0000000207,6.37844473284712,1.00000000461014,0.695795594387678
10600.000000021,6.38633056162924,1.0000000042421,0.68565256256246
10700.0000000214,6.39126389661793,1.00000000452106,0.690512159892968
10800.0000000218,6.40189721636077,1.00000000408564,0.675605371055096
10900.0000000221,6.42462829180266,1.00000000400392,0.683824875666103
11000.0000000225,6.46020921218466,1.00000000445683,0.678220840599643
11100.0000000229,6.50398018673207,1.00000000456966,0.668930481361912
11200.0000000232,6.54289073237179,1.0000000050281,0.682092490566327
11300.0000000236,6.57688472398377,1.00000000450284,0.66161325957059
11400.0000000239,6.60963504887262,1.00000000505504,0.666488245168029
11500.0000000243,6.64189263459602,1.00000000444359,0.671121318816366
11600.0000000247,6.68169808910754,1.00000000451841,0.676628276825504
11700.000000025,6.71816856357241,1.00000000452382,0.66052943567993
11800.0000000254,6.75596095649938,1.00000000461135,0.692864540304382
11900.0000000258,6.78418100169161,1.0000000050424,0.69645005509387
12000.0000000261,6.80548188057053,1.00000000521472,0.689343185551204
12100.0000000265,6.8245532337941,1.00000000447454,0.682061312152273
12200.0000000269,6.85528205742099,1.00000000460422,0.671430254503941
12300.0000000272,6.88875042290748,1.00000000507347,0.683541183404965
12400.0000000276,6.92498195495321,1.00000000477219,0.693981672552469
12500.0000000279,6.95376402359435,1.00000000491272,0.705606740557386
12600.0000000283,6.97919534014636,1.00000000476262,0.689011138774657
12700.0000000287,7.00879010400709,1.00000000471083,0.691198861832233
12800.000000029,7.04809215041611,1.00000000486143,0.670576180337699
12900.0000000294,7.0920860530307,1.00000000422999,0.674674617131814
13000.0000000298,7.1423630034251,1.00000000479759,0.701446772542653
13100.0000000301,7.17578392112945,1.00000000507511,0.710247416088437
13200.0000000305,7.20614139786488,1.00000000486619,0.70141030146739
13300.0000000309,7.22817158351275,1.00000000479797,0.705601273358398
13400.0000000312,7.25681808400619,1.0000000048297,0.703125391479777
13500.0000000316,7.28697899982716,1.00000000452329,0.700991490127778
13600.0000000319,7.31179076120174,1.00000000524849,0.70892514337195
13700.0000000323,7.33065121869216,1.00000000479263,0.686760925333345
13800.0000000327,7.35346717217735,1.00000000516527,0.702027313165629
13900.000000033,7.37529463122484,1.00000000521946,0.708245298114593
14000.0000000334,7.39777238913153,1.00000000501486,0.694507800630318
14100.0000000338,7.4191047205135,1.00000000472823,0.700778617629401
14200.0000000341,7.43558341152982,1.00000000483926,0.709692030558876
14300.0000000345,7.44665937189064,1.00000000476108,0.704274756032517
14400.0000000349,7.45786517902868,1.00000000487483,0.69449818112321
14500.0000000352,7.46990439387109,1.00000000484163,0.68273614901024
14600.0000000356,7.47670898502175,1.00000000537314,0.703051754344499
14700.0000000359,7.48194325498493,1.00000000499329,0.691652980218876
14800.0000000363,7.47950501031029,1.00000000536608,0.710218519771502
14900.0000000367,7.47491433637118,1.00000000514937,0.699077685735849
15000.000000037,7.46420728830216,1.00000000584842,0.684973994000539
15100.0000000374,7.44603905601633,1.00000000542567,0.705717560368133
15200.0000000378,7.42463949703063,1.00000000530366,0.708863220472181
15300.0000000381,7.39946665553686,1.00000000529204,0.702936053871712
15400.0000000385,7.37526899462874,1.00000000509967,0.704425993870994
15500.0000000389,7.34913995233818,1.0000000049553,0.703137873773404
15600.0000000392,7.32358044572951,1.00000000531668,0.691570057201639
15700.0000000396,7.30120889982493,1.00000000494962,0.702777297472643
15800.0000000399,7.27930690127105,1.00000000567775,0.701081991673288
15900.0000000403,7.26322896699612,1.00000000541217,0.707023598405257
16000.0000000407,7.24967829202326,1.00000000539602,0.694529871920924
16100.000000041,7.24435632464205,1.00000000480474,0.702974592913433
16200.0000000414,7.23976265811078,1.00000000547958,0.684037659156707
16300.0000000418,7.2494630183406,1.00000000545911,0.673094073137753
16400.0000000418,7.27258776999566,1.00000000527767,0.660650066787326
16500.0000000404,7.3334245925215,1.00000000488917,0.646387327365824
16600.0000000389,7.44160661922782,1.00000000467005,0.633679463306139
16700.0000000375,7.61065202550776,1.00000000485227,0.634170242026583
16800.000000036,7.82695471559332,1.00000000500723,0.627534397526653
16900.0000000346,8.10448238047025,1.00000000531215,0.627770953448587
17000.0000000331,8.40339340589717,1.0000000054401,0.632733779190615
17100.0000000317,8.7309446477674,1.00000000574182,0.639810176817596
17200.0000000302,9.03870975158393,1.00000000538994,0.641610074912569
17300.0000000287,9.35954972713138,1.00000000605049,0.640183680771962
17400.0000000273,9.66804403407353,1.00000000580264,0.650299254477299
17500.0000000258,9.98886024409986,1.00000000550769,0.638782443345638
17600.0000000244,10.3115425294694,1.00000000557771,0.644449787812881
17700.0000000229,10.6303094749629,1.00000000561909,0.638410978622283
17800.0000000215,10.9634392919358,1.00000000527668,0.645311026747595
17900.00000002,11.2841342724426,1.00000000518464,0.655671744417649
18000.0000000186,11.6250629662151,1.00000000582293,0.665608701873964
18100.0000000171,11.9602166940937,1.00000000546849,0.66736157166219
18200.0000000156,12.2866013997642,1.0000000056742,0.679422956795467
18300.0000000142,12.6113621028784,1.0000000053437,0.68561435354403
18400.0000000127,12.9343311515379,1.00000000565425,0.695854986471057
18500.0000000113,13.2601352812229,1.00000000595775,0.693026213079407
18600.0000000098,13.5653103538561,1.00000000581823,0.713581739439529
18700.0000000084,13.8600090353394,1.00000000585756,0.710363151919392
18800.0000000069,14.1513165918435,1.00000000555159,0.708259059696978
18900.0000000055,14.4356354564653,1.00000000684478,0.719024105978704
19000.000000004,14.6960583200537,1.000000005738,0.717823204410108
19100.0000000026,14.9443561265459,1.00000000579274,0.718703336590629
19200.0000000011,15.1919053112378,1.00000000568824,0.693549714164314
19299.9999999996,15.4300077415107,1.00000000557281,0.725173959656655
19399.9999999982,15.6796832402035,1.00000000537119,0.718237546928498
19499.9999999967,15.9368011586117,1.0000000052536,0.712155936929624
19599.9999999953,16.1908495008236,1.00000000548337,0.712901059001488
19699.9999999938,16.4381936121666,1.00000000591652,0.724266603814602
19799.9999999924,16.6795114081072,1.00000000588174,0.708715300570188
19899.9999999909,16.9426346843773,1.00000000569458,0.714054316906891
19999.9999999895,17.1953603146724,1.00000000603464,0.724920691413564
20099.999999988,17.456907479851,1.00000000608313,0.723905281212346
20199.9999999865,17.7387663924684,1.00000000605397,0.723438880060759
20299.9999999851,18.0229022344652,1.0000000065998,0.731479842210541
20399.9999999836,18.2956702153786,1.00000000580231,0.732274642964583
20499.9999999822,18.5470323408276,1.00000000641674,0.728580987619721
20599.9999999807,18.7834485402875,1.00000000701953,0.726791667676336
20699.9999999793,19.017659003445,1.00000000606949,0.729235752778309
20799.9999999778,19.2701731309878,1.00000000581733,0.723828309636413
20899.9999999764,19.5336982028356,1.00000000570391,0.726404700824877
20999.9999999749,19.7997925678145,1.00000000598548,0.724908004042394
21099.9999999734,20.0614541194486,1.00000000667071,0.724307628892561
21199.999999972,20.3152436317892,1.00000000597758,0.722723687328591
21299.9999999705,20.5698380464901,1.00000000587787,0.727032788835581
21399.9999999691,20.8306779301929,1.00000000558865,0.714571798089546
21499.9999999676,21.1120567358966,1.00000000582419,0.711776977307152
21599.9999999662,21.3847523264105,1.00000000630721,0.72201879856883
21699.9999999647,21.6597156574922,1.00000000566961,0.717243014976779
21799.9999999633,21.9573417463586,1.00000000638496,0.726515274706441
21899.9999999618,22.2403410655408,1.00000000657135,0.717176382162177
21999.9999999603,22.5226515474947,1.00000000722076,0.733946628547379
22099.9999999589,22.7970111483453,1.00000000614166,0.718361925523938
22199.9999999574,23.0792622806733,1.00000000625306,0.711917502697118
22299.999999956,23.3713127954807,1.00000000580157,0.724152124391914
22399.9999999545,23.6621560436993,1.00000000687391,0.730216439066153
22499.9999999531,23.9479846034459,1.0000000064879,0.709127646306768
22599.9999999516,24.2408308208373,1.00000000625503,0.708110166535891
22699.9999999502,24.5486623174151,1.00000000627491,0.72490249737368
22799.9999999487,24.8560766814567,1.00000000671589,0.734279583300837
22899.9999999473,25.1544158583873,1.00000000630993,0.720994656697244
22999.9999999458,25.4510114210958,1.00000000640965,0.716774846378909
23099.9999999443,25.7507996285201,1.00000000633405,0.72833857829618
23199.9999999429,26.0534805582998,1.00000000659842,0.72257660945527
23299.9999999414,26.3698385768292,1.00000000659328,0.714435375394747
23399.99999994,26.6880722829517,1.00000000793734,0.707815944277519
23499.9999999385,27.015546368843,1.00000000656309,0.710885890748865
23599.9999999371,27.3585594335271,1.00000000679411,0.710610571622401
23699.9999999356,27.7126351145796,1.00000000677872,0.724379553671079
23799.9999999342,28.0630345307795,1.00000000733768,0.731179671385532
23899.9999999327,28.4000341210939,1.00000000752855,0.726941174324631
23999.9999999312,28.7214496324314,1.00000000752154,0.717076081753915
24099.9999999298,29.0410144492001,1.00000000710662,0.736799247048947
24199.9999999283,29.3655779437016,1.00000000692549,0.738214626156391
24299.9999999269,29.7068553416386,1.00000000589243,0.727841656609478
24399.9999999254,30.0735752192005,1.00000000629571,0.727444147906368
24499.999999924,30.4644137443522,1.00000000719949,0.724588504134222
24599.9999999225,30.8755441073344,1.00000000734636,0.734938386730142
24699.9999999211,31.2839738557275,1.00000000779386,0.737863791752015
24799.9999999196,31.6883617978561,1.00000000688315,0.717218690727447
24899.9999999181,32.0953100385179,1.00000000709485,0.706771140347334
24999.9999999167,32.4799333813894,1.00000000793883,0.728548886582054
25099.9999999152,32.84384417457,1.00000000743027,0.731071051746828
25199.9999999138,33.1961145632362,1.00000000694102,0.727913386973275
25299.9999999123,33.5641555104641,1.00000000696972,0.727875684909705
25399.9999999109,33.9419661147108,1.00000000752213,0.741902107095401
25499.9999999094,34.3238385663795,1.00000000678912,0.72969760833341
25599.999999908,34.7264973890324,1.0000000068271,0.72626215093219
25699.9999999065,35.158231910852,1.00000000667421,0.723685287031588
25799.9999999051,35.607614018988,1.0000000070026,0.726875912586924
25899.9999999036,36.0622218504403,1.00000000774698,0.71414788228649
25999.9999999021,36.5252113059248,1.00000000743501,0.716369551961594
26099.9999999007,36.978824923522,1.00000000733354,0.723064675024029
26199.9999998992,37.4158577373979,1.00000000739331,0.724799998364538
26299.9999998978,37.8490894589698,1.00000000712382,0.730607132976486
26399.9999998963,38.2902525823263,1.00000000743193,0.738099174414803
26499.9999998949,38.7313014768687,1.00000000704745,0.735927192376241
26599.9999998934,39.1788833439226,1.00000000647847,0.735215410166321
26699.999999892,39.6272034475968,1.00000000738824,0.738239642612128
26799.9999998905,40.0790478428364,1.00000000724056,0.736064901102307
26899.999999889,40.5404613074024,1.00000000725252,0.727205735875494
26999.9999998876,41.0210563398834,1.00000000739298,0.730038930329788
27099.9999998861,41.4997082319569,1.00000000799426,0.730475362718581
27199.9999998847,41.9782543578482,1.00000000717364,0.729059366201043
27299.9999998832,42.4676216385936,1.00000000745674,0.725858799472642
27399.9999998818,42.9475161742001,1.00000000835193,0.730573254098386
27499.9999998803,43.4111221317051,1.00000000695494,0.72835864357621
27599.9999998789,43.8763241255001,1.00000000771566,0.733666056652527
27699.9999998774,44.3521589630872,1.00000000798972,0.733997192735618
27799.9999998759,44.8297335323913,1.00000000823247,0.731085379578382
27899.9999998745,45.3232276427903,1.00000000673442,0.72882594087295
27999.999999873,45.8331548018628,1.0000000074068,0.724620189034066
28099.9999998716,46.3405545706545,1.00000000776504,0.730337370850664
28199.9999998701,46.8539990185365,1.00000000764091,0.736996576369299
28299.9999998687,47.3639280942271,1.00000000741958,0.741933075090534
28399.9999998672,47.8743112116574,1.00000000823705,0.741743197680276
28499.9999998658,48.3918402698601,1.00000000749138,0.733441206023077
28599.9999998643,48.9164515209517,1.00000000792282,0.744025264241133
28699.9999998629,49.4367734838832,1.00000000720618,0.740924791735192
28799.9999998614,49.9679803955174,1.00000000710028,0.735203655856999
28899.9999998599,50.4988204049849,1.00000000745656,0.7331810430975
28999.9999998585,51.0233243615495,1.00000000786392,0.744839422880799
