Time,AGPnorm,Energy,Entropy
0,0,1,-1.1872699479764e-17
99.9999999999986,4.02031556290033e-05,1.00000000000258,0.00158499517337615
199.999999999993,0.0033639369658011,1.00000000000154,0.0024707775903068
300,0.00845773416190768,1.00000000000067,0.00442490301279725
400.000000000022,0.0118043590316108,1.00000000000309,0.00742348973920699
500.000000000045,0.0145427125769053,1.00000000000013,0.00994471506666147
600.000000000068,0.020605237986862,1.00000000000221,0.0138737375140751
700.000000000091,0.0253999681191336,1.00000000000194,0.0175888713722301
800.000000000113,0.0325963723489081,1.00000000000046,0.021756075569548
900.000000000136,0.0404378617104891,1.00000000000307,0.0266489018025727
1000.00000000016,0.0468826648606225,1.00000000000032,0.0312517611002185
1100.0000000001,0.0557401735040464,1.00000000000185,0.0367579980743159
1200,0.0653497009062998,1.00000000000233,0.0422764904448967
1299.99999999991,0.0753953950539605,1.00000000000031,0.0481323879459053
1399.99999999982,0.0855233252628165,1.00000000000291,0.0546144017783713
1499.99999999973,0.0950744675423967,1.00000000000062,0.0609515305426537
1599.99999999964,0.106108027527339,1.00000000000157,0.0680856107054029
1699.99999999955,0.118343485123037,1.00000000000262,0.0754464144212405
1799.99999999946,0.130149261382891,1.00000000000018,0.0831342298868953
1899.99999999937,0.141708330516426,1.00000000000263,0.0915223831984185
1999.99999999928,0.153526738386745,1.00000000000101,0.0999984005856144
2099.99999999919,0.165837533309184,1.00000000000137,0.109395153448742
2199.99999999909,0.178800554107405,1.00000000000286,0.119399530373291
2299.999999999,0.191015937139368,1.00000000000026,0.129937087548059
2399.99999999891,0.203054673712676,1.00000000000255,0.141724814751414
2499.99999999882,0.215716726201584,1.00000000000236,0.154345996157193
2599.99999999873,0.228582110078534,1.00000000000455,0.168667644704627
2699.99999999864,0.240950328423039,1.00000000001285,0.184715460411174
2799.99999999855,0.252153010504941,1.00000000002512,0.201960072812197
2899.99999999846,0.266475270715353,1.0000000000521,0.220868896064654
2999.99999999837,0.27671276725461,1.00000000009011,0.240231954546334
3099.99999999828,0.295484408758852,1.00000000014084,0.259822455422549
3199.99999999819,0.318866612356624,1.00000000020573,0.279393407887904
3299.99999999809,0.344922427900277,1.00000000026228,0.298100412517865
3399.999999998,0.406898777644325,1.00000000034468,0.316732459288109
3499.99999999791,0.479404723221564,1.00000000040607,0.334707317530708
3599.99999999782,0.605110473744583,1.00000000048869,0.351981771334189
3699.99999999773,0.792308099634932,1.00000000054866,0.368884231654511
3799.99999999764,1.03466480168903,1.00000000064722,0.384586583376915
3899.99999999755,1.3952048502534,1.00000000068462,0.400054236461905
3999.99999999746,1.84662690461271,1.00000000078903,0.414407635741984
4099.99999999738,2.43658662253811,1.00000000083983,0.428114701291581
4199.99999999775,3.18405405797298,1.00000000085235,0.441327026710006
4299.99999999811,4.07680509261459,1.00000000091245,0.453466984918422
4399.99999999848,5.17347161764977,1.00000000095232,0.4651327817437
4499.99999999884,6.4486510801229,1.00000000107333,0.475784709134604
4599.9999999992,7.93599872393228,1.00000000100876,0.486037162817184
4699.99999999957,9.64314132646196,1.00000000108574,0.495583580339464
4799.99999999993,11.5565592221398,1.00000000110216,0.504131842321789
4900.00000000029,13.7119096966209,1.00000000112203,0.512521114348663
5000.00000000066,16.0757564432501,1.00000000110383,0.520275466579906
5100.00000000102,18.6731384442837,1.00000000120259,0.526957692071334
5200.00000000139,21.4892362712996,1.00000000118928,0.533852655877101
5300.00000000175,24.5081510738876,1.00000000121676,0.539492668802787
5400.00000000211,27.7514949772268,1.00000000118394,0.545264008186793
5500.00000000248,31.1699615951055,1.00000000119749,0.550577490444381
5600.00000000284,34.7874607544501,1.00000000122047,0.554864395257882
5700.00000000321,38.575017966878,1.00000000114607,0.559817647887182
5800.00000000357,42.5081709434926,1.0000000011938,0.563630459801571
5900.00000000393,46.6096182142906,1.00000000120105,0.567125498374395
6000.0000000043,50.81710521037,1.00000000119608,0.570660756806144
6100.00000000466,55.1522160527276,1.00000000118117,0.573321199324917
6200.00000000502,59.5885291218733,1.00000000116357,0.576247543442316
6300.00000000539,64.0881489829791,1.00000000118397,0.57885279574691
6400.00000000575,68.6825649384148,1.00000000116699,0.580738302090582
6500.00000000612,73.3066002842148,1.00000000114438,0.583216674185145
6600.00000000648,77.9751845896685,1.00000000110747,0.584801767688366
6700.00000000684,82.6748578488922,1.00000000113742,0.586436562165275
6800.00000000721,87.3578500807468,1.00000000111733,0.587885286789929
6900.00000000757,92.0611792978252,1.00000000107392,0.58860811928011
7000.00000000793,96.7277681092305,1.00000000113719,0.590165646788067
7100.0000000083,101.361766844252,1.00000000108144,0.590766877687465
7200.00000000866,105.965982784903,1.00000000105844,0.591250697173039
7300.00000000903,110.490355143417,1.00000000106008,0.592377667108195
7400.00000000939,114.970731890784,1.00000000105875,0.592430209683089
7500.00000000975,119.364647850466,1.00000000103602,0.593149291157949
7600.00000001012,123.66811348,1.00000000101434,0.593127913701978
7700.00000001048,127.894463617594,1.0000000009807,0.593335875649953
7800.00000001084,131.99824230767,1.00000000096592,0.59394293370169
7900.00000001121,136.009251036111,1.00000000094496,0.593586082310955
8000.00000001157,139.902287225944,1.00000000095116,0.593422415418588
8100.00000001194,143.666805042419,1.00000000099723,0.593973636408464
8200.0000000123,147.323675172228,1.00000000088974,0.592655338751609
8300.00000001266,150.833685168835,1.000000000943,0.593933976706648
8400.00000001303,154.223753044113,1.00000000095114,0.591768830655935
8500.00000001339,157.477230222565,1.00000000089913,0.593179695527704
8600.00000001376,160.584765839132,1.00000000085826,0.591897260859869
8700.00000001412,163.565609724718,1.00000000089162,0.5919552203433
8800.00000001448,166.393859570114,1.00000000087459,0.591243614365462
8900.00000001485,169.084881924172,1.00000000082904,0.59110457414232
9000.00000001521,171.637375430433,1.00000000081183,0.59040358330972
9100.00000001557,174.035254251353,1.00000000081781,0.590319672947632
9200.00000001594,176.305343559032,1.00000000082763,0.589557840573407
9300.0000000163,178.421455092663,1.00000000081424,0.588808613425594
9400.00000001667,180.40238685092,1.00000000080772,0.589420841535434
9500.00000001703,182.246376513316,1.00000000076033,0.587089617060638
9600.00000001739,183.94273322552,1.00000000074888,0.588917137080942
9700.00000001776,185.514710530996,1.00000000073758,0.586879347230355
9800.00000001812,186.943876817133,1.00000000074073,0.586867205794091
9900.00000001848,188.244492685041,1.00000000073212,0.58719606104341
10000.0000000188,189.42021195189,1.00000000072098,0.585445478118189
10100.0000000192,190.462088567803,1.00000000069088,0.586348532302478
10200.0000000196,191.389331400775,1.00000000069476,0.585100635217028
10300.0000000199,192.192081856225,1.00000000069202,0.585107552858403
10400.0000000203,192.879006231686,1.00000000067395,0.585452802845355
10500.0000000207,193.457520949047,1.00000000066601,0.584304737392716
10600.000000021,193.919631136141,1.00000000065222,0.584529643284709
10700.0000000214,194.283388057939,1.0000000006631,0.585589697222509
10800.0000000218,194.545331208017,1.0000000006518,0.583254135077681
10900.0000000221,194.707155891512,1.00000000065317,0.582034821486022
11000.0000000225,194.780925068211,1.00000000066307,0.585946192679419
11100.0000000229,194.766802227067,1.00000000066114,0.583281657515459
11200.0000000232,194.669280551933,1.00000000062432,0.57702817097762
11300.0000000236,194.488392781784,1.00000000066462,0.584627674470485
11400.0000000239,194.241887504174,1.00000000067436,0.58399214152758
11500.0000000243,193.92869730828,1.00000000060082,0.57316885568928
11600.0000000247,193.538213402091,1.00000000060136,0.576351058083507
11700.000000025,193.09706165845,1.00000000066956,0.584511746974688
11800.0000000254,192.606885538609,1.00000000062269,0.575822809353301
11900.0000000258,192.057061260404,1.00000000057443,0.567532408143835
12000.0000000261,191.452700840347,1.00000000066848,0.576033482245322
12100.0000000265,190.809827022264,1.00000000071974,0.582161073465979
12200.0000000269,190.136692244423,1.00000000065724,0.57224597659675
12300.0000000272,189.416875530812,1.00000000059046,0.560859644411763
12400.0000000276,188.652696910192,1.00000000065746,0.570258752511515
12500.0000000279,187.869023312734,1.00000000076835,0.582610322155339
12600.0000000283,187.065579502229,1.00000000066825,0.569247260209242
12700.0000000287,186.232304226679,1.00000000059231,0.555765884103728
12800.000000029,185.359064195288,1.00000000063585,0.557856158151884
12900.0000000294,184.470284799557,1.00000000078218,0.58465005080647
13000.0000000298,183.581030293225,1.00000000069833,0.57004812220876
13100.0000000301,182.673004159298,1.0000000006141,0.554421403946783
13200.0000000305,181.737008329491,1.00000000057173,0.544357038603578
13300.0000000309,180.780799664779,1.00000000073911,0.571456242581741
13400.0000000312,179.82799759745,1.00000000076479,0.580488877747108
13500.0000000316,178.878055317505,1.00000000070601,0.557933643200919
13600.0000000319,177.912474840212,1.00000000059221,0.54276634738373
13700.0000000323,176.927258109454,1.00000000057958,0.542641849350191
13800.0000000327,175.935645174023,1.00000000077216,0.572772354700817
13900.000000033,174.952596744361,1.00000000078117,0.575877374461543
14000.0000000334,173.976814370166,1.00000000071892,0.549698770970035
14100.0000000338,172.99194959901,1.000000000575,0.537614358006824
14200.0000000341,171.994965916956,1.00000000062857,0.539824014026199
14300.0000000345,170.994339268475,1.00000000074092,0.559816201499108
14400.0000000349,170.002980902563,1.00000000080349,0.577017324604988
14500.0000000352,169.023179741165,1.00000000075642,0.552909459088285
14600.0000000356,168.043734797038,1.00000000060789,0.532267015195631
14700.0000000359,167.058159433293,1.00000000061274,0.537857271873299
14800.0000000363,166.069578733525,1.00000000067983,0.544033179101686
14900.0000000367,165.085312515594,1.00000000077546,0.562417534210951
15000.000000037,164.11409459142,1.00000000078407,0.567587906261933
15100.0000000374,163.150889183246,1.00000000076028,0.5401271485297
15200.0000000378,162.190347716727,1.00000000060132,0.526613120580828
15300.0000000381,161.229162722771,1.00000000065984,0.54057391657576
15400.0000000385,160.269199086455,1.00000000068774,0.544618151174925
15500.0000000389,159.316183712603,1.0000000007403,0.550781793223419
15600.0000000392,158.372607261067,1.00000000077458,0.559857484358495
15700.0000000396,157.438785700678,1.00000000074843,0.54389853798925
15800.0000000399,156.510868202853,1.00000000064524,0.523257956780862
15900.0000000403,155.58602365854,1.00000000063698,0.535544169118185
16000.0000000407,154.666581104433,1.00000000066938,0.545990586324844
16100.000000041,153.75221394208,1.00000000072962,0.544227133158752
16200.0000000414,152.845500389864,1.0000000007384,0.544406080328097
16300.0000000418,151.948326586736,1.00000000073109,0.547327909727388
16400.0000000418,151.058771863212,1.00000000067372,0.538727084682038
16500.0000000404,150.176935105203,1.00000000066746,0.527499610398716
16600.0000000389,149.301439073628,1.00000000066101,0.533291053797009
16700.0000000375,148.432765942082,1.00000000069991,0.547121208823866
16800.000000036,147.571298441492,1.00000000070036,0.544800306079035
16900.0000000346,146.716994692905,1.00000000070292,0.535474061398242
17000.0000000331,145.871010817867,1.00000000067732,0.535879121720084
17100.0000000317,145.033212564846,1.00000000071192,0.543513392602063
17200.0000000302,144.203325722174,1.00000000070876,0.537764564318041
17300.0000000287,143.381873807643,1.00000000065455,0.52982362020633
17400.0000000273,142.568162738501,1.00000000067658,0.539704049453957
17500.0000000258,141.76289570355,1.00000000069417,0.549062335431857
17600.0000000244,140.96515043955,1.00000000067892,0.540772974731971
17700.0000000229,140.175313019402,1.0000000006765,0.532330565715992
17800.0000000215,139.393882026096,1.00000000070324,0.532393052028749
17900.00000002,138.620445663434,1.00000000069587,0.540731131051938
18000.0000000186,137.855386140957,1.00000000068295,0.545538406748638
18100.0000000171,137.098672772963,1.00000000069445,0.539455602506052
18200.0000000156,136.350425343358,1.00000000064618,0.538026767366641
18300.0000000142,135.610980560409,1.00000000070152,0.549142407115884
18400.0000000127,134.880151892191,1.00000000061058,0.544427384057675
18500.0000000113,134.158310172356,1.00000000063814,0.536509636782383
18600.0000000098,133.444771283989,1.0000000006726,0.531973174798427
18700.0000000084,132.739596496175,1.00000000065531,0.532489043126638
18800.0000000069,132.043216049377,1.00000000069763,0.537296641745758
18900.0000000055,131.354676610069,1.00000000068978,0.547753270451477
19000.000000004,130.674127337017,1.00000000068,0.547986076813482
19100.0000000026,130.001634373332,1.00000000067398,0.54084742972341
19200.0000000011,129.33723761377,1.000000000724,0.547261402099012
19299.9999999996,128.681534042045,1.00000000064224,0.548248642885053
19399.9999999982,128.035529074425,1.00000000061645,0.538097395150892
19499.9999999967,127.399453482278,1.00000000058988,0.527275336861281
19599.9999999953,126.772169259822,1.00000000071292,0.527562198728629
19699.9999999938,126.152797593558,1.00000000070704,0.531599040487428
19799.9999999924,125.541524881118,1.00000000068664,0.532231337874524
19899.9999999909,124.93755472367,1.00000000069713,0.543815682357874
19999.9999999895,124.340473342689,1.00000000067175,0.551457793869605
20099.999999988,123.750160267093,1.00000000070549,0.548658975341594
20199.9999999865,123.166314562684,1.00000000076854,0.549043467629455
20299.9999999851,122.589133029028,1.00000000070269,0.548396649667517
20399.9999999836,122.02114153054,1.00000000061935,0.537858789915734
20499.9999999822,121.464940325217,1.00000000058905,0.528805306713086
20599.9999999807,120.919391923248,1.00000000061677,0.520609274537094
20699.9999999793,120.382078001283,1.00000000067801,0.52379756733494
20799.9999999778,119.851109136311,1.00000000072086,0.528274475616844
20899.9999999764,119.326672946935,1.00000000070946,0.527242866455709
20999.9999999749,118.809386452779,1.00000000067497,0.533706734451856
21099.9999999734,118.297382707982,1.00000000071349,0.548597096993269
21199.999999972,117.789542609492,1.0000000007405,0.557480520832364
21299.9999999705,117.285392522251,1.00000000075905,0.553241396930077
21399.9999999691,116.78564964156,1.00000000072066,0.547336735585491
21499.9999999676,116.293156325096,1.00000000068017,0.539340568937959
21599.9999999662,115.811061685799,1.00000000061779,0.530769514628365
21699.9999999647,115.341006058125,1.00000000061192,0.528081826712035
21799.9999999633,114.881105174353,1.00000000064781,0.52488308337464
21899.9999999618,114.429255989935,1.00000000070572,0.518864708038802
21999.9999999603,113.983580638499,1.0000000007232,0.522408829418099
22099.9999999589,113.543514054927,1.00000000067707,0.521293476061693
22199.9999999574,113.109668169988,1.00000000066519,0.523708652876512
22299.999999956,112.679999736432,1.00000000071562,0.537848877913848
22399.9999999545,112.251498426347,1.00000000076465,0.551986870949049
22499.9999999531,111.823752276879,1.00000000077279,0.560651561749949
22599.9999999516,111.398247521623,1.00000000073255,0.551702021879609
22699.9999999502,110.977748931191,1.00000000070987,0.540489002881314
22799.9999999487,110.56413627885,1.00000000069452,0.538599310791702
22899.9999999473,110.159363783993,1.00000000062569,0.53456967536327
22999.9999999458,109.765680455714,1.00000000065128,0.531082039155136
23099.9999999443,109.381264034234,1.00000000063678,0.533045337320162
23199.9999999429,109.005683359795,1.00000000067371,0.521545563910697
23299.9999999414,108.637868808905,1.00000000066087,0.515011077461451
23399.99999994,108.277402236484,1.00000000065881,0.515941483510027
23499.9999999385,107.922261206502,1.0000000007018,0.522915012081208
23599.9999999371,107.570575773747,1.00000000069778,0.528548511207786
23699.9999999356,107.220502172175,1.00000000073016,0.537575128953117
23799.9999999342,106.869461692371,1.00000000076075,0.54628607880107
23899.9999999327,106.517150982598,1.00000000079151,0.552507161265341
23999.9999999312,106.165489179179,1.00000000072886,0.551702046764921
24099.9999999298,105.817642323691,1.0000000006909,0.543160500248864
24199.9999999283,105.475666791682,1.00000000066339,0.537847027492366
24299.9999999269,105.14045714555,1.00000000064442,0.54188456058958
24399.9999999254,104.811460142609,1.00000000070237,0.545090615578303
24499.999999924,104.490008099438,1.00000000067433,0.540831880846471
24599.9999999225,104.177297329159,1.00000000064526,0.534799117531156
24699.9999999211,103.873928481891,1.0000000006324,0.52771611519424
24799.9999999196,103.579837962295,1.00000000063751,0.519137523639426
24899.9999999181,103.294970082551,1.00000000065208,0.514766453866484
24999.9999999167,103.017211208445,1.00000000069593,0.523680983803462
25099.9999999152,102.742305001807,1.00000000071451,0.531000706216746
25199.9999999138,102.468042117317,1.00000000076132,0.540635642059706
25299.9999999123,102.193069111357,1.00000000073008,0.545822569893266
25399.9999999109,101.91658987957,1.00000000074693,0.545719772975661
25499.9999999094,101.638724069141,1.00000000076256,0.549167077136333
25599.999999908,101.360091444506,1.00000000072371,0.55156587430409
25699.9999999065,101.084826648858,1.00000000064961,0.544606750540298
25799.9999999051,100.815393106814,1.00000000064792,0.543429390078266
25899.9999999036,100.550962753791,1.00000000069491,0.547133396831763
25999.9999999021,100.290389735769,1.00000000071081,0.549539436512113
26099.9999999007,100.032846441449,1.00000000070424,0.553861891425993
26199.9999998992,99.7791480910326,1.00000000069985,0.551066435872007
26299.9999998978,99.5330723143693,1.00000000064125,0.538432510419066
26399.9999998963,99.2974843671153,1.00000000059939,0.528480937307762
26499.9999998949,99.0732647563935,1.00000000060362,0.524322252193253
26599.9999998934,98.8578208977672,1.00000000067194,0.525653159604393
26699.999999892,98.6495811164158,1.00000000066967,0.525901516350552
26799.9999998905,98.4472193715429,1.00000000067203,0.530865256892916
26899.999999889,98.2480796717727,1.00000000068581,0.537399103214393
26999.9999998876,98.0485221439323,1.00000000074268,0.545657677051551
27099.9999998861,97.8463371755911,1.00000000075418,0.555687123012066
27199.9999998847,97.6417042935541,1.00000000070616,0.551558743470988
27299.9999998832,97.4358243075179,1.00000000072019,0.548058616598175
27399.9999998818,97.2285387022293,1.00000000073313,0.549514346684844
27499.9999998803,97.0221767522248,1.00000000069229,0.544076416010262
27599.9999998789,96.8190309493346,1.00000000062773,0.548442148065953
27699.9999998774,96.6197016027433,1.00000000065341,0.552281849811784
27799.9999998759,96.4233013586688,1.00000000072022,0.555287673676968
27899.9999998745,96.2276998347263,1.00000000077492,0.558407948294496
27999.999999873,96.0322995420361,1.00000000075732,0.55363231051555
28099.9999998716,95.8381161008323,1.00000000075638,0.551149115933573
28199.9999998701,95.6470308080848,1.00000000070315,0.547540181879961
28299.9999998687,95.4636166291155,1.0000000006085,0.536295746936738
28399.9999998672,95.2900653302974,1.00000000059879,0.531136547082488
28499.9999998658,95.1279669428336,1.00000000062572,0.525440174442436
28599.9999998643,94.975025043737,1.00000000066286,0.528067899914565
28699.9999998629,94.8275713345034,1.00000000073019,0.530509963197918
28799.9999998614,94.684016021025,1.0000000007035,0.534556452113226
28899.9999998599,94.54367721282,1.00000000068902,0.539731312059656
28999.9999998585,94.4053846048551,1.00000000069984,0.548379256816341
