Time,AGPnorm,Energy,Entropy
0,0,1,1.57501803104231e-18
99.9999999999986,0.00964356774713392,1.00000000000305,0.0270455720835433
199.999999999993,0.0260145823687787,1.00000000000083,0.0790118004476205
300,0.0504622451210453,1.00000000000683,0.160525542407683
400.000000000022,0.0771588054331019,1.00000000033702,0.289761951525841
500.000000000045,0.164013162405257,1.00000000176866,0.43495533104293
600.000000000068,0.733691426282246,1.00000000294194,0.526490266539814
700.000000000091,2.07254501499882,1.00000000344465,0.571073642829478
800.000000000113,4.11215370558732,1.00000000374604,0.589830037838283
900.000000000136,6.57151885095503,1.00000000367303,0.590482490543434
1000.00000000016,8.98826581032749,1.00000000342159,0.586106462981364
1100.0000000001,11.1505151502956,1.00000000305665,0.577575466262347
1200,12.8187955596482,1.00000000275914,0.566389950609078
1299.99999999991,13.9776674224016,1.00000000274232,0.563782022518242
1399.99999999982,14.6248919625549,1.0000000023545,0.563922639826167
1499.99999999973,14.8438487272273,1.00000000185922,0.53153215543281
1599.99999999964,14.796334713272,1.0000000020478,0.528013512823466
1699.99999999955,14.4988660141146,1.00000000277101,0.581686222904839
1799.99999999946,14.1026106577604,1.00000000129941,0.451209246786551
1899.99999999937,13.6350961279903,1.0000000032533,0.584943433212825
1999.99999999928,13.1547529362837,1.00000000127846,0.413968927430304
2099.99999999919,12.6325996219884,1.00000000311871,0.56135391674318
2199.99999999909,12.1737050376367,1.00000000194106,0.466918662706764
2299.999999999,11.699711338274,1.00000000180922,0.446541710604114
2399.99999999891,11.2345395768337,1.00000000276416,0.551959432144193
2499.99999999882,10.8218314501198,1.00000000194668,0.493827143361801
2599.99999999873,10.4463454301544,1.00000000167456,0.417215468579102
2699.99999999864,10.0763567167017,1.00000000242169,0.513382963718688
2799.99999999855,9.7242853575004,1.00000000259035,0.537983515401524
2899.99999999846,9.39433536812224,1.00000000234903,0.531119593079063
2999.99999999837,9.13192315190102,1.00000000118542,0.405181917178067
3099.99999999828,8.90202881315875,1.00000000271979,0.493785772663193
3199.99999999819,8.66312983840609,1.00000000212503,0.52628411299277
3299.99999999809,8.43649907164603,1.00000000224887,0.544384757281389
3399.999999998,8.20279792531426,1.00000000281959,0.553957876147896
3499.99999999791,7.98611568211887,1.00000000179953,0.51081208261518
3599.99999999782,7.85494548572847,1.0000000015436,0.425624991594041
3699.99999999773,7.7722512092826,1.00000000212135,0.486684271119528
3799.99999999764,7.66460663723098,1.00000000251079,0.539038410971643
3899.99999999755,7.5598747461865,1.0000000023327,0.555968070800839
3999.99999999746,7.44130209906922,1.00000000248587,0.574003656731171
4099.99999999738,7.31183968298015,1.00000000218089,0.569695330250901
4199.99999999775,7.17698944157779,1.00000000277657,0.57292044726996
4299.99999999811,7.03214198074644,1.00000000280358,0.57961034173659
4399.99999999848,6.91367255660029,1.00000000170187,0.508932788107268
4499.99999999884,6.88814162879969,1.00000000147806,0.447928218505156
4599.9999999992,6.9222170168494,1.00000000247663,0.492547718735793
4699.99999999957,6.93632144554959,1.00000000237369,0.529518431093528
4799.99999999993,6.93217369939633,1.00000000236706,0.570398490988138
4900.00000000029,6.90744894015398,1.00000000244097,0.581262662989403
5000.00000000066,6.87459529908575,1.00000000224344,0.590394166789112
5100.00000000102,6.84150359026063,1.00000000245313,0.589151436651334
5200.00000000139,6.79117055774529,1.00000000249112,0.583608208145247
5300.00000000175,6.72354230067429,1.00000000244152,0.592972476552475
5400.00000000211,6.65215191863405,1.00000000225095,0.601887268169071
5500.00000000248,6.57631814271295,1.00000000237094,0.603418371021716
5600.00000000284,6.49194183287682,1.00000000275664,0.615359026648784
5700.00000000321,6.40153871542361,1.00000000296027,0.599384674775092
5800.00000000357,6.31058466452873,1.00000000244228,0.572819382774365
5900.00000000393,6.26217510270619,1.00000000155895,0.503103314950715
6000.0000000043,6.30559590958213,1.00000000152743,0.471979900655663
6100.00000000466,6.41807887004794,1.00000000215219,0.498457422402994
6200.00000000502,6.52435218972234,1.00000000271796,0.539364669676886
6300.00000000539,6.60992574900195,1.00000000244239,0.562812702841776
6400.00000000575,6.67668056055852,1.00000000246711,0.584194497801299
6500.00000000612,6.72846102675922,1.00000000249651,0.60592382983872
6600.00000000648,6.75562599292244,1.00000000248,0.617324145288953
6700.00000000684,6.77082765823371,1.00000000246854,0.628506192734657
6800.00000000721,6.77135418823242,1.00000000257001,0.624247454098365
6900.00000000757,6.75352115841621,1.00000000274162,0.638574206987654
7000.00000000793,6.73506082281224,1.00000000219507,0.623533703148877
7100.0000000083,6.72591452100681,1.00000000220214,0.613176675832375
7200.00000000866,6.71600756700857,1.00000000273608,0.600082079747628
7300.00000000903,6.68910353798935,1.00000000253185,0.613995676755212
7400.00000000939,6.66441873052489,1.00000000228192,0.617095483381696
7500.00000000975,6.64071574284846,1.00000000256493,0.632937250395623
7600.00000001012,6.61170808682792,1.0000000023113,0.632650104306659
7700.00000001048,6.57915022295088,1.00000000262622,0.626417197977746
7800.00000001084,6.54707022389289,1.0000000023901,0.61083490266401
7900.00000001121,6.50495619640665,1.00000000282883,0.633392515342518
8000.00000001157,6.45209090843345,1.000000002592,0.641145226003569
8100.00000001194,6.39321294562981,1.00000000255029,0.633663880897567
8200.0000000123,6.33462904002025,1.00000000249167,0.645058359164319
8300.00000001266,6.27556261579688,1.00000000272639,0.647844397341458
8400.00000001303,6.21729145532602,1.00000000287637,0.65907964779472
8500.00000001339,6.16297891192922,1.00000000289991,0.672094288290295
8600.00000001376,6.106664218146,1.000000003067,0.646794540054405
8700.00000001412,6.04402968227667,1.00000000252055,0.604688200516973
8800.00000001448,5.99602524823333,1.00000000211756,0.552650189846848
8900.00000001485,6.00085973562785,1.00000000171535,0.513942683495934
9000.00000001521,6.08609496013995,1.00000000172591,0.497202489990162
9100.00000001557,6.23872997367567,1.00000000238779,0.504606161120335
9200.00000001594,6.41868433880841,1.00000000271179,0.527892712522426
9300.0000000163,6.58966674315744,1.00000000262835,0.551373502509248
9400.00000001667,6.7434519125984,1.00000000269636,0.563043110028263
9500.00000001703,6.88484296296845,1.00000000267716,0.574895009107402
9600.00000001739,7.0061073414341,1.00000000267754,0.59288319869839
9700.00000001776,7.11388317002822,1.0000000026464,0.59563213530473
9800.00000001812,7.20424332814916,1.00000000289402,0.625065446615573
9900.00000001848,7.27952496199755,1.00000000284432,0.637112458912841
10000.0000000188,7.34420112133445,1.00000000298414,0.613668027992165
10100.0000000192,7.39556009014444,1.00000000270726,0.640152667622478
10200.0000000196,7.43007228363587,1.00000000277247,0.657839439954752
10300.0000000199,7.4579508376273,1.00000000296095,0.655216786333025
10400.0000000203,7.48271450637142,1.00000000272888,0.6394540756323
10500.0000000207,7.50609048110253,1.00000000276313,0.642820541233212
10600.000000021,7.51859552333266,1.00000000293533,0.656977171314525
10700.0000000214,7.52877729486184,1.00000000264927,0.657671518414471
10800.0000000218,7.53516759595585,1.00000000294517,0.660958444313491
10900.0000000221,7.53085237206366,1.00000000267268,0.661337094383916
11000.0000000225,7.52614236296587,1.00000000286208,0.657157848690177
11100.0000000229,7.51655128645819,1.00000000273359,0.650292691591268
11200.0000000232,7.50526620060801,1.00000000304294,0.667808172798114
11300.0000000236,7.48791013942404,1.00000000287314,0.659264513092108
11400.0000000239,7.46677792727597,1.00000000288776,0.660920545011749
11500.0000000243,7.44758329978564,1.00000000292387,0.64880261368583
11600.0000000247,7.43211024293062,1.00000000274932,0.637307351972091
11700.000000025,7.42955023544767,1.00000000240541,0.613710156589581
11800.0000000254,7.44255726465788,1.00000000262729,0.611348210206416
11900.0000000258,7.46397302541529,1.00000000302138,0.622430078230158
12000.0000000261,7.47882779199661,1.00000000287343,0.621964143835196
12100.0000000265,7.49107318848771,1.00000000332021,0.630741326600852
12200.0000000269,7.49558028044008,1.00000000282179,0.628409833642363
12300.0000000272,7.50821256288017,1.00000000304295,0.634955740382043
12400.0000000276,7.51680081242107,1.00000000292934,0.624647431918911
12500.0000000279,7.52669565035446,1.0000000028727,0.647512393135855
12600.0000000283,7.54060263826032,1.00000000301926,0.656948856588638
12700.0000000287,7.55224530300822,1.00000000328389,0.666799946955027
12800.000000029,7.55624403190245,1.00000000322758,0.663041550572283
12900.0000000294,7.56169725869627,1.00000000287002,0.657868514177152
13000.0000000298,7.57368518308277,1.00000000311279,0.653583387193719
13100.0000000301,7.58935734647629,1.00000000288006,0.648107978715183
13200.0000000305,7.60865025784854,1.00000000300949,0.646755253087762
13300.0000000309,7.62351353984108,1.00000000335964,0.662639502234156
13400.0000000312,7.63124583895816,1.00000000326439,0.668049101761938
13500.0000000316,7.64395333991655,1.00000000303864,0.674145233289326
13600.0000000319,7.66140430606239,1.00000000305562,0.6724187095803
13700.0000000323,7.67671248270801,1.00000000302308,0.654579491843398
13800.0000000327,7.69268500126022,1.00000000313252,0.66835093095436
13900.000000033,7.70130345997529,1.00000000334712,0.67096133789725
14000.0000000334,7.71412616651081,1.0000000030013,0.660797887320556
14100.0000000338,7.7271705774381,1.00000000345805,0.681506569894574
14200.0000000341,7.73499888320471,1.00000000300599,0.683459927106793
14300.0000000345,7.74370214751734,1.00000000272423,0.670564565235406
14400.0000000349,7.75513830509413,1.0000000032309,0.675980409182437
14500.0000000352,7.75626250898349,1.0000000033108,0.663170768748518
14600.0000000356,7.75253164886146,1.0000000035603,0.662550800703769
14700.0000000359,7.75317327897269,1.00000000306603,0.666536375094869
14800.0000000363,7.75540835906984,1.00000000338561,0.671961424017151
14900.0000000367,7.761854110818,1.00000000297608,0.67023216908113
15000.000000037,7.76186456441366,1.00000000372369,0.685263709366214
15100.0000000374,7.75451343697958,1.00000000309631,0.677753140600979
15200.0000000378,7.74909620625303,1.00000000296269,0.67099073343472
15300.0000000381,7.74465309439271,1.00000000346005,0.672797321245482
15400.0000000385,7.74033413595412,1.00000000307958,0.673965893493667
15500.0000000389,7.73142277115614,1.00000000323489,0.678151875072735
15600.0000000392,7.7135302593647,1.00000000378324,0.666770906709239
15700.0000000396,7.69559058228296,1.00000000306524,0.672262997174126
15800.0000000399,7.67589722401718,1.00000000333934,0.674788123725644
15900.0000000403,7.6519042231106,1.0000000034537,0.692260942138555
16000.0000000407,7.62136633604119,1.00000000351008,0.685473429389202
16100.000000041,7.58822684856737,1.00000000324507,0.689630526629729
16200.0000000414,7.55443738691343,1.00000000332054,0.691030141376262
16300.0000000418,7.51926481299767,1.00000000349905,0.687136966848445
16400.0000000418,7.48508229460816,1.00000000301957,0.684178519377474
16500.0000000404,7.45240727054921,1.00000000328434,0.674741362032593
16600.0000000389,7.42194993441462,1.00000000305089,0.679489680977942
16700.0000000375,7.39586593449914,1.0000000038962,0.671371079852218
16800.000000036,7.3731994027202,1.0000000037115,0.677384657834457
16900.0000000346,7.35476334194443,1.00000000384924,0.690663899483872
17000.0000000331,7.34194889742126,1.00000000382133,0.693315197124054
17100.0000000317,7.32949769921862,1.00000000397149,0.700326408163551
17200.0000000302,7.31634306124778,1.00000000364809,0.686436992088683
17300.0000000287,7.29687915774028,1.00000000347032,0.659999090987117
17400.0000000273,7.26932079796276,1.00000000359766,0.640415503048054
17500.0000000258,7.23954113355718,1.00000000304688,0.612998744828976
17600.0000000244,7.22041187176591,1.00000000294556,0.586559935406124
17700.0000000229,7.23403067912555,1.00000000272133,0.574662627866845
17800.0000000215,7.29467323093677,1.00000000283278,0.55696987963217
17900.00000002,7.4226835317921,1.00000000277978,0.545083726392869
18000.0000000186,7.62246676437754,1.00000000277849,0.535390320733116
18100.0000000171,7.9089131573182,1.00000000291528,0.539673918113492
18200.0000000156,8.24257980247371,1.00000000325892,0.54335113678759
18300.0000000142,8.64197054678665,1.00000000342918,0.554642440465705
18400.0000000127,9.03444158547575,1.00000000359761,0.561147604185779
18500.0000000113,9.45512019748917,1.00000000381205,0.569589303239698
18600.0000000098,9.84937593851808,1.00000000344151,0.578433778787089
18700.0000000084,10.2484228028582,1.00000000376721,0.578384924571528
18800.0000000069,10.6328323140576,1.00000000352716,0.5900551543356
18900.0000000055,11.0099894107879,1.00000000359631,0.595774364072205
19000.000000004,11.3863792266993,1.00000000371106,0.608732171335298
19100.0000000026,11.7413675002057,1.00000000358158,0.605134500191488
19200.0000000011,12.1024363833289,1.00000000393162,0.614084533416657
19299.9999999996,12.4361742770645,1.00000000369422,0.626216869719988
19399.9999999982,12.7728890665246,1.00000000431031,0.639953652923992
19499.9999999967,13.0934123772334,1.00000000369574,0.661121498242967
19599.9999999953,13.4008571856602,1.00000000343173,0.664328987773633
19699.9999999938,13.7036314720819,1.00000000374737,0.673153474601644
19799.9999999924,13.9784703087158,1.00000000395404,0.658498751362288
19899.9999999909,14.2460844970204,1.00000000389236,0.680395395866024
19999.9999999895,14.4901700565782,1.00000000368587,0.668017152540174
20099.999999988,14.727222026947,1.00000000410414,0.66462845277042
20199.9999999865,14.9431547401429,1.00000000353721,0.676134111769381
20299.9999999851,15.1492505022312,1.00000000390857,0.687306461601986
20399.9999999836,15.3551032848191,1.00000000371739,0.684068945443462
20499.9999999822,15.5399920406929,1.00000000424448,0.681792276851407
20599.9999999807,15.7149742448286,1.00000000390929,0.698048722581278
20699.9999999793,15.8800203237862,1.0000000039046,0.677025186442227
20799.9999999778,16.0506455382885,1.0000000040515,0.678865858534917
20899.9999999764,16.2106978593734,1.00000000419127,0.691436898433566
20999.9999999749,16.3574656886307,1.00000000397972,0.694950495236345
21099.9999999734,16.4961317377989,1.0000000037561,0.693119973160626
21199.999999972,16.6150726027974,1.00000000431055,0.692620969284577
21299.9999999705,16.7265319271164,1.00000000440183,0.71231222655661
21399.9999999691,16.8402932300326,1.00000000376229,0.707807806261091
21499.9999999676,16.9794937690567,1.00000000363563,0.689368753957441
21599.9999999662,17.1311287766332,1.00000000396943,0.695582147070579
21699.9999999647,17.2726440290157,1.0000000041446,0.704192064340625
21799.9999999633,17.3937603848116,1.00000000478432,0.712072747034455
21899.9999999618,17.4991302035545,1.00000000419025,0.709226213707353
21999.9999999603,17.6084172536408,1.00000000378039,0.684150207694794
22099.9999999589,17.7351454397858,1.0000000035899,0.680003881025305
22199.9999999574,17.8722138108924,1.00000000413324,0.69559837773214
22299.999999956,18.0048933828967,1.00000000393432,0.699492359898696
22399.9999999545,18.1221334861969,1.00000000444219,0.702261312389741
22499.9999999531,18.2329490618565,1.00000000431825,0.702916785373323
22599.9999999516,18.3512139179432,1.00000000390355,0.699732254778895
22699.9999999502,18.4846806120845,1.00000000415379,0.696654998150841
22799.9999999487,18.6194197042346,1.00000000417495,0.70817531919347
22899.9999999473,18.7481276359044,1.00000000415277,0.697559138378608
22999.9999999458,18.8665649228042,1.00000000444104,0.697096398936654
23099.9999999443,18.9829801443523,1.00000000411925,0.70030450530163
23199.9999999429,19.109794779493,1.00000000392138,0.686719853033484
23299.9999999414,19.2413544647055,1.00000000414412,0.696805889378175
23399.99999994,19.3778970563735,1.00000000417389,0.683977513619046
23499.9999999385,19.5168289375546,1.00000000461852,0.71325086811896
23599.9999999371,19.6476412424265,1.0000000043716,0.718073184244421
23699.9999999356,19.7714168584959,1.00000000448656,0.699755064467609
23799.9999999342,19.8911871359938,1.00000000415221,0.703441840337617
23899.9999999327,20.0168754079827,1.0000000039443,0.698554622726446
23999.9999999312,20.143960771748,1.00000000463379,0.69702853982979
24099.9999999298,20.2741734726061,1.00000000382799,0.689559897922238
24199.9999999283,20.4173814033666,1.00000000383644,0.682438211681176
24299.9999999269,20.5655100685458,1.00000000423079,0.681087849155556
24399.9999999254,20.7131944579051,1.00000000481362,0.697184425265394
24499.999999924,20.8510185603005,1.00000000443363,0.700045153601407
24599.9999999225,20.9880493652432,1.00000000409244,0.681379790344003
24699.9999999211,21.1269370682864,1.00000000427661,0.704580117265879
24799.9999999196,21.2553181355697,1.00000000429125,0.698748533390547
24899.9999999181,21.382528510168,1.00000000435961,0.691513077649238
24999.9999999167,21.5141040324323,1.00000000391146,0.702462544122946
25099.9999999152,21.6538298623125,1.0000000042724,0.697792426087815
25199.9999999138,21.8006402800047,1.00000000429401,0.703846351779801
25299.9999999123,21.954097209701,1.00000000446267,0.677807029507114
25399.9999999109,22.1027108656008,1.00000000446418,0.703577785068666
25499.9999999094,22.2416583662856,1.00000000469809,0.702038089985878
25599.999999908,22.3699038952468,1.00000000421118,0.693542105316737
25699.9999999065,22.4941131612154,1.00000000440203,0.704978276809814
25799.9999999051,22.621746899842,1.00000000445705,0.715900157678328
25899.9999999036,22.7571654873284,1.00000000405105,0.708547978581119
25999.9999999021,22.9048485738742,1.00000000410044,0.695357147624758
26099.9999999007,23.0668451999833,1.00000000397661,0.696230238467167
26199.9999998992,23.2439778120998,1.00000000438713,0.692648129491979
26299.9999998978,23.4390988732971,1.00000000397687,0.686861107592182
26399.9999998963,23.647490511585,1.00000000416068,0.695195654900921
26499.9999998949,23.8567050443263,1.00000000423006,0.708007235855276
26599.9999998934,24.0602194660666,1.00000000465689,0.708662253629052
26699.999999892,24.2609685516156,1.00000000426767,0.69940632573661
26799.9999998905,24.4544258862932,1.00000000404599,0.706984938244433
26899.999999889,24.6410919296558,1.00000000419725,0.698724047543703
26999.9999998876,24.832560138663,1.00000000411937,0.688639133016538
27099.9999998861,25.0137480106638,1.00000000475247,0.709010770038429
27199.9999998847,25.2000732253224,1.00000000435446,0.691602359803935
27299.9999998832,25.397664489946,1.00000000431438,0.690751694901149
27399.9999998818,25.5847751181118,1.00000000476019,0.702670565120962
27499.9999998803,25.7649590459698,1.00000000442449,0.694711265779852
27599.9999998789,25.9585810168523,1.00000000444481,0.683451659275833
27699.9999998774,26.163252732586,1.00000000399684,0.673597605004049
27799.9999998759,26.3742553958707,1.00000000504385,0.688937659882389
27899.9999998745,26.5731339575576,1.00000000498059,0.693773942634908
27999.999999873,26.7621348790146,1.00000000489939,0.701319757522313
28099.9999998716,26.9578281920413,1.00000000423546,0.693402920413298
28199.9999998701,27.1583637338135,1.00000000460707,0.703858636503821
28299.9999998687,27.3645933612095,1.00000000485239,0.700366376005971
28399.9999998672,27.5571738049313,1.00000000519775,0.70971092854923
28499.9999998658,27.7404625644613,1.00000000516373,0.689213948155707
28599.9999998643,27.9233114570361,1.00000000434781,0.693577641361381
28699.9999998629,28.1189005112435,1.00000000446762,0.677931102997963
28799.9999998614,28.3342337581433,1.00000000483378,0.682534525536351
28899.9999998599,28.5550234939735,1.00000000472063,0.691423503623055
28999.9999998585,28.7624789940136,1.00000000489135,0.701142245658634
29099.999999857,28.953817509786,1.00000000529653,0.70332630298735
