Time,AGPnorm,Energy,Entropy
0,0,1,-7.19626882464147e-17
99.9999999999986,0.000646464432509724,0.99999999999876,0.00242225119874279
199.999999999993,0.00462441553162538,0.99999999999982,0.00725390553480565
300,0.00955344737465044,1.00000000000146,0.0135625487939809
400.000000000022,0.0145268744369883,1.00000000000097,0.0215355548233069
500.000000000045,0.0211250958747598,0.999999999998914,0.031054739556367
600.000000000068,0.0291453630579784,0.999999999998957,0.0419167024617203
700.000000000091,0.0382064230776184,1.00000000000101,0.0539867898078074
800.000000000113,0.0470972846427131,1.00000000000151,0.0672878907634048
900.000000000136,0.0575785445101962,0.999999999999927,0.0820727734986315
1000.00000000016,0.0681589389844556,0.999999999998358,0.0983024365273841
1100.0000000001,0.0800388371671485,1.00000000000027,0.116339133623447
1200,0.0905950223949745,1.00000000000192,0.136678742300886
1299.99999999991,0.101981068447271,1.00000000000243,0.159795307751097
1399.99999999982,0.113256446819901,1.00000000000551,0.186817610103818
1499.99999999973,0.124338802797831,1.00000000002306,0.218033081641417
1599.99999999964,0.139823568644999,1.00000000006774,0.253506483885578
1699.99999999955,0.162666548540404,1.00000000013887,0.290580538709891
1799.99999999946,0.202515213294047,1.0000000002395,0.327018353262984
1899.99999999937,0.290905511304407,1.00000000035394,0.360434853773822
1999.99999999928,0.487153793849,1.00000000046712,0.390546535570132
2099.99999999919,0.842044572047073,1.00000000059034,0.417507050127673
2199.99999999909,1.4132095407942,1.00000000067917,0.441193483033405
2299.999999999,2.27915977431997,1.00000000079465,0.461660336267317
2399.99999999891,3.50088300221453,1.00000000081138,0.479437057987786
2499.99999999882,5.11437191511965,1.00000000091245,0.494989905090712
2599.99999999873,7.15420869545444,1.00000000094119,0.508491649702416
2699.99999999864,9.65568300843214,1.00000000096939,0.519635260564217
2799.99999999855,12.6089099931884,1.00000000098604,0.528817400209233
2899.99999999846,15.9661366786377,1.00000000101179,0.536910396139297
2999.99999999837,19.7101958446218,1.00000000107569,0.543371124371291
3099.99999999828,23.8289957311531,1.00000000102837,0.548780021847625
3199.99999999819,28.2747229641079,1.00000000101727,0.552605781136246
3299.99999999809,32.9528380212548,1.00000000098705,0.556249201692992
3399.999999998,37.8021939656272,1.00000000102708,0.558776621888657
3499.99999999791,42.8054166983772,1.00000000097577,0.560575162554385
3599.99999999782,47.9145832769074,1.00000000098446,0.561329979848555
3699.99999999773,53.0466780139645,1.00000000097059,0.56193621677512
3799.99999999764,58.1292688069787,1.00000000094891,0.562094777326904
3899.99999999755,63.1400462421029,1.00000000094045,0.562196672003889
3999.99999999746,68.0562113598684,1.00000000091461,0.561013730994629
4099.99999999738,72.8311930534171,1.00000000082704,0.559333830506211
4199.99999999775,77.4056406759843,1.00000000088606,0.559118386859658
4299.99999999811,81.7522854562065,1.00000000084366,0.557556448347067
4399.99999999848,85.8787620590099,1.00000000082372,0.555759926312545
4499.99999999884,89.7645819629135,1.00000000081342,0.554079272761289
4599.9999999992,93.3839958585677,1.00000000076145,0.552180083909819
4699.99999999957,96.71320628564,1.00000000074513,0.551961234451876
4799.99999999993,99.757908179981,1.00000000073885,0.54848798299442
4900.00000000029,102.529492793088,1.00000000067821,0.548379731846828
5000.00000000066,105.020947382365,1.0000000007137,0.547316260670306
5100.00000000102,107.225506944737,1.00000000069982,0.543630331380409
5200.00000000139,109.143263758324,1.00000000066431,0.544216052318738
5300.00000000175,110.800119842815,1.00000000065953,0.547046382432853
5400.00000000211,112.203692982041,1.00000000063317,0.537088239160106
5500.00000000248,113.344983272687,1.00000000059811,0.534610685411122
5600.00000000284,114.245370805221,1.00000000063012,0.547695118871571
5700.00000000321,114.935338319846,1.00000000058518,0.541438276197432
5800.00000000357,115.400385063601,1.00000000052563,0.520895840839446
5900.00000000393,115.638931093368,1.00000000053796,0.535293514641842
6000.0000000043,115.72481608789,1.00000000066701,0.557067763649068
6100.00000000466,115.678033131605,1.00000000057824,0.53509370505858
6200.00000000502,115.438432477725,1.00000000044395,0.502295592986088
6300.00000000539,115.016481661748,1.00000000052955,0.529222661961422
6400.00000000575,114.520867427278,1.00000000072122,0.564779667492424
6500.00000000612,113.988189781703,1.00000000063884,0.543852700403882
6600.00000000648,113.336592073883,1.00000000039769,0.487728722591857
6700.00000000684,112.521531475852,1.00000000039344,0.490822391380236
6800.00000000721,111.638659547887,1.0000000006456,0.55309357256558
6900.00000000757,110.783203763631,1.00000000078519,0.571229425937482
7000.00000000793,109.935298818072,1.00000000060827,0.525586769351312
7100.0000000083,108.997682436284,1.00000000034422,0.453826980032181
7200.00000000866,107.943801670635,1.00000000039599,0.466348179204805
7300.00000000903,106.859375615738,1.00000000070072,0.542761073499752
7400.00000000939,105.826285778836,1.0000000008469,0.573707486864866
7500.00000000975,104.846063209572,1.00000000069389,0.546858895956742
7600.00000001012,103.849722527291,1.00000000047527,0.463915198148581
7700.00000001048,102.777660001033,1.00000000027957,0.411250985775202
7800.00000001084,101.649310314675,1.00000000045383,0.464120279098189
7900.00000001121,100.52954265092,1.00000000076537,0.541716992079641
8000.00000001157,99.4642624493467,1.00000000085747,0.566610237108666
8100.00000001194,98.4561266034237,1.00000000077415,0.546532577717651
8200.0000000123,97.4647633308912,1.00000000053995,0.480575543825014
8300.00000001266,96.4440333413216,1.00000000033069,0.40422719132963
8400.00000001303,95.3866949467517,1.00000000035623,0.402639641389
8500.00000001339,94.3194497733865,1.00000000056338,0.471083443925451
8600.00000001376,93.2746186521687,1.00000000077215,0.530862400678616
8700.00000001412,92.2719407831021,1.00000000084108,0.548755189584687
8800.00000001448,91.3119518009777,1.00000000078234,0.541458050621601
8900.00000001485,90.3760376793251,1.00000000064642,0.501289374452591
9000.00000001521,89.4413136765783,1.0000000004786,0.439792397629342
9100.00000001557,88.5007951911719,1.0000000003533,0.399561692127812
9200.00000001594,87.5621258514789,1.0000000004099,0.416126247616383
9300.0000000163,86.6339048585204,1.00000000056355,0.46219312406727
9400.00000001667,85.7219258601482,1.00000000070004,0.509692093586509
9500.00000001703,84.8309064727521,1.00000000075622,0.528935853883622
9600.00000001739,83.9638437394161,1.00000000078946,0.535578158291047
9700.00000001776,83.1193780289432,1.00000000072197,0.530512518985747
9800.00000001812,82.2909671388081,1.00000000053893,0.490584854156505
9900.00000001848,81.4741553888838,1.00000000041946,0.444682546427111
10000.0000000188,80.6723516713217,1.0000000004203,0.422341302597552
10100.0000000192,79.8913661196132,1.00000000047102,0.427032344737636
10200.0000000196,79.1306780581674,1.00000000052822,0.457431833553869
10300.0000000199,78.3868624578654,1.00000000060898,0.48018746030132
10400.0000000203,77.6571853172037,1.00000000057683,0.499892817785418
10500.0000000207,76.9401394687426,1.00000000063025,0.508184319491349
10600.000000021,76.2326241938428,1.00000000069947,0.518181379668562
10700.0000000214,75.5324795239467,1.00000000076924,0.534158708214862
10800.0000000218,74.8422028723483,1.00000000068739,0.530385563819664
10900.0000000221,74.166866526051,1.00000000055127,0.492105076984897
11000.0000000225,73.5142555056518,1.00000000038874,0.44527276535298
11100.0000000229,72.8902839686462,1.00000000040378,0.427923692143757
11200.0000000232,72.2936273292595,1.00000000052314,0.436429726127551
11300.0000000236,71.7173240421804,1.00000000054061,0.456394734550144
11400.0000000239,71.1542023279813,1.00000000058979,0.48317993003441
11500.0000000243,70.6020831171836,1.00000000058703,0.491907370015078
11600.0000000247,70.0629340621052,1.00000000053345,0.490220202978315
11700.000000025,69.5388586428202,1.00000000049891,0.492201635262701
11800.0000000254,69.026157109301,1.00000000056051,0.497648597836675
11900.0000000258,68.5144413370714,1.00000000071586,0.514402847255234
12000.0000000261,67.9957390922397,1.00000000080372,0.532414920132137
12100.0000000265,67.472886178213,1.0000000007714,0.537987221151385
12200.0000000269,66.9557027354974,1.00000000060904,0.51904533881105
12300.0000000272,66.4563732753568,1.00000000047278,0.479757871604492
12400.0000000276,65.9871527645955,1.00000000040177,0.446467734303634
12500.0000000279,65.5537719042767,1.00000000042492,0.433770261100621
12600.0000000283,65.1504911915738,1.00000000051329,0.440959980510731
12700.0000000287,64.7647578174442,1.00000000060936,0.460538193171918
12800.000000029,64.3859546189894,1.0000000006647,0.476498999185767
12900.0000000294,64.0097528256701,1.00000000062622,0.491660792151164
13000.0000000298,63.6374068926283,1.00000000061826,0.500002655714371
13100.0000000301,63.2724192512701,1.00000000055383,0.501731419215779
13200.0000000305,62.9176558805223,1.00000000053292,0.50305288590213
13300.0000000309,62.5732228215609,1.00000000053218,0.508021609921882
13400.0000000312,62.2348367273173,1.00000000053099,0.511613104049717
13500.0000000316,61.8959963142969,1.00000000061744,0.51136427626461
13600.0000000319,61.5508835897327,1.00000000070082,0.516439699787946
13700.0000000323,61.1961206226449,1.00000000077047,0.527302379176529
13800.0000000327,60.8332429313861,1.00000000071272,0.537316458345653
13900.000000033,60.4697919977337,1.00000000060554,0.531711611960322
14000.0000000334,60.1179659737993,1.00000000051484,0.509937704597909
14100.0000000338,59.791007962846,1.00000000045477,0.479582146931653
14200.0000000341,59.4961676551217,1.0000000004607,0.457937830003
14300.0000000345,59.2337848787208,1.00000000046244,0.458067378897358
14400.0000000349,58.9977262053098,1.00000000052348,0.461862075228095
14500.0000000352,58.779617332783,1.00000000055577,0.463865625333857
14600.0000000356,58.5699080336824,1.00000000062279,0.480048918894475
14700.0000000359,58.362474167737,1.00000000063561,0.492964180633497
14800.0000000363,58.1611422028433,1.00000000057192,0.490870879918767
14900.0000000367,57.9703177170033,1.00000000053622,0.491278717829364
15000.000000037,57.7876306788012,1.0000000005779,0.502050382761147
15100.0000000374,57.602248333641,1.00000000062716,0.517847986661848
15200.0000000378,57.406687851917,1.0000000006776,0.533038169001066
15300.0000000381,57.1993420350272,1.00000000066988,0.53947177813853
15400.0000000385,56.9858444033281,1.0000000006104,0.545342305844586
15500.0000000389,56.7714371524031,1.00000000054984,0.539150745978097
15600.0000000392,56.5613627474862,1.00000000051677,0.524645050200645
15700.0000000396,56.3564897208186,1.00000000052058,0.51352948111536
15800.0000000399,56.1531301859775,1.00000000057803,0.507010872693304
15900.0000000403,55.9443900342669,1.0000000006934,0.516195014339255
16000.0000000407,55.7251079646998,1.0000000007804,0.532746984100588
16100.000000041,55.4945633140103,1.00000000075161,0.544886774955401
16200.0000000414,55.2591264674317,1.00000000062294,0.541914143159664
16300.0000000418,55.0296543630671,1.00000000054471,0.529437100260711
16400.0000000418,54.8194157068813,1.00000000048653,0.507556369100981
16500.0000000404,54.6384108146901,1.00000000042079,0.487844678941214
16600.0000000389,54.4898649910757,1.00000000045331,0.470755082894642
16700.0000000375,54.3707272011256,1.0000000004947,0.467792369019609
16800.000000036,54.2723222882191,1.00000000052868,0.470076806724586
16900.0000000346,54.1838643370829,1.00000000058432,0.47833047574468
17000.0000000331,54.0991873885462,1.0000000006044,0.48250935475953
17100.0000000317,54.0174203233992,1.00000000058413,0.48497989653389
17200.0000000302,53.9383882091114,1.00000000059831,0.494423700340523
17300.0000000287,53.8615696761804,1.0000000005893,0.506780784425661
17400.0000000273,53.7877364998557,1.00000000057657,0.517693730230303
17500.0000000258,53.7202294658124,1.00000000054805,0.521433007514815
17600.0000000244,53.6619751259255,1.00000000052632,0.522902568475724
17700.0000000229,53.6117278624398,1.00000000056014,0.525865785263409
17800.0000000215,53.5619611187753,1.00000000059936,0.533423372622663
17900.00000002,53.5034553089654,1.00000000063166,0.537306547409239
18000.0000000186,53.4278977371918,1.00000000064932,0.543450364460622
18100.0000000171,53.3332263251833,1.00000000070901,0.547713071459838
18200.0000000156,53.2195361887505,1.00000000066068,0.546101472557848
18300.0000000142,53.0921220885797,1.00000000062202,0.552460491151815
18400.0000000127,52.9576136171978,1.00000000059276,0.561087513312556
18500.0000000113,52.8215524032951,1.00000000055395,0.560972496581711
18600.0000000098,52.6887767623986,1.00000000051827,0.552246000923687
18700.0000000084,52.561209423871,1.00000000052448,0.548047841810761
18800.0000000069,52.4377704959878,1.00000000053705,0.547067372112663
18900.0000000055,52.3158133837897,1.00000000056292,0.537624379130908
19000.000000004,52.1926473957344,1.00000000064801,0.533782336685226
19100.0000000026,52.0653094263041,1.00000000066613,0.536903208983665
19200.0000000011,51.9309343176448,1.00000000069787,0.546330231960138
19299.9999999996,51.7876859926545,1.00000000071503,0.5556779346079
19399.9999999982,51.6378089176666,1.00000000070413,0.559740836167288
19499.9999999967,51.4890454323339,1.00000000061256,0.554846079418616
19599.9999999953,51.3510529550112,1.00000000050197,0.540094867233619
19699.9999999938,51.233374868237,1.00000000045653,0.524153642446202
19799.9999999924,51.1415297833007,1.00000000045953,0.507906194417685
19899.9999999909,51.0769394066617,1.00000000047938,0.49629056808599
19999.9999999895,51.0370522940336,1.00000000050378,0.48848377258453
20099.999999988,51.0164775451168,1.00000000054434,0.493372935339623
20199.9999999865,51.009300795391,1.00000000057165,0.498186596377549
20299.9999999851,51.0101348786246,1.00000000058034,0.496222720870436
20399.9999999836,51.0156107357569,1.00000000061086,0.493129939431705
20499.9999999822,51.0219863230848,1.00000000062219,0.494482822955599
20599.9999999807,51.0296709156671,1.00000000059568,0.495464054966
20699.9999999793,51.0427174470053,1.00000000052723,0.490926443657808
20799.9999999778,51.0646082594681,1.00000000052169,0.49097836422478
20899.9999999764,51.0940644440483,1.00000000053966,0.504942322752235
20999.9999999749,51.1241105208623,1.00000000058577,0.525611690581755
21099.9999999734,51.1481235395628,1.00000000064921,0.537960400553312
21199.999999972,51.1621260897202,1.00000000064588,0.544457790537836
21299.9999999705,51.1655560280027,1.00000000065256,0.552673781972349
21399.9999999691,51.1622875935225,1.0000000006498,0.55485404291166
21499.9999999676,51.1574128882803,1.00000000058499,0.552568067081538
21599.9999999662,51.153195065646,1.00000000056799,0.550737413204505
21699.9999999647,51.1490423844551,1.0000000005886,0.553726250939824
21799.9999999633,51.1432221359951,1.00000000057149,0.565946974503111
21899.9999999618,51.1343360838449,1.00000000055762,0.571777324184363
21999.9999999603,51.1200820317783,1.00000000060094,0.573528802647517
22099.9999999589,51.0974517786969,1.00000000062416,0.571395980129603
22199.9999999574,51.0641431602369,1.0000000006123,0.568534350301811
22299.999999956,51.0201160021656,1.00000000060307,0.567299190583438
22399.9999999545,50.9658559075369,1.00000000060542,0.557934136628595
22499.9999999531,50.901898120292,1.0000000006232,0.543738287383171
22599.9999999516,50.8289327180078,1.0000000006618,0.543044339567005
22699.9999999502,50.747162477435,1.00000000064823,0.555092358284792
22799.9999999487,50.6561656502536,1.00000000064307,0.566207992204086
22899.9999999473,50.5584512101817,1.00000000064032,0.57168705686725
22999.9999999458,50.4575101922248,1.00000000058464,0.568647983169134
23099.9999999443,50.3574431366835,1.00000000054073,0.564864195783153
23199.9999999429,50.260579763258,1.00000000052195,0.563660283958923
23299.9999999414,50.1680277550644,1.00000000054809,0.56744347553714
23399.99999994,50.0783507689911,1.00000000053627,0.568166916229598
23499.9999999385,49.9899299229381,1.00000000054906,0.562414541174266
23599.9999999371,49.9018306917766,1.00000000058831,0.560771045757865
23699.9999999356,49.8132697844358,1.00000000061213,0.562381643301321
23799.9999999342,49.7233040925447,1.00000000064315,0.560103579569297
23899.9999999327,49.6303596585748,1.0000000006967,0.556186651511253
23999.9999999312,49.5332545942228,1.00000000066928,0.551061649466469
24099.9999999298,49.4317193627424,1.00000000069254,0.552174679955171
24199.9999999283,49.3256062526134,1.0000000006853,0.553706160335074
24299.9999999269,49.2174550896203,1.00000000062202,0.553211964105583
24399.9999999254,49.1125390698558,1.00000000059794,0.553123075136682
24499.999999924,49.0177810527119,1.00000000051887,0.549129339739627
24599.9999999225,48.9388891898876,1.00000000050628,0.539493892433289
24699.9999999211,48.8798461501207,1.00000000049485,0.52811391107178
24799.9999999196,48.8427330049206,1.00000000046207,0.523580822689516
24899.9999999181,48.8282579289681,1.00000000048455,0.518715088101029
24999.9999999167,48.8343344263924,1.00000000049845,0.508562006676926
25099.9999999152,48.8553057428962,1.00000000055172,0.506814440179434
25199.9999999138,48.887277347719,1.00000000056833,0.50734905547544
25299.9999999123,48.929353567542,1.00000000056327,0.5063228712299
25399.9999999109,48.9783818109207,1.00000000060006,0.507930812145597
25499.9999999094,49.0297174366184,1.00000000061186,0.510158457126653
25599.999999908,49.0829288108832,1.00000000059684,0.513319175095149
25699.9999999065,49.1405259394071,1.00000000060159,0.512106179793356
25799.9999999051,49.204057039137,1.0000000005612,0.504064854594132
25899.9999999036,49.2735456015559,1.0000000005343,0.502849396402922
25999.9999999021,49.3458568763087,1.00000000056967,0.511390714565852
26099.9999999007,49.4183090548079,1.00000000060335,0.522419798903568
26199.9999998992,49.4884439107559,1.00000000059417,0.532363389557481
26299.9999998978,49.5560176948641,1.0000000006221,0.543318023441157
26399.9999998963,49.6201661353335,1.00000000062415,0.551709861286583
26499.9999998949,49.6784112629941,1.00000000062911,0.554438160215107
26599.9999998934,49.7298433385208,1.000000000612,0.562644447970908
26699.999999892,49.7754742685246,1.00000000060935,0.571994292022478
26799.9999998905,49.8164482932814,1.00000000058544,0.574660860417645
26899.999999889,49.8542333189559,1.00000000059292,0.580225025636256
26999.9999998876,49.889206471062,1.00000000059643,0.58226776819556
27099.9999998861,49.9201702428341,1.00000000060358,0.580060321196639
27199.9999998847,49.9456834686507,1.00000000059123,0.578229369547425
27299.9999998832,49.9657630920386,1.00000000063615,0.579317663650829
27399.9999998818,49.9799096244612,1.00000000063678,0.581401134524525
27499.9999998803,49.9872188156164,1.00000000063341,0.581401666429217
27599.9999998789,49.9886486099961,1.00000000058058,0.586406348899483
27699.9999998774,49.9867104116184,1.0000000005932,0.590882143829914
27799.9999998759,49.9845904521028,1.00000000058599,0.587520473682423
27899.9999998745,49.9826464503453,1.0000000005815,0.586519821948613
27999.999999873,49.9786538173811,1.00000000060733,0.585179930127334
28099.9999998716,49.9710536128467,1.00000000060143,0.584085613406051
28199.9999998701,49.959840965579,1.00000000058698,0.584382469755047
28299.9999998687,49.944774257605,1.00000000062468,0.579228835952242
28399.9999998672,49.9242403970661,1.000000000642,0.577802930027689
28499.9999998658,49.8979465374837,1.00000000060422,0.57793558053216
28599.9999998643,49.8670971963747,1.00000000060643,0.576282860519935
28699.9999998629,49.832646748466,1.00000000063522,0.581508419232428
28799.9999998614,49.7947474780108,1.00000000064033,0.582572831093793
28899.9999998599,49.7529275972633,1.00000000060082,0.583369729245964
28999.9999998585,49.7078107987627,1.00000000063519,0.590115599340594
