Time,AGPnorm,Energy,Entropy
0,0,1,-1.21730207144966e-17
99.9999999999986,2.14979829116126e-05,1.0000000000026,0.000901297798033724
199.999999999993,0.00183648579744838,0.999999999998376,0.0014504462518765
300,0.00457663959627901,1.0000000000023,0.00260619242143994
400.000000000022,0.00637727653634688,1.00000000000053,0.00437505400710087
500.000000000045,0.00787986370313325,0.999999999999262,0.006006839277149
600.000000000068,0.0112225794935833,1.00000000000296,0.00831193260390346
700.000000000091,0.0140396533106202,0.999999999998551,0.0106452235491804
800.000000000113,0.017952939335248,1.00000000000169,0.0132376837909353
900.000000000136,0.0223547970029566,1.00000000000132,0.0161362620209294
1000.00000000016,0.0261270600421664,0.999999999998656,0.0191180664608382
1100.0000000001,0.0311946433577617,1.00000000000308,0.0224007594701052
1200,0.0368424346923729,0.999999999999017,0.0257885719985796
1299.99999999991,0.0425849671779065,1.0000000000009,0.0294466670424032
1399.99999999982,0.0486442433195579,1.00000000000203,0.0332149757192846
1499.99999999973,0.0546327732784885,0.999999999998306,0.0371847502701841
1599.99999999964,0.0613048058578391,1.00000000000292,0.0413775840439122
1699.99999999955,0.0687316966520222,0.999999999999687,0.0456546219282353
1799.99999999946,0.0759671459291323,1.00000000000005,0.050271206291038
1899.99999999937,0.0834411395638206,1.00000000000258,0.0549037409179864
1999.99999999928,0.0913477019224404,0.999999999998275,0.0597873524748973
2099.99999999919,0.099311544343318,1.00000000000248,0.0649650741865066
2199.99999999909,0.107694587327432,1.00000000000047,0.0701672600541903
2299.999999999,0.115978982095887,0.999999999999291,0.0757978855346268
2399.99999999891,0.124432045202403,1.00000000000292,0.0814731347654014
2499.99999999882,0.133655458924763,0.999999999998519,0.087419139053184
2599.99999999873,0.142492341761206,1.00000000000178,0.093805149847788
2699.99999999864,0.15138081071733,1.00000000000124,0.100193742649532
2799.99999999855,0.160356930801731,0.999999999998802,0.107126114996562
2899.99999999846,0.169324291519435,1.00000000000305,0.114280067801625
2999.99999999837,0.179019538082464,0.999999999999004,0.121771377587982
3099.99999999828,0.188205559681608,1.00000000000098,0.129945485623251
3199.99999999819,0.197311405560418,1.000000000002,0.138309343661869
3299.99999999809,0.206612842944068,0.999999999998962,0.147462864762707
3399.999999998,0.21584562936161,1.00000000000371,0.157304026846668
3499.99999999791,0.225158046178552,1.00000000000172,0.167784810480158
3599.99999999782,0.234270315887766,1.00000000000454,0.179455275948579
3699.99999999773,0.243654867694956,1.00000000001129,0.191716289949199
3799.99999999764,0.252278467319267,1.00000000001531,0.204945056445731
3899.99999999755,0.263177782834696,1.00000000003015,0.218898944124995
3999.99999999746,0.272946269062898,1.00000000004394,0.232954398101843
4099.99999999738,0.284809794245305,1.00000000006094,0.247524808300548
4199.99999999775,0.30345453232419,1.00000000008676,0.261826543367703
4299.99999999811,0.322939403259084,1.00000000011275,0.276033600320155
4399.99999999848,0.358429253164038,1.00000000013604,0.290232097919153
4499.99999999884,0.4065978589185,1.0000000001711,0.30365782481136
4599.9999999992,0.475567615104292,1.00000000019814,0.317163104674
4699.99999999957,0.580575315735484,1.00000000023027,0.330160322143271
4799.99999999993,0.719175201794521,1.00000000027112,0.342633396803282
4900.00000000029,0.913614058972898,1.00000000028117,0.355261894856523
5000.00000000066,1.17067673494043,1.00000000032438,0.366807689240331
5100.00000000102,1.50399759142896,1.0000000003359,0.378464059847829
5200.00000000139,1.92873074073683,1.0000000003812,0.389563890211559
5300.00000000175,2.45848098840491,1.00000000041186,0.399897990840375
5400.00000000211,3.10973873995175,1.00000000042552,0.410440550367938
5500.00000000248,3.89136170474433,1.00000000046601,0.419989787045083
5600.00000000284,4.82977168905495,1.00000000048175,0.429441550301746
5700.00000000321,5.9202229732841,1.00000000050636,0.438698145528596
5800.00000000357,7.19112018871463,1.00000000052662,0.446910294156623
5900.00000000393,8.65340134331812,1.00000000053703,0.455456890568355
6000.0000000043,10.2970205139092,1.00000000056468,0.463231762478474
6100.00000000466,12.169089307825,1.00000000058127,0.470411737873747
6200.00000000502,14.2378081807491,1.00000000059556,0.477856957634735
6300.00000000539,16.529420841089,1.0000000005945,0.484226154135453
6400.00000000575,19.0640229340784,1.0000000006174,0.490772519683742
6500.00000000612,21.7960037120307,1.00000000062439,0.496995742821715
6600.00000000648,24.7907025794266,1.00000000064618,0.502242773040515
6700.00000000684,28.0017409576835,1.000000000627,0.508049511821803
6800.00000000721,31.4321920874843,1.00000000063543,0.512900362562126
6900.00000000757,35.125005886819,1.00000000065875,0.51757241448606
7000.00000000793,38.9998898547902,1.00000000067979,0.522438025455192
7100.0000000083,43.1251194559989,1.00000000066544,0.526236663689734
7200.00000000866,47.4628877770827,1.00000000065143,0.530579654533552
7300.00000000903,51.9784850289265,1.00000000068221,0.534219470115081
7400.00000000939,56.7404515267546,1.00000000066807,0.537392252880077
7500.00000000975,61.6502587492876,1.00000000066031,0.54117784307253
7600.00000001012,66.7591722641332,1.00000000067953,0.543792714723725
7700.00000001048,72.0564049999736,1.00000000065447,0.546894537129902
7800.00000001084,77.4700872984951,1.0000000006832,0.549714609606923
7900.00000001121,83.0839970827764,1.00000000068358,0.551643012722476
8000.00000001157,88.8035930170807,1.00000000069831,0.554275557289506
8100.00000001194,94.6485361665542,1.00000000067636,0.556312680353356
8200.0000000123,100.642349295999,1.00000000063568,0.558277795947685
8300.00000001266,106.688676549897,1.00000000063982,0.560488928901603
8400.00000001303,112.869590368459,1.00000000064238,0.561539345394351
8500.00000001339,119.113072394456,1.00000000067558,0.563344582955162
8600.00000001376,125.404305755712,1.00000000066688,0.564856467405107
8700.00000001412,131.794007434973,1.00000000062632,0.565793709943538
8800.00000001448,138.179377009699,1.00000000064403,0.567352372128884
8900.00000001485,144.626365908515,1.00000000064534,0.567957523607393
9000.00000001521,151.094995889809,1.00000000063912,0.5690353162928
9100.00000001557,157.541378219857,1.00000000063641,0.570157127519641
9200.00000001594,164.031022148246,1.00000000062453,0.570217458352436
9300.0000000163,170.470313382154,1.00000000060792,0.571585013088027
9400.00000001667,176.903238768865,1.00000000062523,0.571824081685226
9500.00000001703,183.318110449493,1.00000000059542,0.572179374290439
9600.00000001739,189.655790745763,1.00000000060691,0.573115631868634
9700.00000001776,195.982542729521,1.00000000059861,0.572600118702144
9800.00000001812,202.225060231874,1.00000000061088,0.573603844258532
9900.00000001848,208.40173314132,1.00000000060061,0.57344257787356
10000.0000000188,214.526376979451,1.00000000059479,0.573600188270368
10100.0000000192,220.534443110542,1.00000000055099,0.574245967787039
10200.0000000196,226.484051402526,1.00000000057893,0.573559437283351
10300.0000000199,232.325834837252,1.00000000057913,0.574069813866894
10400.0000000203,238.057261184537,1.00000000055819,0.574063702642685
10500.0000000207,243.70819576479,1.00000000055872,0.574263949490805
10600.000000021,249.217187777209,1.0000000005729,0.574013451957605
10700.0000000214,254.629722650434,1.00000000054092,0.573945744026447
10800.0000000218,259.919784809,1.00000000053695,0.574262238758718
10900.0000000221,265.069108782106,1.00000000052608,0.573392249589777
11000.0000000225,270.115107209782,1.00000000053345,0.573520369216999
11100.0000000229,275.006315786827,1.00000000051884,0.573486781845333
11200.0000000232,279.774281695569,1.00000000050331,0.572265147169431
11300.0000000236,284.408906285351,1.00000000051929,0.572938407072243
11400.0000000239,288.887312601717,1.00000000049753,0.572161182805506
11500.0000000243,293.244672977789,1.00000000049174,0.571449850270023
11600.0000000247,297.441517903987,1.0000000005172,0.572008764082459
11700.000000025,301.500898250267,1.0000000004805,0.570925564724226
11800.0000000254,305.420361798045,1.00000000047108,0.570726560058713
11900.0000000258,309.176537153853,1.00000000048265,0.571236057068958
12000.0000000261,312.804872919929,1.00000000048349,0.569293667461828
12100.0000000265,316.271989768412,1.00000000045929,0.569971543247958
12200.0000000269,319.595058185412,1.00000000045422,0.569532105510477
12300.0000000272,322.78050117271,1.00000000045336,0.568276675979793
12400.0000000276,325.801489080638,1.000000000455,0.569053747396075
12500.0000000279,328.692675604192,1.00000000046227,0.568170280989659
12600.0000000283,331.429848288585,1.00000000043528,0.567412669645226
12700.0000000287,334.020342054982,1.00000000042607,0.567943055054025
12800.000000029,336.479505030209,1.00000000042936,0.566619942914485
12900.0000000294,338.781064503676,1.00000000042488,0.566899419191628
13000.0000000298,340.954229785023,1.00000000042826,0.566601804068186
13100.0000000301,342.98655100434,1.00000000042206,0.564919221016299
13200.0000000305,344.874780145155,1.00000000040338,0.565455558305351
13300.0000000309,346.639210005154,1.0000000004001,0.566644435332403
13400.0000000312,348.26118187742,1.00000000039372,0.565818483346594
13500.0000000316,349.76016049309,1.00000000039143,0.563361735710302
13600.0000000319,351.1281982576,1.00000000039459,0.562563127014173
13700.0000000323,352.36359884591,1.00000000038395,0.564968843929587
13800.0000000327,353.486356371053,1.00000000039292,0.56626691324186
13900.000000033,354.482722079354,1.00000000040982,0.564773770126412
14000.0000000334,355.366286561156,1.0000000003788,0.561161477962913
14100.0000000338,356.131919026293,1.00000000037614,0.559530590899994
14200.0000000341,356.775186095184,1.00000000038043,0.563964641493464
14300.0000000345,357.321407966924,1.00000000038735,0.568016072778689
14400.0000000349,357.764284734546,1.00000000039108,0.565519287302393
14500.0000000352,358.108470019604,1.00000000036674,0.557964152933123
14600.0000000356,358.347118581222,1.00000000034472,0.554378555205447
14700.0000000359,358.474550877545,1.00000000035626,0.561371748185662
14800.0000000363,358.521381124573,1.00000000038528,0.569184897224083
14900.0000000367,358.490026025824,1.00000000040063,0.567993504575079
15000.000000037,358.382609861045,1.0000000003657,0.558784072300729
15100.0000000374,358.187387267093,1.00000000031993,0.548214789185568
15200.0000000378,357.891297200944,1.00000000032358,0.552610187446799
15300.0000000381,357.521770325116,1.00000000036798,0.564527251005689
15400.0000000385,357.0968314223,1.00000000042587,0.573879787224168
15500.0000000389,356.623941485011,1.00000000037662,0.563697060895626
15600.0000000392,356.09515205141,1.0000000003481,0.550564203061892
15700.0000000396,355.480730644185,1.00000000027921,0.538311429118066
15800.0000000399,354.79006897863,1.0000000003224,0.548122363143229
15900.0000000403,354.041692682204,1.00000000038639,0.568191263513701
16000.0000000407,353.268172119293,1.00000000043913,0.576060277125161
16100.000000041,352.47388649728,1.00000000040628,0.563145169063817
16200.0000000414,351.632895407958,1.00000000034987,0.543211028496843
16300.0000000418,350.728457510688,1.00000000026975,0.527874434632398
16400.0000000418,349.752184899011,1.00000000029919,0.535760230913546
16500.0000000404,348.732220631866,1.0000000004018,0.563153925176899
16600.0000000389,347.704014184659,1.00000000045287,0.577374428964751
16700.0000000375,346.671424920926,1.00000000045008,0.570156543874908
16800.000000036,345.625694086267,1.00000000037091,0.545757969412016
16900.0000000346,344.533790867875,1.0000000002785,0.521171213216144
17000.0000000331,343.380776611869,1.0000000002659,0.514836654126282
17100.0000000317,342.181197860095,1.00000000033014,0.537932326642535
17200.0000000302,340.963078126622,1.0000000004556,0.570512875787769
17300.0000000287,339.757654225378,1.00000000048871,0.580042150957336
17400.0000000273,338.565688174332,1.00000000047919,0.564137800019193
17500.0000000258,337.363090204587,1.00000000035683,0.533621810107775
17600.0000000244,336.126807167901,1.00000000026815,0.507441333346229
17700.0000000229,334.83805878999,1.00000000024979,0.500649863939656
17800.0000000215,333.513673173796,1.00000000033372,0.527323864244135
17900.00000002,332.181565729849,1.00000000044431,0.564939256431347
18000.0000000186,330.865477554512,1.00000000049562,0.581969143404057
18100.0000000171,329.575398942224,1.00000000050611,0.570249943079642
18200.0000000156,328.290969362908,1.00000000039277,0.540024019233188
18300.0000000142,326.990702347289,1.00000000029625,0.507873038248005
18400.0000000127,325.655331275614,1.0000000002393,0.489669266720731
18500.0000000113,324.282636154787,1.00000000027061,0.499611292511718
18600.0000000098,322.894986132094,1.00000000037847,0.536051371763581
18700.0000000084,321.513859876349,1.00000000047723,0.570611197503484
18800.0000000069,320.157809897729,1.00000000051207,0.580505161065944
18900.0000000055,318.827620626726,1.00000000050968,0.563935782615364
19000.000000004,317.505964867288,1.00000000040053,0.532997404126267
19100.0000000026,316.176513731802,1.00000000030045,0.500160722387492
19200.0000000011,314.821751657606,1.00000000025777,0.484262778229536
19299.9999999996,313.443014403699,1.00000000027083,0.49101099251998
19399.9999999982,312.051845606704,1.00000000034671,0.518250926371838
19499.9999999967,310.663693495594,1.00000000045701,0.554389858088712
19599.9999999953,309.296631370041,1.00000000052617,0.574648998875389
19699.9999999938,307.954694412176,1.00000000054317,0.570016545785236
19799.9999999924,306.631507069488,1.00000000046566,0.546087040772596
19899.9999999909,305.315128759963,1.00000000035806,0.514192894949492
19999.9999999895,303.989930859208,1.00000000029856,0.490852910137616
20099.999999988,302.652833056462,1.00000000027836,0.483931049655902
20199.9999999865,301.302497762592,1.00000000029577,0.491079728125377
20299.9999999851,299.946392823115,1.00000000034848,0.511717035028367
20399.9999999836,298.59696090874,1.00000000046219,0.541179556086481
20499.9999999822,297.26264843162,1.00000000050081,0.563311096650089
20599.9999999807,295.949432342017,1.00000000050553,0.564357358471557
20699.9999999793,294.65514825577,1.0000000004754,0.547171423530946
20799.9999999778,293.371142141715,1.00000000041149,0.523875523336774
20899.9999999764,292.091853523392,1.00000000035919,0.502357528116426
20999.9999999749,290.808915226477,1.00000000030765,0.489702218374729
21099.9999999734,289.522800217674,1.00000000029463,0.488109071527875
21199.999999972,288.233459984934,1.00000000030913,0.495581320625632
21299.9999999705,286.944974708623,1.00000000037018,0.511265494680529
21399.9999999691,285.664542077588,1.00000000041643,0.52938121969601
21499.9999999676,284.396021878227,1.00000000044178,0.546218867377693
21599.9999999662,283.142523995054,1.00000000048515,0.551981833994105
21699.9999999647,281.904369013568,1.00000000048131,0.543516837319321
21799.9999999633,280.677460788199,1.0000000004357,0.529189213981512
21899.9999999618,279.45933330677,1.00000000039142,0.513158827530121
21999.9999999603,278.245528007554,1.00000000034855,0.500165668115274
22099.9999999589,277.034804258128,1.00000000030114,0.495729721695686
22199.9999999574,275.827100479742,1.00000000032454,0.496823973458868
22299.999999956,274.622389491247,1.00000000033197,0.500369496908262
22399.9999999545,273.42335721299,1.00000000036446,0.507621618890038
22499.9999999531,272.231134301363,1.00000000039378,0.516857355493813
22599.9999999516,271.048204332495,1.00000000042688,0.527104043540094
22699.9999999502,269.876550531094,1.00000000045123,0.533971823212445
22799.9999999487,268.715735364443,1.00000000045779,0.536563139248521
22899.9999999473,267.565520644183,1.00000000042118,0.530758932178283
22999.9999999458,266.424663559538,1.00000000040765,0.521768191390469
23099.9999999443,265.29152734043,1.00000000038672,0.514357753275547
23199.9999999429,264.166179144533,1.00000000036268,0.510446230000607
23299.9999999414,263.047548822805,1.00000000033156,0.506359565327439
23399.99999994,261.936532532348,1.00000000033862,0.506545304558309
23499.9999999385,260.832194525069,1.00000000034331,0.503619784776847
23599.9999999371,259.735053575497,1.00000000034473,0.503186018920411
23699.9999999356,258.645677214673,1.00000000034486,0.504996991262117
23799.9999999342,257.564404281237,1.00000000037164,0.509482601901433
23899.9999999327,256.492057705695,1.00000000039611,0.517237733297478
23999.9999999312,255.428954568344,1.00000000041454,0.522447774919114
24099.9999999298,254.374291815326,1.00000000044308,0.529707010150963
24199.9999999283,253.32841919457,1.00000000040878,0.528839030940663
24299.9999999269,252.290838722506,1.00000000039371,0.524834396688152
24399.9999999254,251.261588173233,1.000000000385,0.52032736810757
24499.999999924,250.240790897766,1.00000000037802,0.519650058527295
24599.9999999225,249.228496799399,1.00000000039192,0.522842711904851
24699.9999999211,248.225246658669,1.00000000036911,0.520225464661899
24799.9999999196,247.230823267392,1.00000000034933,0.513783838866783
24899.9999999181,246.245857884158,1.00000000032567,0.50468956215271
24999.9999999167,245.270100340285,1.00000000030558,0.495772049461746
25099.9999999152,244.304015270467,1.00000000032842,0.493556124741244
25199.9999999138,243.347536096745,1.0000000003642,0.497995671716003
25299.9999999123,242.400266096586,1.00000000037518,0.506293976638212
25399.9999999109,241.460904562602,1.00000000041825,0.517010334373175
25499.9999999094,240.528774048794,1.00000000043816,0.521462105419813
25599.999999908,239.603178282307,1.00000000042344,0.527954882406082
25699.9999999065,238.684780522124,1.00000000038234,0.528235513115046
25799.9999999051,237.774365145553,1.00000000035018,0.523417352728128
25899.9999999036,236.872042191334,1.00000000037677,0.520953242289113
25999.9999999021,235.977484734731,1.00000000039152,0.528266055484581
26099.9999999007,235.090259784306,1.00000000041762,0.535438907379268
26199.9999998992,234.210673869202,1.00000000041096,0.531412378025993
26299.9999998978,233.339441796177,1.00000000037666,0.521481133132748
26399.9999998963,232.478442161002,1.00000000034152,0.507898020005776
26499.9999998949,231.628809115826,1.00000000029978,0.492187224303965
26599.9999998934,230.792002456801,1.00000000027031,0.479465539454283
26699.999999892,229.968183266611,1.00000000030141,0.480228349566476
26799.9999998905,229.155663581933,1.00000000035825,0.489032465759838
26899.999999889,228.351799308977,1.00000000040375,0.502798825042574
26999.9999998876,227.553999464259,1.00000000042988,0.512601411469227
27099.9999998861,226.760588237559,1.00000000043573,0.518425456994244
27199.9999998847,225.970639872353,1.00000000044037,0.519500420728615
27299.9999998832,225.185938441566,1.00000000037934,0.521247451933983
27399.9999998818,224.408197700563,1.00000000036331,0.523728541937358
27499.9999998803,223.637581273475,1.00000000036224,0.521134023193265
27599.9999998789,222.873681055181,1.0000000003749,0.522438698175605
27699.9999998774,222.114801945158,1.00000000040546,0.536043811508928
27799.9999998759,221.359818092039,1.00000000044285,0.542996096054141
27899.9999998745,220.60955800457,1.00000000043814,0.535955080183739
27999.999999873,219.86550865801,1.00000000041163,0.522686581045299
28099.9999998716,219.130952479269,1.0000000003463,0.507235873964642
28199.9999998701,218.409176118466,1.00000000029174,0.491304487604448
28299.9999998687,217.702290870802,1.00000000026371,0.476126712334125
28399.9999998672,217.011872148397,1.00000000028141,0.469716302350704
28499.9999998658,216.335735524128,1.00000000031388,0.475607254871627
28599.9999998643,215.670782210207,1.00000000037795,0.486387696659953
28699.9999998629,215.012778475275,1.00000000041759,0.49987966362298
28799.9999998614,214.358490440928,1.00000000043321,0.5099115897042
28899.9999998599,213.705958611756,1.00000000044821,0.513779666639467
