Time,AGPnorm,Energy,Entropy
0,0,1,-1.0971735775566e-17
99.9999999999986,1.54954189097476e-05,0.999999999999004,0.000724235323945495
199.999999999993,0.001367763098078,1.00000000000113,0.00113838416190553
300,0.00349515763982549,0.99999999999891,0.0019928339851722
400.000000000022,0.00484808221587095,1.0000000000002,0.00344774997245372
500.000000000045,0.00574813395070915,1.00000000000038,0.0045852759179226
600.000000000068,0.00826183015614721,0.999999999998817,0.0064533649034772
700.000000000091,0.0103222865316524,1.00000000000105,0.00825451750054603
800.000000000113,0.0133942559095837,0.999999999999261,0.0101294933373172
900.000000000136,0.0166404176967532,0.999999999999758,0.0125493874730015
1000.00000000016,0.0191567679071841,1.00000000000065,0.0146915013801736
1100.0000000001,0.0231716326328617,0.99999999999882,0.017281325466166
1200,0.0272619529332127,1.00000000000084,0.019972410950852
1299.99999999991,0.0314538640481153,0.999999999999615,0.0225977359059817
1399.99999999982,0.0359970170038996,0.999999999999366,0.0257134324921879
1499.99999999973,0.0403658782492019,1.00000000000082,0.0286280140932206
1599.99999999964,0.045907445961318,0.999999999998993,0.031823103390708
1699.99999999955,0.0513724506081719,1.00000000000051,0.0352523870914064
1799.99999999946,0.0564260743345728,0.999999999999917,0.0385418004281448
1899.99999999937,0.0621489934399838,0.999999999999125,0.0422577625580976
1999.99999999928,0.0682225335229759,1.0000000000009,0.045891622114146
2099.99999999919,0.0749441095891389,0.999999999999233,0.0496919788471324
2199.99999999909,0.0813411666640695,1.00000000000008,0.0538084266916293
2299.999999999,0.0872253406183545,1.00000000000017,0.0577605114387903
2399.99999999891,0.0939956278226676,0.999999999999106,0.0620976012914954
2499.99999999882,0.101282077218908,1.00000000000087,0.0664954102483693
2599.99999999873,0.108623030503219,0.999999999999447,0.0709767062776299
2699.99999999864,0.115623231931474,0.999999999999655,0.0758118400103714
2799.99999999855,0.122468126429859,1.00000000000038,0.0805337084325698
2899.99999999846,0.130104983150944,0.999999999999261,0.0856206572970899
2999.99999999837,0.138018289732743,1.00000000000069,0.0909189142338314
3099.99999999828,0.145461887549894,0.999999999999632,0.0962410464482351
3199.99999999819,0.152862125096828,0.999999999999339,0.101977487739836
3299.99999999809,0.160600306103764,1.00000000000053,0.107731425580625
3399.999999998,0.168811921848185,0.999999999999449,0.113863748467567
3499.99999999791,0.176820877889291,1.00000000000037,0.120367141075384
3599.99999999782,0.184158560220196,0.999999999999867,0.12690932590604
3699.99999999773,0.191832764544018,0.999999999999368,0.134020644665902
3799.99999999764,0.20003238152255,1.00000000000082,0.141407361526777
3899.99999999755,0.208390410867536,0.999999999999904,0.149282280907834
3999.99999999746,0.216048571690309,1.00000000000075,0.157814323639548
4099.99999999738,0.223292737553732,1.00000000000158,0.166588753411352
4199.99999999775,0.23147994185438,1.00000000000236,0.176217548684522
4299.99999999811,0.239238528253516,1.00000000000601,0.186481577791234
4399.99999999848,0.24794917225435,1.00000000000907,0.197246346667107
4499.99999999884,0.255662152857859,1.00000000001391,0.208770965764829
4599.9999999992,0.262953662048996,1.00000000002215,0.220355095177022
4699.99999999957,0.275629457390647,1.00000000003124,0.232442328970822
4799.99999999993,0.284815927203483,1.00000000004401,0.244729508565015
4900.00000000029,0.301302325774105,1.00000000005629,0.256754983107442
5000.00000000066,0.323357154653315,1.00000000007171,0.268956841971725
5100.00000000102,0.347322818802474,1.00000000008607,0.280776850598202
5200.00000000139,0.395820676623892,1.00000000010028,0.292524117372741
5300.00000000175,0.449243253011196,1.00000000012389,0.304125453156802
5400.00000000211,0.530076052649353,1.000000000141,0.315119366215546
5500.00000000248,0.648144062373061,1.00000000016283,0.326089936034363
5600.00000000284,0.787542957082466,1.00000000018076,0.336833077063998
5700.00000000321,0.994011164668823,1.00000000019003,0.34722242785382
5800.00000000357,1.24547677246873,1.00000000022176,0.357395975329471
5900.00000000393,1.56314571480976,1.00000000023626,0.367010655699077
6000.0000000043,1.97843599486187,1.00000000024756,0.376565459645124
6100.00000000466,2.46046603243719,1.00000000027361,0.385883685756064
6200.00000000502,3.06768466367851,1.00000000029554,0.394581007880308
6300.00000000539,3.78742827808372,1.00000000030829,0.403260516670502
6400.00000000575,4.62317060036426,1.00000000033354,0.411435318586689
6500.00000000612,5.62644755009017,1.00000000033093,0.419495841911759
6600.00000000648,6.75793504193533,1.00000000035439,0.427343624451819
6700.00000000684,8.06877305280748,1.00000000037275,0.434506088904393
6800.00000000721,9.56315482574147,1.00000000036312,0.441729370683366
6900.00000000757,11.2206422043772,1.00000000039374,0.4486119258227
7000.00000000793,13.101499856724,1.00000000040978,0.455097599704369
7100.0000000083,15.1684500357834,1.0000000004079,0.461561932651566
7200.00000000866,17.4493662855267,1.00000000042407,0.46737959284792
7300.00000000903,19.964777693614,1.00000000043795,0.473201673767262
7400.00000000939,22.6772035437947,1.00000000043912,0.478889983627918
7500.00000000975,25.6402372076139,1.00000000044073,0.483954365355016
7600.00000001012,28.827179101673,1.00000000046382,0.489006378533359
7700.00000001048,32.2381769010883,1.00000000046055,0.493804095870698
7800.00000001084,35.9026245073434,1.00000000046484,0.498413737529487
7900.00000001121,39.7787730794451,1.00000000047924,0.502779339823428
8000.00000001157,43.9021075877356,1.00000000048499,0.50674678895172
8100.00000001194,48.2583007334024,1.00000000048408,0.51066702726875
8200.0000000123,52.8269547152585,1.00000000048711,0.51449730210621
8300.00000001266,57.6371312765013,1.00000000048539,0.517991891887154
8400.00000001303,62.6525357975402,1.00000000050031,0.521297666573326
8500.00000001339,67.8865279266314,1.00000000047398,0.524489470962785
8600.00000001376,73.3353664784227,1.00000000049657,0.527441235254378
8700.00000001412,78.9688239358761,1.00000000051206,0.530251304589302
8800.00000001448,84.8080491112978,1.00000000049187,0.532878773109906
8900.00000001485,90.8264685566627,1.00000000050671,0.535366130014812
9000.00000001521,97.0192168192242,1.00000000049184,0.537776316619801
9100.00000001557,103.388141147521,1.00000000048854,0.540014526640215
9200.00000001594,109.90289071785,1.00000000050024,0.542095996735744
9300.0000000163,116.573712139996,1.0000000004861,0.543943279268037
9400.00000001667,123.382526680147,1.00000000050533,0.545737394604772
9500.00000001703,130.314543733898,1.00000000048352,0.547501190308994
9600.00000001739,137.372074040435,1.00000000047824,0.549161831682949
9700.00000001776,144.53019777948,1.00000000048796,0.550587481113378
9800.00000001812,151.789237596191,1.00000000047336,0.551798572271914
9900.00000001848,159.137027546892,1.00000000048408,0.553242271808004
10000.0000000188,166.556711882487,1.00000000046513,0.554439638632944
10100.0000000192,174.046216870117,1.00000000047055,0.555358482444885
10200.0000000196,181.588904442521,1.00000000046912,0.556689288615221
10300.0000000199,189.179088263599,1.000000000458,0.557292831985508
10400.0000000203,196.806030727159,1.00000000047115,0.558254290693354
10500.0000000207,204.456156766783,1.00000000045144,0.559214093679511
10600.000000021,212.123413684728,1.00000000046096,0.559325520550644
10700.0000000214,219.796874198125,1.00000000045471,0.560470917812797
10800.0000000218,227.469398755752,1.00000000045214,0.560690454280273
10900.0000000221,235.130184697293,1.00000000044232,0.561097199406168
11000.0000000225,242.769807127074,1.00000000047174,0.561971419493834
11100.0000000229,250.381176460801,1.00000000045549,0.561771794503842
11200.0000000232,257.954478835525,1.00000000044165,0.562478085246466
11300.0000000236,265.485110372311,1.00000000044148,0.562877462902946
11400.0000000239,272.962538561569,1.00000000043273,0.5627059796857
11500.0000000243,280.379036889867,1.00000000043732,0.563392208646261
11600.0000000247,287.729463612186,1.00000000042573,0.563356349230159
11700.000000025,295.005659635866,1.00000000043703,0.562929167088917
11800.0000000254,302.202912659862,1.00000000042671,0.563692916135324
11900.0000000258,309.313836930786,1.00000000042488,0.563330954168324
12000.0000000261,316.33165544795,1.00000000042108,0.563107633507502
12100.0000000265,323.252765378207,1.00000000042708,0.563439889114976
12200.0000000269,330.071202515923,1.00000000042116,0.563180859251414
12300.0000000272,336.782125826196,1.00000000040178,0.563256948504031
12400.0000000276,343.379804536701,1.00000000040856,0.563092076349804
12500.0000000279,349.862371890413,1.00000000039858,0.562606387382287
12600.0000000283,356.224859208324,1.00000000038876,0.562834527424656
12700.0000000287,362.463431159839,1.00000000038686,0.562665396747247
12800.000000029,368.575527244584,1.00000000039062,0.562082176727141
12900.0000000294,374.555823587815,1.00000000038751,0.562272192238775
13000.0000000298,380.403409842138,1.0000000003902,0.561596297612538
13100.0000000301,386.116119751957,1.00000000037206,0.561685365406447
13200.0000000305,391.689145696059,1.00000000037349,0.561525637368523
13300.0000000309,397.124414250335,1.00000000037505,0.560570370193852
13400.0000000312,402.41441394417,1.00000000036942,0.560669541741766
13500.0000000316,407.562862931473,1.00000000036547,0.560763615510867
13600.0000000319,412.568006946452,1.00000000036459,0.559877749069522
13700.0000000323,417.42373680127,1.00000000035042,0.55986566725771
13800.0000000327,422.134116418128,1.00000000034992,0.559708609936854
13900.000000033,426.696362443645,1.00000000034624,0.558934791288202
14000.0000000334,431.109449742957,1.00000000034921,0.55856179420897
14100.0000000338,435.376073262829,1.00000000036106,0.558426851058142
14200.0000000341,439.492492796774,1.00000000034397,0.558250391679237
14300.0000000345,443.460695899905,1.00000000034008,0.557707965463437
14400.0000000349,447.280590812094,1.00000000033306,0.557443105535083
14500.0000000352,450.95205325803,1.00000000033483,0.556785588452503
14600.0000000356,454.478040613265,1.0000000003303,0.556388632943681
14700.0000000359,457.854272162055,1.00000000032447,0.556669164970985
14800.0000000363,461.086607431516,1.00000000032804,0.556597477252345
14900.0000000367,464.17389890275,1.00000000031123,0.555627771304535
15000.000000037,467.115424836839,1.00000000031182,0.555081421201059
15100.0000000374,469.915747533118,1.00000000031667,0.554468510488094
15200.0000000378,472.571992772978,1.00000000030999,0.55477908815335
15300.0000000381,475.088878274282,1.00000000030504,0.555310933253962
15400.0000000385,477.468395308481,1.00000000029959,0.554941623877014
15500.0000000389,479.710808677275,1.00000000029365,0.554424916856607
15600.0000000392,481.817921209789,1.00000000028928,0.551596838920433
15700.0000000396,483.789271131027,1.00000000029522,0.55234855265093
15800.0000000399,485.627087890575,1.00000000028294,0.553396915024502
15900.0000000403,487.340718126834,1.00000000030019,0.555710961428676
16000.0000000407,488.926121757286,1.00000000029544,0.554672057927021
16100.000000041,490.391101385346,1.00000000029458,0.55189190473294
16200.0000000414,491.727770342046,1.00000000027131,0.548862722826113
16300.0000000418,492.940336961903,1.00000000027328,0.548737126756281
16400.0000000418,494.031002406293,1.0000000002756,0.551539152474972
16500.0000000404,495.005245771672,1.00000000027918,0.55591460173308
16600.0000000389,495.87375985718,1.00000000028075,0.556824425884614
16700.0000000375,496.637491472266,1.00000000028027,0.553005309858831
16800.000000036,497.29189176407,1.00000000026161,0.546059808497851
16900.0000000346,497.830685213278,1.00000000025581,0.542364501015297
17000.0000000331,498.252592070617,1.00000000025802,0.546389010779466
17100.0000000317,498.571925145398,1.0000000002626,0.554769173917851
17200.0000000302,498.80415078374,1.00000000027821,0.560395541930371
17300.0000000287,498.957235505664,1.000000000276,0.5576720545725
17400.0000000273,499.029235321536,1.00000000026486,0.548675448810041
17500.0000000258,499.004127051074,1.00000000023438,0.538599945877562
17600.0000000244,498.873936996616,1.00000000023293,0.535530218480732
17700.0000000229,498.642676720949,1.00000000023891,0.543063683780111
17800.0000000215,498.329367080479,1.00000000027547,0.555884860560511
17900.00000002,497.957891344824,1.00000000030032,0.563477925835447
18000.0000000186,497.537156843544,1.00000000030539,0.560976614782528
18100.0000000171,497.062556025944,1.00000000027566,0.547983096027844
18200.0000000156,496.51333250136,1.00000000022733,0.532319418776188
18300.0000000142,495.872184225152,1.00000000020795,0.52440064641822
18400.0000000127,495.139874712699,1.00000000021689,0.530791728038115
18500.0000000113,494.336048250231,1.00000000025992,0.549402179096217
18600.0000000098,493.492396313926,1.00000000030254,0.564283620177397
18700.0000000084,492.628155930404,1.00000000032217,0.567035504042211
18800.0000000069,491.741469888381,1.00000000030325,0.555691569896245
18900.0000000055,490.814858000788,1.00000000025547,0.535445702692167
19000.000000004,489.821197320115,1.00000000020608,0.515696580017342
19100.0000000026,488.74649006541,1.00000000017628,0.509359175637515
19200.0000000011,487.597205827786,1.00000000021556,0.524322749278056
19299.9999999996,486.401053878292,1.00000000027137,0.549674517057154
19399.9999999982,485.191012105862,1.0000000003348,0.567487074240183
19499.9999999967,483.984206780412,1.00000000034201,0.569765365117381
19599.9999999953,482.778257274066,1.00000000032732,0.556939923887605
19699.9999999938,481.553689821152,1.00000000026915,0.531996823001752
19799.9999999924,480.280540207716,1.00000000020356,0.505051272211234
19899.9999999909,478.94097011459,1.00000000016587,0.491853316570242
19999.9999999895,477.533895459053,1.00000000018661,0.50279547305297
20099.999999988,476.084685926532,1.00000000025562,0.533845949405944
20199.9999999865,474.625284966577,1.00000000032699,0.561554169229558
20299.9999999851,473.17948267146,1.00000000035881,0.573143924020581
20399.9999999836,471.755598510536,1.00000000035938,0.568919368677131
20499.9999999822,470.342684581168,1.00000000032322,0.548967754619103
20599.9999999807,468.916523121861,1.00000000024389,0.517797266763789
20699.9999999793,467.450601686334,1.000000000179,0.487704032173193
20799.9999999778,465.927321343213,1.00000000015206,0.475411683399287
20899.9999999764,464.353213879176,1.00000000018351,0.4907957720512
20999.9999999749,462.748540355958,1.00000000025198,0.526378796404042
21099.9999999734,461.142512821582,1.00000000033622,0.557924884485346
21199.999999972,459.558105664112,1.00000000039126,0.57391956814349
21299.9999999705,458.003764834952,1.00000000038493,0.573865770821112
21399.9999999691,456.475178613502,1.00000000035836,0.558051220556502
21499.9999999676,454.953104790928,1.00000000029004,0.529349821363454
21599.9999999662,453.413689116722,1.00000000021932,0.493979667703539
21699.9999999647,451.838317829191,1.00000000016016,0.468060173156962
21799.9999999633,450.218448276547,1.00000000015749,0.464910015596473
21899.9999999618,448.565454598385,1.00000000020188,0.488188158103125
21999.9999999603,446.898001057966,1.00000000027099,0.52630719647998
22099.9999999589,445.238471892956,1.00000000034946,0.558309567420164
22199.9999999574,443.604801755467,1.0000000003965,0.5729754494009
22299.999999956,442.002996186689,1.0000000003958,0.572193856788882
22399.9999999545,440.42927642283,1.00000000037149,0.559202991323248
22499.9999999531,438.871287901936,1.00000000030592,0.534557073594093
22599.9999999516,437.309586334775,1.00000000024022,0.500732435299727
22699.9999999502,435.729469212691,1.00000000018366,0.469960732059157
22799.9999999487,434.119759688356,1.00000000016287,0.455394231586876
22899.9999999473,432.483314239478,1.00000000017699,0.463776802578607
22999.9999999458,430.829664067892,1.00000000021603,0.492349595081564
23099.9999999443,429.174055354981,1.00000000029956,0.528201135007777
23199.9999999429,427.532416653369,1.00000000035488,0.55538881853576
23299.9999999414,425.914949233976,1.00000000039563,0.567618396193445
23399.99999994,424.325582387743,1.00000000039602,0.5664314086942
23499.9999999385,422.76237378569,1.00000000037199,0.554215138113643
23599.9999999371,421.215869170682,1.00000000032372,0.534179281891818
23699.9999999356,419.675427426851,1.00000000027213,0.507412634598044
23799.9999999342,418.128766946489,1.00000000021869,0.47840805496209
23899.9999999327,416.568429363043,1.00000000018549,0.458894234772488
23999.9999999312,414.992919663121,1.00000000017205,0.455166859729081
24099.9999999298,413.404078457539,1.00000000019828,0.467319329299008
24199.9999999283,411.810961544519,1.00000000023135,0.492645639513319
24299.9999999269,410.221798151022,1.00000000029456,0.521691029972585
24399.9999999254,408.645485451059,1.00000000035281,0.545501692411132
24499.999999924,407.088813423112,1.00000000036783,0.555673352480261
24599.9999999225,405.553735840013,1.00000000037582,0.555836747103163
24699.9999999211,404.039634591476,1.00000000036329,0.546915020832383
24799.9999999196,402.542227780879,1.00000000033338,0.532084945465707
24899.9999999181,401.054843193246,1.0000000003046,0.515105777182495
24999.9999999167,399.571847787193,1.00000000025525,0.494712954167456
25099.9999999152,398.087000984874,1.00000000021385,0.475590716848758
25199.9999999138,396.598792250518,1.00000000019255,0.463083775368277
25299.9999999123,395.106345842406,1.00000000019691,0.460483900728638
25399.9999999109,393.611595605778,1.00000000020702,0.468442215269916
25499.9999999094,392.118518170437,1.00000000024133,0.484834561968749
25599.999999908,390.630393053621,1.00000000027918,0.505241295745416
25699.9999999065,389.152108398298,1.0000000003167,0.524768804697012
25799.9999999051,387.687173061167,1.00000000034111,0.53638819678397
25899.9999999036,386.236866401397,1.00000000035995,0.540977882341615
25999.9999999021,384.802045910432,1.00000000035438,0.537975262469263
26099.9999999007,383.381392468251,1.00000000033049,0.529690956330806
26199.9999998992,381.972305743229,1.00000000031742,0.521099969452307
26299.9999998978,380.572855679069,1.00000000028336,0.510258900474249
26399.9999998963,379.179584021998,1.00000000026247,0.500130700976998
26499.9999998949,377.791709830408,1.00000000024088,0.490103325604268
26599.9999998934,376.407444700018,1.00000000022072,0.47876216687437
26699.999999892,375.027209856849,1.00000000022138,0.472370788820671
26799.9999998905,373.651345686946,1.00000000021424,0.470834054507319
26899.999999889,372.280044494741,1.00000000023036,0.475006097767077
26999.9999998876,370.915305415886,1.00000000024474,0.484635330177918
27099.9999998861,369.557763885722,1.00000000026388,0.497461391314546
27199.9999998847,368.208961707321,1.00000000030148,0.509087446278721
27299.9999998832,366.870195716223,1.00000000032086,0.518903788729853
27399.9999998818,365.541845618184,1.00000000032835,0.523768634083353
27499.9999998803,364.223976061863,1.00000000033404,0.524523901258005
27599.9999998789,362.91665967041,1.0000000003243,0.522359343991853
27699.9999998774,361.618792052276,1.00000000030952,0.518471894618521
27799.9999998759,360.33010141686,1.0000000002947,0.513562346609139
27899.9999998745,359.049678113084,1.00000000027042,0.508811018646428
27999.999999873,357.77728148449,1.00000000026096,0.506141689026745
28099.9999998716,356.512811436513,1.00000000026611,0.504612106792264
28199.9999998701,355.256262728317,1.00000000025328,0.498647430963662
28299.9999998687,354.008222538281,1.00000000024304,0.492644060631882
28399.9999998672,352.768290424176,1.00000000024123,0.485702916007237
28499.9999998658,351.537308627779,1.00000000022711,0.480630821575678
28599.9999998643,350.314694561161,1.00000000022829,0.478864571071023
28699.9999998629,349.100849335053,1.00000000023939,0.480389699928084
28799.9999998614,347.896265253568,1.00000000023573,0.486296472840253
28899.9999998599,346.700559252227,1.00000000026078,0.494444990360601
