Time,AGPnorm,Energy,Entropy
0,0,1,-7.57152735794551e-17
99.9999999999986,0.00102589634762764,0.999999999999849,0.0034317415260986
199.999999999993,0.00691751570034745,0.99999999999945,0.0101324857140165
300,0.0141161994883485,0.999999999999682,0.0187457728093852
400.000000000022,0.0214332848037101,1.00000000000011,0.0295435648741347
500.000000000045,0.0304276590032994,0.999999999999694,0.0426437244010255
600.000000000068,0.0420829604874842,0.999999999999394,0.0577092569128248
700.000000000091,0.0540038117699477,0.999999999999649,0.0744620887812529
800.000000000113,0.0666163594256612,1.00000000000029,0.0932188476662493
900.000000000136,0.0795056075747004,0.999999999999945,0.1146975701235
1000.00000000016,0.093852615202951,0.999999999999747,0.139434922204246
1100.0000000001,0.107844704681878,1.00000000000218,0.168540395208755
1200,0.122437656147094,1.00000000001847,0.203567181771499
1299.99999999991,0.136976780841116,1.00000000007598,0.245289828557183
1399.99999999982,0.150895401116466,1.00000000019668,0.290627706902268
1499.99999999973,0.189301638308069,1.00000000037442,0.334796344490419
1599.99999999964,0.305275775358997,1.00000000055245,0.374576859190573
1699.99999999955,0.538242063505856,1.00000000077291,0.409672182179529
1799.99999999946,0.950535906671047,1.00000000091714,0.44031094563796
1899.99999999937,1.64611432863886,1.00000000114322,0.466355196986319
1999.99999999928,2.71045832479091,1.00000000122567,0.488305487106609
2099.99999999919,4.17200947008548,1.00000000133598,0.50717963661622
2199.99999999909,6.05470769588915,1.00000000135841,0.523056807050713
2299.999999999,8.3860540186387,1.00000000148218,0.535824964722148
2399.99999999891,11.1469572785233,1.00000000149471,0.545838307978504
2499.99999999882,14.2805464410462,1.00000000137791,0.555068980646756
2599.99999999873,17.7453633286848,1.00000000154987,0.561429692351711
2699.99999999864,21.4990033809864,1.0000000014839,0.566400840405983
2799.99999999855,25.4678864788233,1.00000000147592,0.56978056296544
2899.99999999846,29.5609783001598,1.00000000137118,0.572905883450652
2999.99999999837,33.7198114717549,1.00000000134431,0.574350025270722
3099.99999999828,37.9041375272069,1.0000000013719,0.57464425102318
3199.99999999819,42.0496381216185,1.00000000136606,0.574378717422041
3299.99999999809,46.0839098357257,1.00000000132622,0.574107511739339
3399.999999998,49.9622418883811,1.00000000122005,0.573106381962421
3499.99999999791,53.6649614832323,1.00000000124776,0.572055551322841
3599.99999999782,57.1620736651919,1.00000000121728,0.571266564211901
3699.99999999773,60.4173819539457,1.00000000111946,0.568445377623504
3799.99999999764,63.4078591275611,1.00000000110948,0.566018111034362
3899.99999999755,66.1205801600308,1.00000000108238,0.567181835355163
3999.99999999746,68.5584914392562,1.00000000102567,0.562856115555885
4099.99999999738,70.7217795765712,1.00000000101505,0.560851856282633
4199.99999999775,72.5969123347105,1.000000000994,0.559650304213002
4299.99999999811,74.1865040268489,1.00000000098721,0.558881226697177
4399.99999999848,75.5132664438955,1.00000000089296,0.556801384597658
4499.99999999884,76.5801052770363,1.00000000089258,0.55220941173139
4599.9999999992,77.4079982146589,1.00000000089362,0.560381337711352
4699.99999999957,78.005217177837,1.00000000083234,0.545824720778265
4799.99999999993,78.3679944469452,1.0000000008062,0.552338062714553
4900.00000000029,78.5640035915194,1.0000000008849,0.561896103571436
5000.00000000066,78.5818133578351,1.00000000065768,0.529861363116981
5100.00000000102,78.4163578215585,1.00000000079544,0.554569433742153
5200.00000000139,78.1582023887917,1.00000000096736,0.566215551922413
5300.00000000175,77.7824898375122,1.00000000059725,0.519040820106428
5400.00000000211,77.2520938732851,1.00000000072667,0.535873472121186
5500.00000000248,76.6809163178709,1.00000000106766,0.577452355458994
5600.00000000284,76.081128796941,1.00000000076768,0.527008247003727
5700.00000000321,75.3595471127215,1.00000000053296,0.491255052296953
5800.00000000357,74.5675713286656,1.00000000093384,0.560363596631315
5900.00000000393,73.8103963290597,1.00000000113187,0.571056777613197
6000.0000000043,73.0402978014044,1.00000000069475,0.497626656672373
6100.00000000466,72.1811389418306,1.00000000051562,0.468604532813979
6200.00000000502,71.2863075374286,1.00000000100098,0.551183052403008
6300.00000000539,70.4403254741923,1.0000000011962,0.573047409331329
6400.00000000575,69.6217551984729,1.00000000085582,0.508845095659067
6500.00000000612,68.759894377566,1.00000000050913,0.441927642449838
6600.00000000648,67.8545901575874,1.00000000069798,0.48635799683212
6700.00000000684,66.9680805574259,1.00000000113306,0.562055033415891
6800.00000000721,66.1331036037122,1.00000000111282,0.556260945381619
6900.00000000757,65.3206369935302,1.00000000078182,0.492304950886856
7000.00000000793,64.4895914445894,1.00000000051888,0.434498514435205
7100.0000000083,63.639481531423,1.00000000068397,0.462756916960945
7200.00000000866,62.7995516738313,1.00000000099535,0.527703993658321
7300.00000000903,61.9939924546658,1.00000000115126,0.55293228351949
7400.00000000939,61.2209716880274,1.00000000097874,0.526199494371258
7500.00000000975,60.4593523242713,1.00000000068343,0.470974637391072
7600.00000001012,59.6986643170717,1.00000000060014,0.443782081824879
7700.00000001048,58.9424677026936,1.00000000066285,0.465486985668901
7800.00000001084,58.1985717104212,1.00000000086675,0.500868170405596
7900.00000001121,57.4734481394534,1.00000000102951,0.531123979485162
8000.00000001157,56.7694641844185,1.00000000108591,0.537490409171149
8100.00000001194,56.0838441753318,1.00000000090277,0.510031427726413
8200.0000000123,55.4126200860081,1.00000000070637,0.467824374770014
8300.00000001266,54.7578343029223,1.0000000007257,0.463810967387099
8400.00000001303,54.1210958118306,1.00000000077853,0.481234884203207
8500.00000001339,53.5000782787619,1.00000000076806,0.491863818611525
8600.00000001376,52.8948252392039,1.00000000078495,0.499754830461668
8700.00000001412,52.3036525632172,1.0000000009461,0.520957496623974
8800.00000001448,51.7220144833284,1.00000000106484,0.53227448619669
8900.00000001485,51.151337674159,1.00000000092988,0.52066504504409
9000.00000001521,50.599612077861,1.00000000066309,0.478785536327698
9100.00000001557,50.0724474212973,1.00000000064273,0.464079197971834
9200.00000001594,49.5656767775532,1.00000000079945,0.480943750997093
9300.0000000163,49.0718737538039,1.00000000094176,0.500969294832659
9400.00000001667,48.5913546234871,1.00000000077303,0.501020478329441
9500.00000001703,48.1295173978669,1.00000000071399,0.485171783488504
9600.00000001739,47.6837582927605,1.00000000084909,0.504145952068074
9700.00000001776,47.2430576654676,1.00000000098298,0.529080487545151
9800.00000001812,46.8001525746731,1.00000000111428,0.537095224031016
9900.00000001848,46.3624809605454,1.00000000088971,0.51886954929921
10000.0000000188,45.944656417025,1.00000000069607,0.486052429209785
10100.0000000192,45.5548592549246,1.00000000064855,0.468557213820116
10200.0000000196,45.1871534028549,1.00000000080529,0.480665083676213
10300.0000000199,44.8302997518651,1.00000000093852,0.494908987303386
10400.0000000203,44.476318554275,1.00000000094766,0.502441721710517
10500.0000000207,44.1295405279194,1.00000000081439,0.511021506204997
10600.000000021,43.7993017478137,1.00000000071053,0.498397748405606
10700.0000000214,43.485203526456,1.0000000008173,0.503265711485826
10800.0000000218,43.1771977318553,1.0000000009413,0.522321364412088
10900.0000000221,42.8682239591037,1.00000000103343,0.535851294062209
11000.0000000225,42.5551902620097,1.00000000096451,0.536939648051002
11100.0000000229,42.2409654348473,1.00000000088937,0.529036030275101
11200.0000000232,41.9396721061522,1.00000000077577,0.509971862422823
11300.0000000236,41.6622843199652,1.00000000066954,0.488945354184194
11400.0000000239,41.4084773686895,1.00000000078285,0.489757280255699
11500.0000000243,41.1717199560761,1.00000000082045,0.496250341680835
11600.0000000247,40.9458923302393,1.00000000085714,0.500709137116592
11700.000000025,40.7264957245379,1.00000000085431,0.507602219679921
11800.0000000254,40.5136629392576,1.00000000084246,0.500441054269498
11900.0000000258,40.3045145728074,1.00000000095139,0.523798223084331
12000.0000000261,40.0968934247023,1.000000000857,0.530393202251549
12100.0000000265,39.8905309903186,1.00000000085334,0.535140228499771
12200.0000000269,39.6885705575879,1.00000000081739,0.536670264562635
12300.0000000272,39.4912258912984,1.00000000082361,0.530746327357499
12400.0000000276,39.2989125579666,1.00000000086946,0.525510278260051
12500.0000000279,39.1071430802647,1.00000000097221,0.533916567848631
12600.0000000283,38.9095950309802,1.00000000103439,0.540059351960488
12700.0000000287,38.7091638753065,1.000000000916,0.539599308768192
12800.000000029,38.5201322367974,1.00000000076786,0.521540862937006
12900.0000000294,38.3535739867273,1.00000000070118,0.508819316548253
13000.0000000298,38.2099526686287,1.00000000072051,0.492681540876743
13100.0000000301,38.0794022284938,1.00000000089934,0.504380335168457
13200.0000000305,37.9512987487664,1.00000000088491,0.513950753258797
13300.0000000309,37.8274375699055,1.00000000086135,0.507238628645168
13400.0000000312,37.7143298045967,1.00000000078284,0.501195599661284
13500.0000000316,37.6127369467265,1.00000000077646,0.511924676515315
13600.0000000319,37.5215673782018,1.00000000075833,0.518321395232891
13700.0000000323,37.4322679342041,1.00000000087293,0.525889740863429
13800.0000000327,37.335843858555,1.00000000096186,0.539850832843261
13900.000000033,37.2267428206171,1.0000000010024,0.551808266250986
14000.0000000334,37.1056910636174,1.00000000088133,0.557101663958325
14100.0000000338,36.9791104963414,1.00000000084539,0.558747431345869
14200.0000000341,36.8531966800552,1.00000000082834,0.557481795302446
14300.0000000345,36.7327419865882,1.00000000079419,0.550455076673919
14400.0000000349,36.6173214931697,1.00000000081641,0.546712971160117
14500.0000000352,36.5043165534253,1.00000000091758,0.541486787635963
14600.0000000356,36.390388862361,1.00000000094535,0.541683253178867
14700.0000000359,36.2733187374918,1.00000000098621,0.549105478767758
14800.0000000363,36.1539787992313,1.00000000092768,0.550750314776898
14900.0000000367,36.0414902751797,1.00000000079561,0.540254317383157
15000.000000037,35.9451841939565,1.00000000074946,0.532636736236159
15100.0000000374,35.8676039913091,1.00000000072674,0.522087937361223
15200.0000000378,35.8053060166489,1.00000000077471,0.519153568347171
15300.0000000381,35.7544999593523,1.00000000080045,0.520037614881592
15400.0000000385,35.7107303979078,1.00000000087732,0.515547484456962
15500.0000000389,35.6675461752603,1.00000000083462,0.514242115307476
15600.0000000392,35.6284974685547,1.00000000082728,0.51255796507812
15700.0000000396,35.5982870909807,1.00000000078914,0.518762282966733
15800.0000000399,35.5750374479345,1.00000000081395,0.532054657045663
15900.0000000403,35.5515659699014,1.00000000089023,0.545825307930631
16000.0000000407,35.5247884957199,1.00000000089148,0.557937465222962
16100.000000041,35.4959192598032,1.0000000008562,0.563860690322904
16200.0000000414,35.4680464497115,1.0000000008041,0.56437811088359
16300.0000000418,35.441827441164,1.00000000078654,0.560632207454127
16400.0000000418,35.4139734863189,1.00000000091111,0.558299273229026
16500.0000000404,35.3770070019405,1.00000000091171,0.565107532597914
16600.0000000389,35.3277030365333,1.00000000094424,0.567547293595642
16700.0000000375,35.2656428983354,1.00000000097823,0.564855354486577
16800.000000036,35.1908386204389,1.00000000099406,0.569808650819792
16900.0000000346,35.1066413277563,1.00000000094617,0.580644801840164
17000.0000000331,35.0193536412611,1.00000000082837,0.581832859877934
17100.0000000317,34.935595941305,1.00000000078634,0.573514788804272
17200.0000000302,34.8586424179037,1.00000000074596,0.563577205024118
17300.0000000287,34.7874628592048,1.00000000081276,0.561036275183569
17400.0000000273,34.7192815477886,1.00000000090065,0.559448827082618
17500.0000000258,34.6511823671468,1.00000000099474,0.561317684034565
17600.0000000244,34.5823733041907,1.00000000096272,0.563331123079108
17700.0000000229,34.5119510511152,1.00000000088748,0.563231753715772
17800.0000000215,34.4421037428704,1.00000000088091,0.56284959535426
17900.00000002,34.379622919091,1.00000000082583,0.560735967288925
18000.0000000186,34.3308798457007,1.00000000073183,0.553230984486948
18100.0000000171,34.298548326687,1.00000000077029,0.548581726066723
18200.0000000156,34.2801836172106,1.00000000079276,0.533749926133296
18300.0000000142,34.2712629515691,1.0000000008854,0.534449817664426
18400.0000000127,34.2679383640758,1.00000000090895,0.532366295021645
18500.0000000113,34.2666698506714,1.00000000083481,0.531743602154147
18600.0000000098,34.2717511305965,1.00000000081808,0.534038938563941
18700.0000000084,34.284536185867,1.00000000080525,0.529387120862498
18800.0000000069,34.3018798998759,1.00000000083952,0.529188299697509
18900.0000000055,34.3205450041983,1.00000000089298,0.533048823202099
19000.000000004,34.3406167528988,1.00000000084641,0.530028671306678
19100.0000000026,34.3625198926978,1.00000000084191,0.531584080727909
19200.0000000011,34.3840443683884,1.00000000089302,0.543064823871517
19299.9999999996,34.4006521903837,1.00000000093718,0.562178012794034
19399.9999999982,34.413043696964,1.00000000089449,0.570963889306981
19499.9999999967,34.4229863119595,1.00000000087841,0.569564398760806
19599.9999999953,34.4306872408872,1.00000000085535,0.567200548715622
19699.9999999938,34.4364973857901,1.00000000090047,0.56923635214417
19799.9999999924,34.4380956249729,1.00000000091363,0.574109113480556
19899.9999999909,34.4329412496689,1.00000000098352,0.580326690525286
19999.9999999895,34.4222744479059,1.00000000089479,0.586882237351194
20099.999999988,34.4088715934883,1.00000000090016,0.593738721923719
20199.9999999865,34.3939990523942,1.00000000089033,0.594400190184123
20299.9999999851,34.373598984724,1.0000000008976,0.591152608202838
20399.9999999836,34.3474612531051,1.00000000088933,0.590812662755794
20499.9999999822,34.317403784219,1.00000000088359,0.588552456743806
20599.9999999807,34.2827531185481,1.00000000091647,0.581699314878522
20699.9999999793,34.2411709646012,1.00000000092184,0.572862512085969
20799.9999999778,34.1902971583865,1.00000000101162,0.572736590927104
20899.9999999764,34.1308652951638,1.00000000096796,0.583709489153696
20999.9999999749,34.0639372943472,1.00000000100033,0.587161238773307
21099.9999999734,33.992074060795,1.00000000091779,0.585489965496169
21199.999999972,33.9191532763921,1.00000000088364,0.587477684693003
21299.9999999705,33.8488044337687,1.00000000080554,0.583256859703388
21399.9999999691,33.7829637720316,1.00000000080667,0.579978771419783
21499.9999999676,33.7224545933891,1.00000000080476,0.579398976078853
21599.9999999662,33.664328126723,1.00000000083088,0.575936054310885
21699.9999999647,33.6091292921975,1.00000000090942,0.577723493762804
21799.9999999633,33.556381703823,1.00000000095974,0.580283717057308
21899.9999999618,33.505466465353,1.00000000099013,0.57920275956007
21999.9999999603,33.4552611236668,1.00000000100495,0.574539997569379
22099.9999999589,33.4051396969555,1.00000000095813,0.565781291458796
22199.9999999574,33.3557954963256,1.00000000095051,0.561799810329532
22299.999999956,33.3097136728361,1.00000000085095,0.558335450531651
22399.9999999545,33.2708961530084,1.00000000080838,0.561942596681889
22499.9999999531,33.2441694446196,1.00000000080405,0.562102032457488
22599.9999999516,33.2302059745651,1.00000000087008,0.56099411644194
22699.9999999502,33.2269138552323,1.0000000008432,0.553422994832545
22799.9999999487,33.2331922886557,1.00000000085047,0.552899875488875
22899.9999999473,33.2479369821096,1.00000000084079,0.549828763497887
22999.9999999458,33.2667888587292,1.00000000090135,0.544749533935808
23099.9999999443,33.2890675732424,1.00000000090304,0.539410174851979
23199.9999999429,33.3144362803728,1.00000000090579,0.53947486434391
23299.9999999414,33.3463882701838,1.00000000078634,0.53800266477977
23399.99999994,33.3847262994286,1.00000000086533,0.542495730259018
23499.9999999385,33.4256857625027,1.00000000090033,0.544973626348776
23599.9999999371,33.4687735702165,1.00000000085635,0.547555016464207
23699.9999999356,33.5134670858205,1.00000000087264,0.55095838525391
23799.9999999342,33.5597973790607,1.00000000091282,0.549727978362963
23899.9999999327,33.6055007034198,1.00000000091652,0.553680858996998
23999.9999999312,33.6467081980967,1.00000000090408,0.564043274820539
24099.9999999298,33.6829138829129,1.00000000090812,0.57650996542699
24199.9999999283,33.7157121884994,1.00000000097134,0.585928146772541
24299.9999999269,33.7457229944978,1.00000000093235,0.590291618483982
24399.9999999254,33.7712658219476,1.0000000009264,0.596310078733607
24499.999999924,33.7933217765745,1.00000000088723,0.605103619093476
24599.9999999225,33.8134828414833,1.00000000093471,0.607213079697412
24699.9999999211,33.8305025021863,1.00000000089568,0.604002032536118
24799.9999999196,33.84540933719,1.00000000092096,0.611427064315345
24899.9999999181,33.8587672382162,1.00000000094547,0.61489887772069
24999.9999999167,33.86964975645,1.00000000088218,0.609239524901634
25099.9999999152,33.8793832258951,1.00000000086788,0.605237903490738
25199.9999999138,33.8888888043241,1.00000000093323,0.605682058945484
25299.9999999123,33.8944776945822,1.00000000094287,0.602159792326698
25399.9999999109,33.8947374959204,1.00000000093862,0.612863155400447
25499.9999999094,33.8906559726161,1.00000000097086,0.625628283685715
25599.999999908,33.88291770996,1.00000000089764,0.623254642220004
25699.9999999065,33.8734026708165,1.0000000009144,0.620800911516529
25799.9999999051,33.8608511605115,1.00000000092503,0.620639237606123
25899.9999999036,33.8456280243645,1.00000000088921,0.62129129128381
25999.9999999021,33.8297137570998,1.00000000086145,0.615864639057835
26099.9999999007,33.8129887155097,1.00000000089038,0.608253690458723
26199.9999998992,33.7940791444076,1.00000000095963,0.608422059112114
26299.9999998978,33.7730298342227,1.00000000094947,0.604815064439591
26399.9999998963,33.7491002127424,1.00000000095409,0.614034054347666
26499.9999998949,33.7194874084848,1.00000000102341,0.616309508811958
26599.9999998934,33.6856675885543,1.00000000092726,0.613993556218494
26699.999999892,33.6502928472793,1.00000000094204,0.621066824564394
26799.9999998905,33.6137483327075,1.00000000091863,0.621867234033756
26899.999999889,33.5774015746838,1.0000000008429,0.621950317437219
26999.9999998876,33.5415211129569,1.00000000093522,0.625346942176995
27099.9999998861,33.5039674497137,1.00000000088862,0.627148237562155
27199.9999998847,33.4642376939791,1.00000000090141,0.618700180780029
27299.9999998832,33.4228727569622,1.00000000090234,0.616809732707667
27399.9999998818,33.3780864547201,1.00000000090122,0.62118116844086
27499.9999998803,33.3296143247551,1.00000000095988,0.618617840382907
27599.9999998789,33.2785432578101,1.00000000094881,0.617791976917148
27699.9999998774,33.2242913425978,1.00000000094035,0.618432163067084
27799.9999998759,33.1665148894909,1.00000000098328,0.619596725950194
27899.9999998745,33.1047322135672,1.00000000097642,0.621757134097618
27999.999999873,33.0395521048468,1.00000000099002,0.631241606482747
28099.9999998716,32.9721321901299,1.00000000095,0.632608075291276
28199.9999998701,32.9026710764554,1.00000000091856,0.635521755763701
28299.9999998687,32.8322678747369,1.00000000094125,0.637318662931413
28399.9999998672,32.7622114275841,1.00000000084622,0.631179452803222
28499.9999998658,32.6938719242463,1.0000000008299,0.628731789062547
28599.9999998643,32.628178561719,1.0000000008398,0.619504872416582
28699.9999998629,32.565032093854,1.00000000082995,0.616837341444949
28799.9999998614,32.5048326194741,1.00000000089989,0.621307270155677
28899.9999998599,32.4473239939584,1.00000000087797,0.624842532799155
28999.9999998585,32.3928069578784,1.00000000094228,0.631799713972908
