Time,AGPnorm,Energy,Entropy
0,0,1,-7.47542456283106e-17
99.9999999999986,0.00132833245111695,1.00000000000261,0.00415971607762062
199.999999999993,0.00853534909176621,1.00000000000288,0.0123345515919983
300,0.0175377457816689,1.00000000000062,0.0227190093145392
400.000000000022,0.0268236780915007,0.999999999999707,0.0354798558806812
500.000000000045,0.0375323533540561,1.00000000000112,0.0510656074342686
600.000000000068,0.0516553871807554,1.00000000000285,0.0694046323434038
700.000000000091,0.0655088439077434,1.00000000000179,0.0900371132678414
800.000000000113,0.0802008838311211,1.00000000000042,0.1132322563108
900.000000000136,0.0952837154523021,1.00000000000081,0.140573094477318
1000.00000000016,0.11085662241218,1.00000000000683,0.1738380426374
1100.0000000001,0.126243917230683,1.00000000003579,0.21526683344013
1200,0.147327848532735,1.00000000014057,0.263671978757228
1299.99999999991,0.177286845041286,1.00000000034545,0.314004279512054
1399.99999999982,0.230140712897755,1.00000000061611,0.3608591378913
1499.99999999973,0.385390484318613,1.00000000091577,0.402314430651944
1599.99999999964,0.748340472573942,1.00000000113303,0.437825474082949
1699.99999999955,1.37741016037586,1.00000000135062,0.467753934532733
1799.99999999946,2.32637784146483,1.00000000149267,0.493055496677768
1899.99999999937,3.6715359114886,1.00000000167071,0.513986597202438
1999.99999999928,5.46657280301317,1.00000000173483,0.531247029325149
2099.99999999919,7.70226012461917,1.00000000170486,0.545242160387196
2199.99999999909,10.3347702570753,1.00000000183131,0.556050052331668
2299.999999999,13.313799434432,1.00000000176465,0.56483494405153
2399.99999999891,16.5804270152947,1.00000000180307,0.571276291882011
2499.99999999882,20.0707042150436,1.00000000176356,0.576411108933814
2599.99999999873,23.717521602498,1.00000000167388,0.579340310004334
2699.99999999864,27.4385442813564,1.00000000167424,0.581221308633429
2799.99999999855,31.1532357985434,1.00000000158441,0.582152806556755
2899.99999999846,34.801160329753,1.00000000164984,0.582237239807555
2999.99999999837,38.3426423180952,1.00000000151159,0.581581616777902
3099.99999999828,41.7320092058755,1.00000000149552,0.580176333732713
3199.99999999819,44.9195968545971,1.00000000150324,0.579401532396104
3299.99999999809,47.8655236507384,1.0000000014336,0.578241380531569
3399.999999998,50.5586334229893,1.00000000127534,0.574295524751484
3499.99999999791,52.9980520104191,1.00000000129409,0.571829504673401
3599.99999999782,55.1662351608469,1.00000000126576,0.57206811395221
3699.99999999773,57.0496323397649,1.0000000012601,0.569228354868568
3799.99999999764,58.6554562049642,1.00000000121445,0.565310600156226
3899.99999999755,59.9882634204118,1.00000000117873,0.568274895875682
3999.99999999746,61.0663254883934,1.00000000105474,0.561133621955646
4099.99999999738,61.8942699125594,1.00000000107945,0.563835422474591
4199.99999999775,62.4915347136379,1.00000000107948,0.561125703422555
4299.99999999811,62.8589312904485,1.00000000094562,0.555928153361602
4399.99999999848,63.0433402668339,1.00000000109142,0.568631993499072
4499.99999999884,63.0535605202082,1.00000000089864,0.542377062192854
4599.9999999992,62.8970624140855,1.00000000107652,0.568928838880502
4699.99999999957,62.6448245537743,1.00000000100934,0.552525380061796
4799.99999999993,62.243023591117,1.0000000008011,0.52822299859315
4900.00000000029,61.7585507920958,1.00000000122085,0.579278383132348
5000.00000000066,61.2381649637515,1.00000000094671,0.536922450587463
5100.00000000102,60.6054944409748,1.00000000078826,0.51351513223459
5200.00000000139,59.9325811369301,1.00000000129434,0.580665902650258
5300.00000000175,59.2701833997059,1.00000000108571,0.538360056529889
5400.00000000211,58.5373159194498,1.00000000068655,0.490579364316841
5500.00000000248,57.7599433968392,1.0000000012528,0.554244135856454
5600.00000000284,57.0209985388985,1.00000000139163,0.569492829309154
5700.00000000321,56.2800422354863,1.00000000082796,0.48772528321869
5800.00000000357,55.4870104088072,1.00000000075669,0.479486141532857
5900.00000000393,54.6917371974158,1.00000000133657,0.555469507146478
6000.0000000043,53.9421155082798,1.00000000136926,0.555786467118618
6100.00000000466,53.2031616402593,1.00000000084023,0.47906774391534
6200.00000000502,52.4394333210531,1.0000000007939,0.46235850686524
6300.00000000539,51.6700532466611,1.00000000116363,0.516265191115032
6400.00000000575,50.9320577462141,1.0000000014555,0.557149628460144
6500.00000000612,50.2248343950514,1.00000000109951,0.515262123582326
6600.00000000648,49.5225793218681,1.00000000082047,0.464256830433247
6700.00000000684,48.8182602955335,1.00000000086453,0.472407973702899
6800.00000000721,48.1208682463333,1.00000000110682,0.505440190000221
6900.00000000757,47.4447005705665,1.0000000012861,0.537743432997109
7000.00000000793,46.7918488451118,1.00000000120946,0.52707605241963
7100.0000000083,46.1543846211655,1.00000000088962,0.480371859892792
7200.00000000866,45.5294076332075,1.00000000079671,0.471226887747143
7300.00000000903,44.9176761584789,1.00000000098746,0.497236465060168
7400.00000000939,44.3200883897748,1.00000000103932,0.501440528474808
7500.00000000975,43.7383920469797,1.00000000121037,0.519540654258172
7600.00000001012,43.1709592733908,1.00000000129498,0.530792173200446
7700.00000001048,42.6184409948069,1.00000000102583,0.504946423001618
7800.00000001084,42.0854868817277,1.00000000082183,0.470413682093378
7900.00000001121,41.573130623026,1.00000000096481,0.491952872769972
8000.00000001157,41.0749468110273,1.00000000116443,0.51470118154326
8100.00000001194,40.5918231315162,1.00000000087842,0.498013710631812
8200.0000000123,40.1263345442353,1.00000000096607,0.494842563528712
8300.00000001266,39.6717577355923,1.00000000125379,0.523912448496406
8400.00000001303,39.2224335850636,1.00000000125207,0.524792694464325
8500.00000001339,38.786519524013,1.00000000090053,0.497724577793787
8600.00000001376,38.3749959142362,1.0000000008317,0.476941982623002
8700.00000001412,37.9839185560976,1.00000000104701,0.494381248522807
8800.00000001448,37.6010555123411,1.00000000121389,0.509137717458301
8900.00000001485,37.225476135693,1.00000000105886,0.517300140368992
9000.00000001521,36.868064334635,1.00000000091903,0.49007715775402
9100.00000001557,36.5268892560856,1.00000000095674,0.496058024092367
9200.00000001594,36.1908044671303,1.00000000120792,0.527231167575638
9300.0000000163,35.8546001946818,1.00000000134181,0.531086139276509
9400.00000001667,35.5238705741555,1.00000000103655,0.511588868606846
9500.00000001703,35.2127245526915,1.00000000092359,0.494323695560558
9600.00000001739,34.9235356965455,1.00000000096589,0.494306889999605
9700.00000001776,34.6493574219587,1.00000000106923,0.504805749386511
9800.00000001812,34.381699928005,1.00000000110926,0.511728763871562
9900.00000001848,34.1165460477628,1.00000000111987,0.509654908829795
10000.0000000188,33.8584828412224,1.0000000009722,0.52236483994419
10100.0000000192,33.6129302918598,1.00000000098402,0.515210917843686
10200.0000000196,33.3762344136291,1.00000000103468,0.513509468304367
10300.0000000199,33.1436598077439,1.00000000107175,0.526326484616428
10400.0000000203,32.9135485407418,1.00000000116719,0.535792982345355
10500.0000000207,32.6850906998403,1.00000000115436,0.532816133953189
10600.000000021,32.4636859217892,1.00000000096799,0.517712845521937
10700.0000000214,32.2612141830051,1.00000000091438,0.503791282479487
10800.0000000218,32.0775410287303,1.00000000100902,0.508000632982474
10900.0000000221,31.901261039321,1.00000000112403,0.52115068813746
11000.0000000225,31.7322509234103,1.00000000097254,0.512086952478928
11100.0000000229,31.574021081047,1.00000000099185,0.512036930495752
11200.0000000232,31.4235975956464,1.00000000104744,0.512972866436761
11300.0000000236,31.2739010407403,1.0000000011506,0.530159674782037
11400.0000000239,31.1170866194301,1.00000000114539,0.54846757612107
11500.0000000243,30.9583638135705,1.00000000108711,0.550299915280911
11600.0000000247,30.801620362879,1.00000000098279,0.536545954160363
11700.000000025,30.651896405352,1.00000000100981,0.533851578504496
11800.0000000254,30.506912029287,1.00000000106189,0.535802804339925
11900.0000000258,30.3635835552623,1.00000000114425,0.540792131180853
12000.0000000261,30.2213141215966,1.00000000113947,0.538915889814872
12100.0000000265,30.0841185821754,1.00000000098419,0.529506859398831
12200.0000000269,29.9604434542404,1.00000000095509,0.526441844147283
12300.0000000272,29.8541586538568,1.00000000094603,0.520601831252828
12400.0000000276,29.7607211789405,1.00000000105302,0.520117410220401
12500.0000000279,29.6680600003912,1.00000000112318,0.528532588501696
12600.0000000283,29.5727643871362,1.00000000109204,0.534174128427927
12700.0000000287,29.485585210901,1.00000000095138,0.518116519152119
12800.000000029,29.4107439267605,1.00000000099132,0.523758865088989
12900.0000000294,29.3424963169822,1.00000000107452,0.542460672867404
13000.0000000298,29.2731476010029,1.00000000109568,0.543387794784277
13100.0000000301,29.1983077651139,1.00000000115782,0.548450434261975
13200.0000000305,29.1142312843333,1.0000000012088,0.558966888225265
13300.0000000309,29.0230366188034,1.00000000110305,0.563650942029356
13400.0000000312,28.9259312005824,1.00000000108308,0.570597080177303
13500.0000000316,28.8259253442815,1.00000000106892,0.571248617312737
13600.0000000319,28.7263122306404,1.00000000101603,0.565948506566883
13700.0000000323,28.6312183733796,1.00000000101507,0.559271202049472
13800.0000000327,28.5420630167316,1.0000000010738,0.5520573527248
13900.000000033,28.4580614751412,1.00000000114496,0.548641663011442
14000.0000000334,28.3760700290751,1.00000000111776,0.551061455263991
14100.0000000338,28.2978105768998,1.00000000103757,0.54661875299983
14200.0000000341,28.2312849358165,1.00000000097613,0.546158038397399
14300.0000000345,28.1800555722526,1.00000000097873,0.542393850099231
14400.0000000349,28.1388502267572,1.00000000108716,0.538301034460344
14500.0000000352,28.1000314181097,1.00000000107113,0.545153427081376
14600.0000000356,28.0662832544612,1.00000000110831,0.538634886453907
14700.0000000359,28.0372630082649,1.00000000102175,0.533535644810653
14800.0000000363,28.0108540620913,1.00000000103193,0.535235851549201
14900.0000000367,27.988516889976,1.0000000009978,0.542739785905315
15000.000000037,27.9681729178753,1.00000000103261,0.553929121592113
15100.0000000374,27.9467710556416,1.0000000010966,0.565065004214597
15200.0000000378,27.9218819399836,1.00000000112718,0.573828347979903
15300.0000000381,27.8922501561042,1.00000000108266,0.579029537924214
15400.0000000385,27.86177207089,1.00000000101968,0.580765598045528
15500.0000000389,27.8325813738348,1.00000000098046,0.576822230009942
15600.0000000392,27.8033463368237,1.00000000107678,0.576294872345857
15700.0000000396,27.7696321914622,1.00000000108521,0.578222019173208
15800.0000000399,27.7286147076354,1.00000000115174,0.578872296606691
15900.0000000403,27.6775531616408,1.00000000116029,0.580722815662488
16000.0000000407,27.6159837754119,1.00000000119451,0.585628921126535
16100.000000041,27.5446195277558,1.0000000010749,0.58882783807996
16200.0000000414,27.4707570120646,1.00000000105674,0.59675759700792
16300.0000000418,27.3988866388204,1.00000000099744,0.590239662795416
16400.0000000418,27.3325664711801,1.00000000099564,0.581131961174496
16500.0000000404,27.2716992705797,1.00000000105311,0.574059992539638
16600.0000000389,27.2162185785404,1.00000000108316,0.568068927764866
16700.0000000375,27.1649814153811,1.00000000118521,0.569221071573951
16800.000000036,27.1173980763935,1.00000000113078,0.569721022818767
16900.0000000346,27.0748749844218,1.00000000106926,0.567800711626452
17000.0000000331,27.040148492877,1.00000000101066,0.564116287226563
17100.0000000317,27.0156702893068,1.00000000103125,0.56566677489862
17200.0000000302,27.0029428431779,1.0000000010224,0.565776061319232
17300.0000000287,26.9981292349365,1.00000000107775,0.562622298282017
17400.0000000273,26.9974221864602,1.00000000110842,0.557996662917608
17500.0000000258,26.9989195906502,1.00000000108624,0.555580305043744
17600.0000000244,27.0029455765459,1.00000000110591,0.555094212467284
17700.0000000229,27.0119738958774,1.0000000010085,0.560690398237372
17800.0000000215,27.0254641859428,1.00000000103838,0.563600903673171
17900.00000002,27.0395078280312,1.00000000101877,0.564353059835409
18000.0000000186,27.0526117685958,1.00000000111004,0.566368275110025
18100.0000000171,27.0632135052165,1.0000000011633,0.563106382862487
18200.0000000156,27.0699717925901,1.00000000119338,0.563567161557424
18300.0000000142,27.07301612055,1.00000000110261,0.569092274813085
18400.0000000127,27.0724084442084,1.0000000011321,0.582232123205317
18500.0000000113,27.071364048042,1.00000000107089,0.586057872773914
18600.0000000098,27.0712129297234,1.0000000010999,0.586770768750935
18700.0000000084,27.0689183625063,1.00000000113254,0.590551227049076
18800.0000000069,27.0617739941707,1.00000000117739,0.585994852910904
18900.0000000055,27.0498236772267,1.00000000111421,0.594070127405904
19000.000000004,27.0348313638566,1.0000000010913,0.595636425524195
19100.0000000026,27.0194147869438,1.00000000109534,0.605815744014806
19200.0000000011,27.0040101944043,1.00000000105539,0.605470110608258
19299.9999999996,26.9856790822124,1.00000000109657,0.611600513222981
19399.9999999982,26.962489403373,1.00000000118076,0.611492825148501
19499.9999999967,26.9358083845681,1.00000000107252,0.608670743563844
19599.9999999953,26.9064682716199,1.00000000111013,0.60206955643705
19699.9999999938,26.873103485097,1.0000000011642,0.595083308912657
19799.9999999924,26.8333574982545,1.00000000121232,0.596152407342251
19899.9999999909,26.7848434758152,1.00000000125804,0.601492959102687
19999.9999999895,26.7284285370047,1.00000000123476,0.600624968056686
20099.999999988,26.6662126141209,1.00000000111304,0.599037615762137
20199.9999999865,26.6026533520664,1.00000000112555,0.599860501309892
20299.9999999851,26.5397762501081,1.00000000105777,0.596793975671257
20399.9999999836,26.4799501708777,1.00000000106682,0.595538663224268
20499.9999999822,26.4247885957417,1.00000000105513,0.595914251898284
20599.9999999807,26.3732545619242,1.0000000010859,0.58985623009387
20699.9999999793,26.3269807434498,1.00000000113638,0.585550220750952
20799.9999999778,26.2854080091998,1.00000000113816,0.5852025841204
20899.9999999764,26.2481883579817,1.00000000111718,0.582761540408459
20999.9999999749,26.215443640126,1.00000000116778,0.575887018394765
21099.9999999734,26.1880043015606,1.0000000011476,0.564316057817165
21199.999999972,26.1667073895928,1.00000000113468,0.56559712851384
21299.9999999705,26.1532876407969,1.00000000105514,0.567071381902314
21399.9999999691,26.1493135217687,1.00000000109011,0.571456579157847
21499.9999999676,26.1546263025046,1.00000000106552,0.574210020248597
21599.9999999662,26.166465072478,1.0000000011411,0.572170363294685
21699.9999999647,26.1817197901409,1.00000000113644,0.567547189967485
21799.9999999633,26.2002922889547,1.00000000107309,0.570706423527285
21899.9999999618,26.2241372506665,1.00000000112112,0.568397308586461
21999.9999999603,26.2507983462764,1.00000000108453,0.559835224987901
22099.9999999589,26.2800578118789,1.00000000113454,0.560310948681736
22199.9999999574,26.3119974281482,1.00000000106958,0.567333999320821
22299.999999956,26.347412131779,1.00000000108761,0.570199255086328
22399.9999999545,26.3817983982672,1.00000000117691,0.571771271419028
22499.9999999531,26.4136307025548,1.00000000115308,0.578181779341417
22599.9999999516,26.4429929726062,1.00000000114755,0.581489039864244
22699.9999999502,26.4694490739711,1.00000000118272,0.578985544976281
22799.9999999487,26.4916727936492,1.00000000117864,0.583739580803937
22899.9999999473,26.5105094202755,1.00000000116744,0.594556331786886
22999.9999999458,26.5270326064253,1.00000000113611,0.603249162842938
23099.9999999443,26.5426479801855,1.0000000011484,0.606741183427982
23199.9999999429,26.5568863633175,1.00000000109926,0.612777797062562
23299.9999999414,26.5689623622588,1.00000000119368,0.615471871364036
23399.99999994,26.5772823985667,1.00000000121784,0.620446270413022
23499.9999999385,26.5821189971214,1.00000000124554,0.616099707250574
23599.9999999371,26.5834094872691,1.00000000115823,0.6182637172506
23699.9999999356,26.5839340197408,1.00000000114108,0.620240054561241
23799.9999999342,26.5855302133485,1.00000000115085,0.615775086328895
23899.9999999327,26.5881804901927,1.00000000110617,0.607498360872437
23999.9999999312,26.5923792601186,1.00000000110959,0.605748182411184
24099.9999999298,26.5952776153562,1.00000000119579,0.609707169276395
24199.9999999283,26.5934608562169,1.00000000127331,0.62248847688564
24299.9999999269,26.5878519406382,1.00000000117545,0.627876497322271
24399.9999999254,26.5791144919436,1.00000000117697,0.629786525622968
24499.999999924,26.5705379615856,1.00000000114727,0.627979090582821
24599.9999999225,26.5605381305085,1.00000000116108,0.632449634638364
24699.9999999211,26.549418308078,1.00000000117783,0.635111066983107
24799.9999999196,26.5397994029798,1.0000000011651,0.628632105031246
24899.9999999181,26.5306570598021,1.00000000114503,0.623197794438786
24999.9999999167,26.5189415523696,1.00000000116903,0.624339829090223
25099.9999999152,26.5032962175662,1.00000000123004,0.62674658370461
25199.9999999138,26.4849299887865,1.00000000122073,0.633499554501494
25299.9999999123,26.4622459070803,1.00000000124424,0.631372236584005
25399.9999999109,26.4364121842525,1.00000000119027,0.631852027413167
25499.9999999094,26.4089681772788,1.00000000122293,0.639710098464005
25599.999999908,26.3789175697843,1.00000000117719,0.636102268794114
25699.9999999065,26.349253663725,1.00000000109896,0.636332940582633
25799.9999999051,26.3191762330034,1.00000000120486,0.638260505968122
25899.9999999036,26.2864118391577,1.00000000118873,0.632223641181286
25999.9999999021,26.2520270647818,1.00000000120508,0.630155823930961
26099.9999999007,26.2159148307843,1.00000000118354,0.632377348192734
26199.9999998992,26.177695908111,1.0000000011622,0.633069333088642
26299.9999998978,26.1377842337579,1.00000000123924,0.637737588616158
26399.9999998963,26.0954894497204,1.00000000124251,0.637806165376807
26499.9999998949,26.050003140483,1.00000000122414,0.635444421337476
26599.9999998934,25.9998672857826,1.0000000012813,0.639315055869678
26699.999999892,25.9458624392954,1.00000000125172,0.644907671629757
26799.9999998905,25.8890387782561,1.00000000123598,0.645999336930315
26899.999999889,25.8310960729363,1.00000000115285,0.645732444587199
26999.9999998876,25.7723723049135,1.0000000011881,0.649508664825665
27099.9999998861,25.7143581893294,1.0000000011376,0.646966188880393
27199.9999998847,25.6578853947302,1.00000000116556,0.641759413571494
27299.9999998832,25.6038814642484,1.00000000110972,0.630461824583896
27399.9999998818,25.5528973931166,1.000000001145,0.626893512394866
27499.9999998803,25.5054805736094,1.00000000119884,0.631700245715697
27599.9999998789,25.4624200192229,1.000000001168,0.631813479963344
27699.9999998774,25.4240647728664,1.00000000124166,0.634983421464213
27799.9999998759,25.3893728667164,1.00000000122957,0.633304170005078
27899.9999998745,25.358757241573,1.00000000117519,0.625792440381666
27999.999999873,25.3314576925174,1.00000000115053,0.620609468539948
28099.9999998716,25.3083713434771,1.00000000112213,0.6063325758123
28199.9999998701,25.2909207803201,1.00000000119545,0.59877385112338
28299.9999998687,25.2784945860216,1.00000000115659,0.596934949584937
28399.9999998672,25.2724570144079,1.00000000112224,0.596939759244016
28499.9999998658,25.2739051443523,1.00000000114116,0.591275947126599
28599.9999998643,25.2821341086277,1.00000000118233,0.592452175998362
28699.9999998629,25.2964631287895,1.00000000120931,0.592613435483539
28799.9999998614,25.3175867589364,1.00000000110338,0.584899588594215
28899.9999998599,25.3419767811077,1.00000000125668,0.582124319576252
28999.9999998585,25.3683040752894,1.0000000011494,0.579455775463579
