Time,AGPnorm,Energy,Entropy
0,0,1,-7.51889963681141e-17
99.9999999999986,0.00067681479740341,1.00000000000112,0.00236786688568599
199.999999999993,0.00439953104299479,1.00000000000013,0.0070409077279727
300,0.00908803935329773,0.999999999998859,0.0130474081092502
400.000000000022,0.0141819949140217,0.999999999999417,0.0204409184485415
500.000000000045,0.0197825834686949,1.00000000000062,0.0295411887266571
600.000000000068,0.0276712682442661,1.00000000000066,0.0400364239758299
700.000000000091,0.0358884298316082,0.999999999999276,0.0514693962138434
800.000000000113,0.0452871496744026,0.999999999999325,0.0638698875114762
900.000000000136,0.0542039148119903,1.00000000000001,0.077737147146123
1000.00000000016,0.065074078504654,1.00000000000074,0.0931399611304668
1100.0000000001,0.07559470608717,0.999999999999797,0.110167829630819
1200,0.0865483590411604,0.999999999999695,0.128745021038016
1299.99999999991,0.0974335188426006,1.00000000000044,0.149913710318546
1399.99999999982,0.108205151205207,1.00000000000338,0.17426956023556
1499.99999999973,0.119133011276511,1.0000000000125,0.2028728704139
1599.99999999964,0.132401000015111,1.00000000003863,0.23511098068208
1699.99999999955,0.151849240224773,1.00000000008914,0.270346760292371
1799.99999999946,0.175355998828675,1.00000000017318,0.306015904754151
1899.99999999937,0.226576206753504,1.00000000027062,0.340310206966291
1999.99999999928,0.359595102474377,1.00000000036723,0.371598709437986
2099.99999999919,0.622054724963255,1.00000000049698,0.399306380578609
2199.99999999909,1.04602797219078,1.00000000055923,0.424148665323566
2299.999999999,1.69850127840798,1.00000000066143,0.446184674442179
2399.99999999891,2.67526145246718,1.00000000073483,0.46531429424228
2499.99999999882,4.0348427416756,1.00000000080572,0.481754395064308
2599.99999999873,5.7905040311519,1.0000000008581,0.496166442382819
2699.99999999864,7.96433752862327,1.00000000086709,0.508754526520335
2799.99999999855,10.5918708169776,1.00000000092447,0.519231541697803
2899.99999999846,13.6789608868328,1.0000000009709,0.527896527666814
2999.99999999837,17.1870925355486,1.00000000093834,0.535392468671675
3099.99999999828,21.0821026993873,1.00000000093812,0.541718435403564
3199.99999999819,25.3331485595573,1.00000000099464,0.546815998896527
3299.99999999809,29.8993172755101,1.0000000009757,0.55083144634073
3399.999999998,34.7200552896737,1.00000000098227,0.553803413350225
3499.99999999791,39.7407964286668,1.0000000009161,0.556106661138359
3599.99999999782,44.9093113142124,1.00000000088232,0.55855999718887
3699.99999999773,50.1686976659326,1.00000000093517,0.559010634264617
3799.99999999764,55.465286972138,1.00000000088642,0.559428485427235
3899.99999999755,60.7461538547402,1.00000000091305,0.559768073226167
3999.99999999746,65.9690280344136,1.00000000089345,0.55985726973498
4099.99999999738,71.091184109721,1.00000000082501,0.558010361757003
4199.99999999775,76.0711747492731,1.00000000085645,0.558129910895357
4299.99999999811,80.873320171889,1.0000000008183,0.556583394209074
4399.99999999848,85.4780569039595,1.00000000074309,0.555139890661724
4499.99999999884,89.8618329277895,1.00000000075628,0.554116438595811
4599.9999999992,93.9988767670695,1.00000000072527,0.551834460422476
4699.99999999957,97.8730940011035,1.0000000007448,0.551296646290345
4799.99999999993,101.474255190273,1.0000000007109,0.549102019275559
4900.00000000029,104.80152676952,1.00000000067175,0.547378381531344
5000.00000000066,107.843243436061,1.00000000066251,0.5462935947606
5100.00000000102,110.599250834298,1.00000000065382,0.544503521188433
5200.00000000139,113.068125307447,1.00000000060492,0.541254328619923
5300.00000000175,115.25953163136,1.00000000059177,0.542791000402824
5400.00000000211,117.182816633478,1.00000000062193,0.542178849538605
5500.00000000248,118.836709521434,1.00000000058446,0.533951284439196
5600.00000000284,120.219789658608,1.00000000055663,0.536160442915893
5700.00000000321,121.359328777284,1.00000000057173,0.545424382349384
5800.00000000357,122.274566123841,1.00000000057122,0.535789243885245
5900.00000000393,122.944102244954,1.00000000051932,0.520847133423973
6000.0000000043,123.380381309971,1.00000000054243,0.53700661906088
6100.00000000466,123.648093621398,1.00000000059097,0.552161753091175
6200.00000000502,123.761365787583,1.00000000053287,0.529484691556647
6300.00000000539,123.666904553732,1.00000000040343,0.503491878165741
6400.00000000575,123.378366927096,1.0000000004677,0.530099962366405
6500.00000000612,122.995415129796,1.00000000062207,0.561048270658805
6600.00000000648,122.555911887222,1.00000000056026,0.541611799319237
6700.00000000684,121.986257114475,1.00000000037271,0.490248193146093
6800.00000000721,121.241728993756,1.00000000038073,0.490064998361891
6900.00000000757,120.406828314387,1.0000000006175,0.54773023658864
7000.00000000793,119.582936692441,1.00000000072836,0.569336795726427
7100.0000000083,118.763290960702,1.00000000059747,0.532509652758083
7200.00000000866,117.854984377902,1.00000000033839,0.462593938653463
7300.00000000903,116.815038744562,1.00000000032481,0.459470035009826
7400.00000000939,115.717880012924,1.00000000060952,0.532457274593141
7500.00000000975,114.656753572864,1.00000000079551,0.571471934913852
7600.00000001012,113.654256812954,1.00000000074594,0.555201031021641
7700.00000001048,112.650616620156,1.00000000046321,0.485511912720864
7800.00000001084,111.56917762822,1.00000000026598,0.415452963822481
7900.00000001121,110.408263699141,1.00000000036282,0.443280857231359
8000.00000001157,109.23322663694,1.00000000063948,0.526065917732551
8100.00000001194,108.106219601945,1.00000000081904,0.561893068285916
8200.0000000123,107.045353187328,1.00000000078823,0.557038841781165
8300.00000001266,106.017185905329,1.00000000061841,0.508831266277387
8400.00000001303,104.966363219956,1.00000000037435,0.421883106461763
8500.00000001339,103.866727777968,1.00000000026996,0.388116662266592
8600.00000001376,102.739932162703,1.00000000042258,0.439348194399873
8700.00000001412,101.624356312789,1.00000000066719,0.513710571007394
8800.00000001448,100.547276052152,1.00000000080665,0.548241223421771
8900.00000001485,99.5196370567346,1.00000000077786,0.549695607203559
9000.00000001521,98.5303637050124,1.00000000065137,0.521697313267607
9100.00000001557,97.5521349916721,1.00000000047861,0.46616154569086
9200.00000001594,96.5641825956014,1.00000000034834,0.405471611648239
9300.0000000163,95.5667324705711,1.00000000029713,0.391315722400894
9400.00000001667,94.5709538384988,1.00000000042621,0.429449137909034
9500.00000001703,93.588490325344,1.00000000060239,0.487270081174575
9600.00000001739,92.6269265147474,1.00000000067826,0.523564264218227
9700.00000001776,91.6912908384291,1.00000000073225,0.533706404675072
9800.00000001812,90.7831593794185,1.00000000070137,0.537333455158954
9900.00000001848,89.8970661860012,1.00000000057664,0.515198393276665
10000.0000000188,89.0235815927321,1.00000000045753,0.468146424548132
10100.0000000192,88.159389746685,1.0000000003664,0.428318336431425
10200.0000000196,87.3097057124141,1.00000000037585,0.410191833168456
10300.0000000199,86.4796105495061,1.00000000041893,0.425957134124166
10400.0000000203,85.6680642504577,1.00000000048382,0.456265068201022
10500.0000000207,84.8729675958245,1.00000000054802,0.486211832965807
10600.000000021,84.0914913185516,1.0000000005745,0.507426495607573
10700.0000000214,83.32188212397,1.00000000064112,0.512845988721377
10800.0000000218,82.5623237652945,1.00000000070054,0.524810386599624
10900.0000000221,81.8133844975906,1.00000000071618,0.53664369981428
11000.0000000225,81.0771754522728,1.00000000062395,0.521595454399772
11100.0000000229,80.3571361404722,1.00000000047237,0.478383108302159
11200.0000000232,79.6596760685568,1.00000000035806,0.43562051823208
11300.0000000236,78.9895147440489,1.00000000040918,0.423269892267425
11400.0000000239,78.3456951883528,1.00000000049371,0.430744256659922
11500.0000000243,77.7231447505909,1.00000000054349,0.45531971000177
11600.0000000247,77.1162540932132,1.00000000054554,0.478083223809848
11700.000000025,76.5216003611807,1.0000000005625,0.487619131570076
11800.0000000254,75.9396681553244,1.00000000052696,0.492048580460702
11900.0000000258,75.3717442208889,1.00000000047981,0.493983029603393
12000.0000000261,74.8143060380129,1.00000000053853,0.498444762520834
12100.0000000265,74.2570121382318,1.00000000068458,0.515017544447567
12200.0000000269,73.6936753017613,1.00000000074397,0.53396986191181
12300.0000000272,73.1279712889306,1.00000000072089,0.538903628941464
12400.0000000276,72.568794740204,1.00000000059193,0.518815974603749
12500.0000000279,72.0274677946775,1.00000000043813,0.477865820444577
12600.0000000283,71.5164224060719,1.00000000034115,0.442652480702809
12700.0000000287,71.041645887735,1.00000000036897,0.426632928783884
12800.000000029,70.5980119968443,1.00000000046447,0.43267324987558
12900.0000000294,70.1739366396188,1.00000000055198,0.450712130256736
13000.0000000298,69.7594569903468,1.00000000060375,0.469974846400419
13100.0000000301,69.3500066236638,1.00000000060119,0.488806729737322
13200.0000000305,68.9447648386913,1.00000000056388,0.49736994484624
13300.0000000309,68.5464599658903,1.00000000053123,0.499933649673782
13400.0000000312,68.1579925118193,1.00000000048894,0.502080652341608
13500.0000000316,67.7812295875815,1.00000000049423,0.506602871451424
13600.0000000319,67.412366355864,1.0000000005,0.508771173180691
13700.0000000323,67.0448164671468,1.00000000059298,0.510617122244293
13800.0000000327,66.6704987772278,1.00000000067673,0.515821289963419
13900.000000033,66.2845516500339,1.00000000072306,0.526337805876163
14000.0000000334,65.8884648858106,1.00000000069524,0.538267719531
14100.0000000338,65.489840276697,1.00000000058767,0.536330009994339
14200.0000000341,65.0999533369176,1.0000000005165,0.516699411779997
14300.0000000345,64.7313958104945,1.00000000045473,0.486461364208432
14400.0000000349,64.3934888081792,1.0000000004006,0.45873376456484
14500.0000000352,64.0902366738921,1.00000000040686,0.449977034645108
14600.0000000356,63.8184765115323,1.00000000043353,0.451338376869912
14700.0000000359,63.5707019475492,1.00000000049867,0.451585288890017
14800.0000000363,63.3357824267786,1.00000000055962,0.467460205751618
14900.0000000367,63.1060631035993,1.00000000057978,0.487127314618032
15000.000000037,62.8807147201242,1.00000000052487,0.489444611575133
15100.0000000374,62.6643525846243,1.00000000049838,0.489694265131485
15200.0000000378,62.4574531290985,1.00000000051873,0.495845199817512
15300.0000000381,62.2521551467585,1.00000000058069,0.510812965045225
15400.0000000385,62.0405936573804,1.00000000063972,0.527929638947405
15500.0000000389,61.8180614041564,1.00000000061476,0.536640567719268
15600.0000000392,61.5875845256716,1.00000000054988,0.541706769739996
15700.0000000396,61.3545374953023,1.00000000051247,0.542674728938547
15800.0000000399,61.1238904417278,1.00000000049049,0.532247239485735
15900.0000000403,60.8980764365392,1.00000000049805,0.521486341695369
16000.0000000407,60.6761099742695,1.00000000054875,0.510189303809154
16100.000000041,60.4518672684254,1.00000000062933,0.511857291816122
16200.0000000414,60.2190964120646,1.00000000068343,0.52735560982816
16300.0000000418,59.9730028824441,1.0000000007024,0.542857421409454
16400.0000000418,59.7160092479871,1.00000000065837,0.55110217343558
16500.0000000404,59.45761577191,1.00000000057704,0.544822967343858
16600.0000000389,59.2103809999378,1.00000000050397,0.522775985743653
16700.0000000375,58.9864584641737,1.00000000041862,0.496859617993375
16800.000000036,58.7947953296946,1.00000000037185,0.475752471629987
16900.0000000346,58.637409893978,1.0000000004209,0.463670733396088
17000.0000000331,58.5084861251144,1.00000000045114,0.462154707203255
17100.0000000317,58.3985085712239,1.00000000052765,0.468437095483775
17200.0000000302,58.2994998182297,1.0000000005378,0.473958414329235
17300.0000000287,58.206360553503,1.0000000005529,0.476437738777153
17400.0000000273,58.1162156246645,1.00000000057034,0.484859052023023
17500.0000000258,58.0274635277957,1.00000000058399,0.495277474024392
17600.0000000244,57.939460192088,1.00000000057339,0.507031494639033
17700.0000000229,57.8558703499114,1.00000000054312,0.515640515051544
17800.0000000215,57.7831935280902,1.00000000048763,0.516497560254665
17900.00000002,57.7228633151963,1.0000000004911,0.517596800957153
18000.0000000186,57.6705106935139,1.00000000050817,0.525646334152636
18100.0000000171,57.6155226334739,1.00000000054367,0.532597244256621
18200.0000000156,57.5473401898785,1.00000000060999,0.539779299566602
18300.0000000142,57.4592508350392,1.00000000064233,0.543930889626757
18400.0000000127,57.3487181777828,1.00000000065008,0.545856673736408
18500.0000000113,57.2189721083829,1.00000000059945,0.544392977160154
18600.0000000098,57.0764491932392,1.00000000060267,0.55381527962617
18700.0000000084,56.9292160242427,1.00000000052061,0.559392216962411
18800.0000000069,56.7829945657646,1.00000000048073,0.552492393583661
18900.0000000055,56.6423041348585,1.00000000046136,0.544698582140005
19000.000000004,56.5084664207127,1.00000000048641,0.543842513766852
19100.0000000026,56.3783978420789,1.00000000050787,0.543982987548754
19200.0000000011,56.2489511277769,1.00000000054825,0.536478936605274
19299.9999999996,56.1165453592318,1.00000000060053,0.534020729791128
19399.9999999982,55.9791281952661,1.00000000061754,0.538734893724582
19499.9999999967,55.8331362952827,1.00000000067007,0.547049035572176
19599.9999999953,55.676241185494,1.0000000006709,0.556733603692197
19699.9999999938,55.5106332336777,1.00000000066393,0.562131447551462
19799.9999999924,55.3444488791226,1.00000000058865,0.558581211704313
19899.9999999909,55.1883002918432,1.0000000005132,0.543549578735369
19999.9999999895,55.0511663923257,1.00000000042079,0.524291623584734
20099.999999988,54.9391141224416,1.00000000040982,0.504369552793117
20199.9999999865,54.8551207592818,1.00000000043121,0.492108088424975
20299.9999999851,54.7986934742053,1.0000000004591,0.482633440318369
20399.9999999836,54.7654353373905,1.00000000048644,0.483816460962745
20499.9999999822,54.7500712604849,1.0000000005185,0.488764183619599
20599.9999999807,54.7473377981653,1.00000000051609,0.484781939510945
20699.9999999793,54.7505009261918,1.00000000057395,0.483122115197525
20799.9999999778,54.7546931074326,1.00000000057362,0.486020838891009
20899.9999999764,54.7590978488922,1.0000000005627,0.486544104229467
20999.9999999749,54.768442484378,1.00000000052458,0.482804404497093
21099.9999999734,54.7871726951395,1.00000000049094,0.481648073207217
21199.999999972,54.8151243758987,1.00000000049466,0.492876702979106
21299.9999999705,54.8466060582781,1.00000000052768,0.5126800068393
21399.9999999691,54.8742608107661,1.00000000056652,0.52758843853
21499.9999999676,54.8928582482865,1.00000000063495,0.534783752295763
21599.9999999662,54.8999585336137,1.00000000058487,0.542154106658963
21699.9999999647,54.8982914239665,1.00000000057216,0.546025361365535
21799.9999999633,54.8931579421324,1.00000000055539,0.546800134534597
21899.9999999618,54.888271522536,1.00000000053056,0.545312671419212
21999.9999999603,54.8841437916067,1.00000000054993,0.545871498190929
22099.9999999589,54.8793411050843,1.00000000052384,0.555149888311491
22199.9999999574,54.8723992858523,1.00000000054026,0.563684617438548
22299.999999956,54.8603207210766,1.00000000051807,0.565453406837449
22399.9999999545,54.8404080961876,1.00000000056455,0.565170285506723
22499.9999999531,54.8100330347658,1.0000000005823,0.561949046856419
22599.9999999516,54.7685906084035,1.00000000059104,0.55985253183351
22699.9999999502,54.7154107082398,1.00000000056168,0.55292685367584
22799.9999999487,54.6510076207926,1.00000000060481,0.540281151159596
22899.9999999473,54.5761575935168,1.00000000062154,0.532522416147469
22999.9999999458,54.4923786351259,1.00000000063206,0.540890868243349
23099.9999999443,54.3998289615733,1.00000000059171,0.552134490410681
23199.9999999429,54.2991333163425,1.00000000059245,0.561021940351118
23299.9999999414,54.1934643882956,1.00000000056005,0.561771075389048
23399.99999994,54.0868895481997,1.00000000051921,0.557439510645181
23499.9999999385,53.9835012296092,1.0000000004745,0.553230896149213
23599.9999999371,53.8853304968284,1.00000000046975,0.555027270865575
23699.9999999356,53.7917274913386,1.00000000049439,0.557942101206272
23799.9999999342,53.7003876741448,1.00000000050359,0.555191164220514
23899.9999999327,53.6095625922939,1.00000000050816,0.550865110938198
23999.9999999312,53.5185773081311,1.00000000051549,0.552669808963337
24099.9999999298,53.4265104181694,1.00000000057708,0.55228258706627
24199.9999999283,53.3319898938139,1.00000000060551,0.550590404863479
24299.9999999269,53.2328974126498,1.00000000063357,0.547078262595406
24399.9999999254,53.1280673388208,1.00000000066375,0.546651738147361
24499.999999924,53.0170116727287,1.00000000070446,0.550662290354798
24599.9999999225,52.8999002850601,1.00000000064406,0.551517907791542
24699.9999999211,52.7801361897022,1.0000000005546,0.553386787765538
24799.9999999196,52.6639837778806,1.00000000052731,0.552907220623653
24899.9999999181,52.5580889558464,1.00000000051327,0.546454976369502
24999.9999999167,52.4679574763581,1.00000000047213,0.532780314751638
25099.9999999152,52.3977976066811,1.00000000041961,0.520694092324372
25199.9999999138,52.3503927869886,1.00000000043335,0.515017411552078
25299.9999999123,52.3272384033334,1.00000000042223,0.506599550470272
25399.9999999109,52.3254690869669,1.00000000046684,0.498627900136882
25499.9999999094,52.340878109832,1.00000000050988,0.497147923683979
25599.999999908,52.3702540536301,1.00000000051364,0.494044571304914
25699.9999999065,52.4124863362612,1.0000000005098,0.493324888804338
25799.9999999051,52.4631337059329,1.00000000054327,0.495328510989586
25899.9999999036,52.5168852444425,1.00000000054041,0.498440024847191
25999.9999999021,52.573202873724,1.00000000056629,0.502259780861714
26099.9999999007,52.6336847608656,1.00000000052526,0.498584971392691
26199.9999998992,52.6998080104613,1.00000000051268,0.493040870697899
26299.9999998978,52.7717421255674,1.00000000052581,0.495000932023223
26399.9999998963,52.8475710728573,1.00000000054671,0.50298517168418
26499.9999998949,52.9247662514681,1.00000000052601,0.510864528097211
26599.9999998934,53.0022318732975,1.00000000056693,0.522123281843452
26699.999999892,53.0795712915456,1.00000000054128,0.530995071328854
26799.9999998905,53.1543240342447,1.00000000054803,0.539528239392015
26899.999999889,53.2239479664548,1.00000000056554,0.545898196167038
26999.9999998876,53.2878170255513,1.00000000060079,0.557107340178482
27099.9999998861,53.3460954575048,1.00000000056099,0.564100122926162
27199.9999998847,53.3982192886901,1.00000000058261,0.568617519869641
27299.9999998832,53.4452607617441,1.00000000054555,0.573109557709365
27399.9999998818,53.4872713066797,1.00000000055023,0.5744266329343
27499.9999998803,53.5238366145921,1.00000000057935,0.572952388211232
27599.9999998789,53.5541907720296,1.00000000061198,0.572295334926633
27699.9999998774,53.5784485338465,1.00000000057106,0.572087009728465
27799.9999998759,53.5963457577313,1.00000000057708,0.574290522093183
27899.9999998745,53.6075344732733,1.00000000057071,0.576681123453786
27999.999999873,53.6126887128203,1.00000000057405,0.582810863495168
28099.9999998716,53.6140495442516,1.0000000005676,0.587452750475458
28199.9999998701,53.6142434550063,1.00000000051874,0.58318027808902
28299.9999998687,53.6145118995226,1.00000000054788,0.579255944590424
28399.9999998672,53.6134088044071,1.00000000053798,0.580639908871118
28499.9999998658,53.6093895584366,1.00000000056367,0.579469392681005
28599.9999998643,53.6019271045838,1.00000000055675,0.578796033842751
28699.9999998629,53.5896816762677,1.00000000056393,0.574789186350975
28799.9999998614,53.5714798244729,1.00000000058844,0.570685278826997
28899.9999998599,53.5457196755715,1.00000000059901,0.570090720623145
28999.9999998585,53.5132760874151,1.00000000057983,0.571382767599826
