Time,AGPnorm,Energy,Entropy
0,0,1,-2.13561766920997e-18
99.9999999999986,0.0138769710785219,1.00000000000098,0.0349851084791554
199.999999999993,0.0342427613596003,1.00000000000087,0.103466548310023
300,0.0627148008677463,1.00000000007335,0.22113033084146
400.000000000022,0.12217429513509,1.00000000167853,0.396376945384455
500.000000000045,0.495539065371652,1.0000000041537,0.519421743748218
600.000000000068,1.62837094295803,1.00000000498851,0.578719477992653
700.000000000091,3.47369317273364,1.00000000480312,0.599216027895344
800.000000000113,5.56447059801124,1.00000000468783,0.603048877807688
900.000000000136,7.57173665917674,1.00000000446335,0.594352266203445
1000.00000000016,9.14732961657609,1.0000000039909,0.585872048920919
1100.0000000001,10.2419869311847,1.00000000343145,0.570916933878847
1200,10.8225517705482,1.00000000295059,0.56987450751897
1299.99999999991,10.9779415797885,1.00000000275744,0.557266593628845
1399.99999999982,10.8513416551589,1.00000000240704,0.522687076164775
1499.99999999973,10.5793355278022,1.00000000229748,0.506755395468438
1599.99999999964,10.2084683239657,1.00000000378785,0.574311976460108
1699.99999999955,9.7808392441806,1.00000000257323,0.480439384167996
1799.99999999946,9.37152143674763,1.00000000328832,0.516125638942834
1899.99999999937,8.95054039710694,1.00000000276382,0.477954329410634
1999.99999999928,8.54894174438343,1.00000000389476,0.545827413785591
2099.99999999919,8.18662901922883,1.00000000253044,0.457118965421706
2199.99999999909,7.82783111056631,1.00000000316665,0.528174604768076
2299.999999999,7.49652169841529,1.00000000360408,0.537206372150056
2399.99999999891,7.22437802982574,1.00000000233694,0.455336247973219
2499.99999999882,6.95446412271784,1.00000000313335,0.533773579683582
2599.99999999873,6.70435075672776,1.0000000037894,0.552593925727035
2699.99999999864,6.46606485558428,1.00000000314305,0.525699081963357
2799.99999999855,6.29943319061964,1.00000000230336,0.467049581463701
2899.99999999846,6.13466101278147,1.00000000385229,0.538736465347921
2999.99999999837,5.97903924734262,1.00000000289935,0.537700252104356
3099.99999999828,5.82056854970879,1.00000000337968,0.568804526905199
3199.99999999819,5.66098671865747,1.0000000036146,0.558385650124638
3299.99999999809,5.54866620851529,1.00000000228877,0.483480130211189
3399.999999998,5.49753305731433,1.00000000319876,0.520554960777344
3499.99999999791,5.42947596840628,1.00000000346272,0.549395586449511
3599.99999999782,5.36279805361662,1.00000000316798,0.567611967391336
3699.99999999773,5.2939142077389,1.00000000339798,0.580934649361273
3799.99999999764,5.20149263349707,1.00000000323407,0.603332263514905
3899.99999999755,5.10938959020461,1.0000000034929,0.591247807725444
3999.99999999746,5.01525947100892,1.00000000358518,0.575852703975656
4099.99999999738,4.95205018398922,1.00000000258572,0.528143476248085
4199.99999999775,4.96955398482687,1.00000000272461,0.508740123051155
4299.99999999811,4.99252115851862,1.00000000384003,0.552118984636614
4399.99999999848,5.00061548364302,1.00000000311113,0.557109829992292
4499.99999999884,4.99976325624813,1.00000000348436,0.591791294677406
4599.9999999992,4.98634288260107,1.0000000034898,0.606434605449444
4699.99999999957,4.97774882785465,1.00000000372415,0.618905644291083
4799.99999999993,4.95145438986012,1.00000000366139,0.631011304747569
4900.00000000029,4.91548210281885,1.00000000353787,0.60689215186066
5000.00000000066,4.866993947355,1.0000000038665,0.633368095684369
5100.00000000102,4.81453241236298,1.00000000354737,0.643068767877607
5200.00000000139,4.75705919095443,1.00000000375438,0.635415340497245
5300.00000000175,4.69819515188557,1.00000000402307,0.616135299444233
5400.00000000211,4.64360204136195,1.00000000329423,0.57840890096739
5500.00000000248,4.64063167360036,1.0000000026159,0.538355021166211
5600.00000000284,4.7087686699611,1.00000000305298,0.537264627144966
5700.00000000321,4.79226812655252,1.00000000364579,0.564893292547423
5800.00000000357,4.86078347739124,1.00000000354993,0.584492646750696
5900.00000000393,4.92050566229092,1.00000000344284,0.594979608608853
6000.0000000043,4.96519561582482,1.00000000359391,0.605197917880446
6100.00000000466,5.00368467571687,1.00000000355223,0.632068650619926
6200.00000000502,5.02793474284709,1.00000000362719,0.636179964415818
6300.00000000539,5.04044772669635,1.0000000035918,0.64927462532785
6400.00000000575,5.04055348053356,1.00000000416763,0.651358029019483
6500.00000000612,5.04046565152613,1.00000000341848,0.63983359851143
6600.00000000648,5.05133485849606,1.00000000356979,0.64471908500568
6700.00000000684,5.05706136956715,1.00000000380518,0.649262787032395
6800.00000000721,5.04905367485242,1.00000000390507,0.633127687025722
6900.00000000757,5.0441563121664,1.00000000377018,0.64471725062492
7000.00000000793,5.04171142870563,1.00000000353556,0.652909558256384
7100.0000000083,5.0281160523071,1.00000000358082,0.668180391552752
7200.00000000866,5.01041281829473,1.00000000374096,0.649784708866732
7300.00000000903,4.99254873592956,1.00000000363885,0.646779749300307
7400.00000000939,4.96887558384466,1.00000000411156,0.659805640702152
7500.00000000975,4.93419653009815,1.00000000407465,0.671380249814114
7600.00000001012,4.89217419018923,1.00000000374188,0.667984085952346
7700.00000001048,4.85027907497658,1.00000000395908,0.679062136742939
7800.00000001084,4.81003669151032,1.00000000420235,0.664344368542146
7900.00000001121,4.77203066564376,1.00000000413972,0.66850518130595
8000.00000001157,4.73462455220453,1.00000000444833,0.639256540645835
8100.00000001194,4.69910385450348,1.00000000401165,0.596284872156736
8200.0000000123,4.69153514536239,1.00000000323575,0.566548011810528
8300.00000001266,4.74403834614725,1.00000000322099,0.548772720484305
8400.00000001303,4.85659239827752,1.00000000355723,0.555454826200694
8500.00000001339,4.99756716144099,1.00000000427512,0.57275051199867
8600.00000001376,5.14113433455246,1.00000000456879,0.585002456547973
8700.00000001412,5.27347430182405,1.00000000394141,0.590733578782087
8800.00000001448,5.39780120747308,1.00000000449598,0.595156766732674
8900.00000001485,5.51582260568995,1.00000000444511,0.607961866775757
9000.00000001521,5.6180302778774,1.00000000439617,0.631283229638644
9100.00000001557,5.71485726504406,1.0000000041615,0.643022292866831
9200.00000001594,5.80558698863817,1.00000000446415,0.656105049443289
9300.0000000163,5.88937241136376,1.00000000429165,0.662673187400079
9400.00000001667,5.95692253266348,1.00000000484966,0.66253218923066
9500.00000001703,6.00955418216053,1.00000000502381,0.665332259736461
9600.00000001739,6.04927619714464,1.00000000463406,0.690346048066123
9700.00000001776,6.09647730035452,1.0000000040558,0.684162795651481
9800.00000001812,6.14407886852288,1.00000000436755,0.681083465314507
9900.00000001848,6.18291404249239,1.00000000460507,0.700192982413935
10000.0000000188,6.21463061084645,1.00000000439074,0.6969687983896
10100.0000000192,6.24804238182226,1.0000000045857,0.693158455633283
10200.0000000196,6.27486591002376,1.00000000468402,0.684963593104871
10300.0000000199,6.29749599470512,1.00000000449504,0.692897731059056
10400.0000000203,6.30819215132136,1.00000000432473,0.687329966002633
10500.0000000207,6.31876724003982,1.00000000436694,0.700151510030601
10600.000000021,6.32841050700211,1.00000000461371,0.693854378070486
10700.0000000214,6.33544429464929,1.00000000472214,0.69285803064533
10800.0000000218,6.35497864691232,1.00000000438002,0.677189576531348
10900.0000000221,6.38724930355542,1.0000000042336,0.672730784228879
11000.0000000225,6.43329031466646,1.00000000473042,0.673833174752228
11100.0000000229,6.4851849311281,1.0000000046885,0.676043148804751
11200.0000000232,6.52784442360371,1.00000000500494,0.691469014133588
11300.0000000236,6.56945762061514,1.00000000479798,0.672168775192984
11400.0000000239,6.60456113697434,1.00000000513551,0.673472548446617
11500.0000000243,6.64211291706623,1.00000000439558,0.676624821375923
11600.0000000247,6.68926406020072,1.00000000483905,0.688322958487393
11700.000000025,6.7277931304372,1.00000000522125,0.677445350789989
11800.0000000254,6.7657890892323,1.000000004443,0.696158987363224
11900.0000000258,6.7985485848672,1.00000000542473,0.685871444825827
12000.0000000261,6.82585471138194,1.00000000490573,0.6773951285317
12100.0000000265,6.85631634555139,1.00000000459285,0.671148790300195
12200.0000000269,6.89733234672023,1.00000000461504,0.67464338587707
12300.0000000272,6.94579372012953,1.00000000493596,0.680439717087227
12400.0000000276,6.99508919313493,1.00000000597767,0.689292135580196
12500.0000000279,7.03221620853967,1.00000000501616,0.704308948148426
12600.0000000283,7.07343857218005,1.00000000474128,0.702041390623078
12700.0000000287,7.1150972611407,1.00000000538474,0.700293074029414
12800.000000029,7.16428151624701,1.00000000539121,0.691999077971135
12900.0000000294,7.22114791026685,1.00000000454738,0.675692413606624
13000.0000000298,7.2760422193864,1.00000000519232,0.718612346291124
13100.0000000301,7.31223882052335,1.00000000480234,0.712675171496507
13200.0000000305,7.34579639590583,1.0000000051481,0.699488987710039
13300.0000000309,7.37708813650704,1.00000000494326,0.699791123594762
13400.0000000312,7.41281233600939,1.0000000049117,0.711743153066243
13500.0000000316,7.45536844799057,1.00000000495526,0.692181326561996
13600.0000000319,7.48944446846964,1.00000000493956,0.69734468680808
13700.0000000323,7.52075964403794,1.00000000451983,0.697639648391888
13800.0000000327,7.55273604568479,1.0000000056772,0.705460048268573
13900.000000033,7.57926048926797,1.00000000526328,0.695340294859954
14000.0000000334,7.60850454321641,1.00000000525628,0.694060876541079
14100.0000000338,7.63887774274074,1.00000000516686,0.706211872203713
14200.0000000341,7.66561735578978,1.00000000491893,0.709331274889781
14300.0000000345,7.68613274857027,1.00000000509818,0.695430834658518
14400.0000000349,7.70614798288665,1.00000000550518,0.672613793842018
14500.0000000352,7.73107616374247,1.00000000523769,0.688802439957145
14600.0000000356,7.74432839866411,1.00000000531451,0.708414534198324
14700.0000000359,7.74806514846779,1.00000000540344,0.705630859100026
14800.0000000363,7.75044245655966,1.00000000555658,0.707529947507057
14900.0000000367,7.74821828610335,1.00000000578697,0.71147269941929
15000.000000037,7.73860681171854,1.00000000572143,0.716744815287912
15100.0000000374,7.72321798575125,1.00000000568244,0.713546668699793
15200.0000000378,7.70356161135347,1.00000000546792,0.721556746152755
15300.0000000381,7.68113293777775,1.00000000508108,0.704113838157759
15400.0000000385,7.66240534884506,1.00000000558815,0.71457151217967
15500.0000000389,7.64557330674653,1.00000000589666,0.703002644356118
15600.0000000392,7.63229075645654,1.00000000573668,0.701176810224512
15700.0000000396,7.62648764550597,1.00000000581472,0.71050685954088
15800.0000000399,7.622177141949,1.00000000585173,0.722731753988866
15900.0000000403,7.62417373632602,1.00000000572671,0.713116827765245
16000.0000000407,7.62334510693191,1.00000000560405,0.711655768943767
16100.000000041,7.62881614064683,1.00000000640657,0.689051106415022
16200.0000000414,7.63753831806051,1.00000000570071,0.667955291234166
16300.0000000418,7.66389196067011,1.00000000567071,0.641038092509847
16400.0000000418,7.71455801555152,1.00000000542722,0.626094584335345
16500.0000000404,7.8215795780836,1.0000000051054,0.621067398846486
16600.0000000389,7.99013111642251,1.00000000546272,0.62405580986916
16700.0000000375,8.2361211970397,1.00000000558599,0.624482565653837
16800.000000036,8.52745804009747,1.00000000583277,0.633230209117843
16900.0000000346,8.87352740378516,1.00000000595249,0.63100044624053
17000.0000000331,9.22760417431783,1.00000000552054,0.632364835236121
17100.0000000317,9.6109018718027,1.00000000657322,0.641047310719916
17200.0000000302,9.97362392993224,1.00000000579736,0.638974913967538
17300.0000000287,10.3546098353045,1.00000000602667,0.646818456093632
17400.0000000273,10.7229332989955,1.00000000620881,0.644337382528561
17500.0000000258,11.0935920170897,1.00000000666561,0.648017557011897
17600.0000000244,11.4707176996863,1.00000000567914,0.652688206953517
17700.0000000229,11.8502237794743,1.00000000588289,0.649230340881515
17800.0000000215,12.2438889414097,1.0000000060011,0.654758515529219
17900.00000002,12.6400183030583,1.00000000551367,0.654616615028192
18000.0000000186,13.0442223545817,1.00000000663767,0.664128185926828
18100.0000000171,13.444727419398,1.00000000659564,0.677852849629786
18200.0000000156,13.8546392725241,1.00000000620082,0.679233422190922
18300.0000000142,14.2703470290339,1.00000000612946,0.686573237931387
18400.0000000127,14.6918610930614,1.00000000603852,0.69942484920913
18500.0000000113,15.1320567312878,1.00000000641164,0.703729818700186
18600.0000000098,15.5636626584931,1.00000000720806,0.699159182026056
18700.0000000084,15.989515762893,1.00000000723058,0.707076040234648
18800.0000000069,16.4101868585354,1.00000000679485,0.720958307273362
18900.0000000055,16.8290142544158,1.00000000657764,0.720413392973355
19000.000000004,17.2464244807123,1.00000000649819,0.726833923125866
19100.0000000026,17.649441654645,1.00000000635728,0.715088884286453
19200.0000000011,18.0495403357751,1.00000000687239,0.715170952553216
19299.9999999996,18.4336613677966,1.00000000678465,0.729100521970593
19399.9999999982,18.8371490492456,1.00000000623631,0.73882378626655
19499.9999999967,19.2544469745088,1.00000000670801,0.73270009213176
19599.9999999953,19.675015252381,1.00000000718989,0.728900312898025
19699.9999999938,20.0894031520989,1.00000000719786,0.74435194126338
19799.9999999924,20.5071915538077,1.00000000654386,0.728685789869842
19899.9999999909,20.9657260879012,1.00000000640693,0.741580249770549
19999.9999999895,21.4329354999014,1.00000000678369,0.738992467083882
20099.999999988,21.91104121732,1.00000000742281,0.738873548334998
20199.9999999865,22.425242051971,1.00000000621764,0.72694233279684
20299.9999999851,22.9521739878864,1.0000000080731,0.748761217183423
20399.9999999836,23.468953623692,1.00000000654551,0.737796534012476
20499.9999999822,23.9631826592885,1.00000000719486,0.752369712906897
20599.9999999807,24.4409776030048,1.00000000679582,0.725452133069778
20699.9999999793,24.9131340768712,1.00000000685582,0.739342572002123
20799.9999999778,25.4015635210801,1.00000000702098,0.738290679853743
20899.9999999764,25.9030311583392,1.00000000702601,0.728304639011176
20999.9999999749,26.4137425558082,1.00000000715733,0.732001941631825
21099.9999999734,26.9167873717851,1.00000000722467,0.746825881777039
21199.999999972,27.4152805824997,1.0000000072587,0.729679288405264
21299.9999999705,27.921354740885,1.00000000703476,0.738816890828264
21399.9999999691,28.4157087070988,1.00000000782433,0.740168755929753
21499.9999999676,28.9390229036884,1.00000000710847,0.720217360931659
21599.9999999662,29.4690086235184,1.00000000703207,0.724516963771491
21699.9999999647,30.0135218738414,1.00000000735991,0.737993502001614
21799.9999999633,30.5555866592441,1.00000000734249,0.735996329458632
21899.9999999618,31.0925740683542,1.00000000808404,0.727308409395811
21999.9999999603,31.6223289261135,1.00000000781635,0.724476109623335
22099.9999999589,32.1450078894981,1.00000000674577,0.735996194511382
22199.9999999574,32.669371543433,1.00000000668818,0.713290882611122
22299.999999956,33.2108041620928,1.00000000704854,0.709357202587574
22399.9999999545,33.7566475527703,1.0000000076493,0.723715115978817
22499.9999999531,34.2907158289119,1.00000000741921,0.731184327433854
22599.9999999516,34.8441074095964,1.00000000659222,0.720616683405981
22699.9999999502,35.406492277352,1.0000000075112,0.729763350163248
22799.9999999487,35.991507497254,1.00000000713883,0.735032538139997
22899.9999999473,36.5588032429124,1.00000000736458,0.738158008256721
22999.9999999458,37.1074668969855,1.00000000705649,0.729819331231177
23099.9999999443,37.6455148375067,1.00000000755975,0.732126403113279
23199.9999999429,38.2028907984654,1.00000000696139,0.722631078544956
23299.9999999414,38.7814517506673,1.00000000732064,0.733851181323252
23399.99999994,39.3483111747877,1.00000000750098,0.743368338824813
23499.9999999385,39.9209047317997,1.0000000073467,0.727656849456399
23599.9999999371,40.4792153212474,1.00000000771544,0.74895600395153
23699.9999999356,41.0166777859592,1.00000000833856,0.742648677265944
23799.9999999342,41.5594030315174,1.0000000070945,0.725203577359682
23899.9999999327,42.1286289773116,1.00000000705151,0.733164012072035
23999.9999999312,42.7156409473274,1.00000000672021,0.74104953535709
24099.9999999298,43.3013854682378,1.00000000806674,0.73500770666371
24199.9999999283,43.9016486690909,1.00000000824625,0.720550924737472
24299.9999999269,44.5024706481898,1.00000000714461,0.739884425750632
24399.9999999254,45.1162194839816,1.00000000718039,0.741470828745772
24499.999999924,45.7659202963696,1.00000000807496,0.731130425646477
24599.9999999225,46.4211319958366,1.00000000749514,0.735040945995106
24699.9999999211,47.0655048252162,1.00000000779908,0.744795071908272
24799.9999999196,47.7105348304598,1.00000000727792,0.724766445263111
24899.9999999181,48.3715635639059,1.00000000793243,0.731295862814034
24999.9999999167,49.0456221148816,1.00000000722096,0.73379995583936
25099.9999999152,49.7233536971287,1.00000000726505,0.743311162245045
25199.9999999138,50.4038832484803,1.00000000796373,0.743895907449149
25299.9999999123,51.0712382226805,1.0000000082216,0.732971805001965
25399.9999999109,51.7499718656988,1.00000000762236,0.729784216357419
25499.9999999094,52.4302882176579,1.0000000076381,0.728820643261636
25599.999999908,53.1167579142996,1.00000000856216,0.738959949291297
25699.9999999065,53.8114150579369,1.00000000844918,0.749864108805978
25799.9999999051,54.5183780903914,1.00000000759736,0.740751782794379
25899.9999999036,55.2486868944321,1.00000000791773,0.745468776112381
25999.9999999021,55.9734173150622,1.0000000079342,0.747479825324697
26099.9999999007,56.7048819002535,1.00000000814996,0.738870201946874
26199.9999998992,57.4269527840497,1.00000000836957,0.750068383459037
26299.9999998978,58.1362169031431,1.00000000875469,0.749846800904723
26399.9999998963,58.8302367071966,1.00000000841258,0.750042919488758
26499.9999998949,59.5248046300017,1.00000000863097,0.72576027046781
26599.9999998934,60.2234368778754,1.00000000823774,0.736872493121877
26699.999999892,60.930627849665,1.00000000823668,0.736489526535968
26799.9999998905,61.6559242441027,1.00000000789853,0.743440046255355
26899.999999889,62.3935251397949,1.00000000858038,0.746950052166032
26999.9999998876,63.1140196517985,1.00000000904796,0.749010819041913
27099.9999998861,63.8390476235493,1.0000000085536,0.73302666910392
27199.9999998847,64.5862287330018,1.00000000815213,0.719933053317485
27299.9999998832,65.3466326511644,1.00000000835432,0.725734907067962
27399.9999998818,66.1158096686866,1.00000000782013,0.731700094002755
27499.9999998803,66.8973534517268,1.00000000847295,0.742560511595716
27599.9999998789,67.6862050093551,1.00000000835503,0.742776736961632
27699.9999998774,68.4766304051912,1.00000000920578,0.748749696925903
27799.9999998759,69.2510215872878,1.00000000784688,0.744181551071534
27899.9999998745,70.0236469349877,1.00000000804505,0.746059245393856
27999.999999873,70.8071993468886,1.0000000084324,0.731851055342097
28099.9999998716,71.6143959519653,1.00000000852072,0.730747890962338
28199.9999998701,72.4258818742529,1.00000000836284,0.739239313483415
28299.9999998687,73.2388818930612,1.00000000863886,0.745823557077974
28399.9999998672,74.0378356114576,1.00000000824602,0.734062583837647
28499.9999998658,74.84363440982,1.00000000805682,0.738466532979706
28599.9999998643,75.6494200694702,1.0000000081781,0.748417632913459
28699.9999998629,76.4680848667316,1.0000000074609,0.74937485253679
28799.9999998614,77.2933843691746,1.000000008118,0.749381634293071
28899.9999998599,78.1186541125641,1.00000000819692,0.750404115889383
28999.9999998585,78.9523042559567,1.00000000744128,0.746223530915395
29099.999999857,79.7982154354202,1.00000000914469,0.740267771220613
