Time,AGPnorm,Energy,Entropy
0,0,1,-1.29138130935038e-17
99.9999999999986,1.48690250801938e-05,0.999999999998201,0.000671187414302293
199.999999999993,0.00134190335592388,0.999999999998954,0.00108608999060787
300,0.00326792160112492,0.999999999999635,0.00189613608062795
400.000000000022,0.00452328806758757,0.999999999997858,0.00328185359869378
500.000000000045,0.00554704185684893,0.999999999999859,0.0044078527023505
600.000000000068,0.00796609077879054,0.999999999998563,0.00613587681869318
700.000000000091,0.00978601874211806,0.999999999998531,0.0079291597541485
800.000000000113,0.012493352808918,0.999999999999923,0.00973649844886792
900.000000000136,0.0158183646834107,0.999999999997868,0.012012701439387
1000.00000000016,0.0184678409021833,0.999999999999554,0.0141501569180307
1100.0000000001,0.0220949918150277,0.999999999998988,0.016570649807253
1200,0.025877515626381,0.999999999998186,0.0192091541119155
1299.99999999991,0.0298942211965923,1.00000000000005,0.0217634640527089
1399.99999999982,0.0345213214365755,0.999999999998031,0.0246810723467741
1499.99999999973,0.0386930209670756,0.999999999999142,0.0275930815899328
1599.99999999964,0.0435691677237053,0.999999999999407,0.0306063069725879
1699.99999999955,0.0489414031222541,0.999999999997974,0.0339119439221864
1799.99999999946,0.0541695124438661,0.999999999999997,0.0371415936825603
1899.99999999937,0.0597998563028603,0.999999999998324,0.0406208054308718
1999.99999999928,0.0652738163234945,0.99999999999871,0.0442209251587554
2099.99999999919,0.0712251707907531,0.999999999999763,0.0478294679929791
2199.99999999909,0.0778077762607017,0.99999999999792,0.0517528563759939
2299.999999999,0.0840335894920921,0.999999999999753,0.0556609089308626
2399.99999999891,0.0904386425357372,0.999999999998693,0.0597201608060731
2499.99999999882,0.0969905526720172,0.999999999998346,0.064007783271389
2599.99999999873,0.103792199885627,1,0.0682855044761075
2699.99999999864,0.111116011925509,0.999999999998022,0.0728695781430784
2799.99999999855,0.118053767218749,0.99999999999937,0.077528540267405
2899.99999999846,0.125028371784839,0.999999999999083,0.0822789384733203
2999.99999999837,0.132410047221684,0.99999999999811,0.0873509211747834
3099.99999999828,0.139830326074478,1.00000000000007,0.0924613498234983
3199.99999999819,0.147468536300384,0.999999999998252,0.0978596085030749
3299.99999999809,0.154835590200547,0.999999999998925,0.103459423025309
3399.999999998,0.162198153138116,0.999999999999441,0.10915470447047
3499.99999999791,0.170117215430426,0.999999999997997,0.115278712273599
3599.99999999782,0.17788361760295,0.999999999999947,0.121555152551571
3699.99999999773,0.185564895488382,0.999999999998571,0.128150626372244
3799.99999999764,0.193088969575584,0.999999999998592,0.135144445637432
3899.99999999755,0.20069001468194,0.999999999999924,0.142362040510041
3999.99999999746,0.208731883711216,0.99999999999842,0.150212226880169
4099.99999999738,0.216453807582553,1.00000000000046,0.158470025224047
4199.99999999775,0.2241398670891,1.00000000000038,0.167220779170776
4299.99999999811,0.231380482098375,1.00000000000127,0.176687731930573
4399.99999999848,0.239385908210247,1.00000000000516,0.186597106441201
4499.99999999884,0.247528108946555,1.00000000000686,0.197261947944925
4599.9999999992,0.254756887690482,1.00000000001338,0.208399986045563
4699.99999999957,0.264601233889084,1.00000000001979,0.219798977791863
4799.99999999993,0.27257290541751,1.00000000002796,0.231653149354245
4900.00000000029,0.284760849662169,1.00000000003949,0.243479529052817
5000.00000000066,0.301371314538055,1.00000000005093,0.255425888846712
5100.00000000102,0.317685548591561,1.0000000000634,0.267326863280525
5200.00000000139,0.349528644616359,1.00000000008193,0.278830291730915
5300.00000000175,0.386987582596299,1.00000000009647,0.290433637387366
5400.00000000211,0.441150085727337,1.00000000011143,0.301659428246257
5500.00000000248,0.524165520654619,1.00000000012973,0.312610632949048
5600.00000000284,0.623318983191066,1.00000000014777,0.323461989203695
5700.00000000321,0.769428072641833,1.00000000016395,0.333788677254844
5800.00000000357,0.957488285646629,1.00000000018473,0.344068971681852
5900.00000000393,1.19308061930734,1.00000000020165,0.354074335795449
6000.0000000043,1.50848790513014,1.0000000002234,0.363583698294422
6100.00000000466,1.8852032491587,1.0000000002356,0.373096687483744
6200.00000000502,2.356049054574,1.00000000025455,0.382056225258895
6300.00000000539,2.93354792636508,1.00000000027248,0.390832031462306
6400.00000000575,3.60769249729346,1.00000000029919,0.399409662679765
6500.00000000612,4.42361680352084,1.00000000029779,0.407466831767967
6600.00000000648,5.36734375199991,1.00000000032295,0.415485428628821
6700.00000000684,6.45486491980362,1.00000000032344,0.423166375026415
6800.00000000721,7.71970992080882,1.00000000034343,0.430343900368065
6900.00000000757,9.13740032428543,1.00000000035531,0.437592101943398
7000.00000000793,10.7476580651332,1.00000000037075,0.444244018974617
7100.0000000083,12.5525978829554,1.00000000037974,0.45083426542422
7200.00000000866,14.5413011178602,1.00000000038187,0.457307062946156
7300.00000000903,16.7591982050549,1.00000000041121,0.463034626888932
7400.00000000939,19.1791184851863,1.00000000040446,0.469059386555509
7500.00000000975,21.8176372855449,1.00000000042036,0.474453489765263
7600.00000001012,24.6979136890824,1.00000000041351,0.479746461490182
7700.00000001048,27.7860829558329,1.00000000041936,0.484985305839102
7800.00000001084,31.1225924809624,1.00000000043476,0.489557495859643
7900.00000001121,34.6922396400841,1.00000000044023,0.494270247936814
8000.00000001157,38.4803600185179,1.00000000045764,0.498658686965439
8100.00000001194,42.5261296528548,1.00000000044137,0.502728122611721
8200.0000000123,46.7865937396033,1.00000000046244,0.506805593591875
8300.00000001266,51.2824148042314,1.00000000044115,0.510547778807014
8400.00000001303,56.0179648225491,1.00000000046893,0.51401600840089
8500.00000001339,60.9528207200821,1.00000000044471,0.517656932426854
8600.00000001376,66.1287316397362,1.00000000048145,0.520599169495763
8700.00000001412,71.5099554261318,1.00000000047323,0.5238028774759
8800.00000001448,77.089008259509,1.00000000048179,0.526673569336523
8900.00000001485,82.8901043413585,1.00000000046377,0.529348591893711
9000.00000001521,88.8592103730543,1.00000000047033,0.53206879984887
9100.00000001557,95.0273788450652,1.00000000047305,0.534300735311235
9200.00000001594,101.376596510064,1.00000000047179,0.5366258846103
9300.0000000163,107.873757501742,1.00000000046847,0.538936420823064
9400.00000001667,114.553889240152,1.00000000046431,0.540743634377635
9500.00000001703,121.365181415864,1.00000000047157,0.542773562954039
9600.00000001739,128.318761961335,1.0000000004449,0.544551600669053
9700.00000001776,135.41711248211,1.00000000047166,0.546097302165672
9800.00000001812,142.610482721645,1.00000000046451,0.5477202291046
9900.00000001848,149.934480155603,1.00000000045101,0.549141792434009
10000.0000000188,157.349653869504,1.00000000046108,0.550595727790574
10100.0000000192,164.845876204232,1.0000000004435,0.55178223608148
10200.0000000196,172.441660073972,1.00000000045411,0.552999961278682
10300.0000000199,180.083161490078,1.0000000004533,0.554098561273184
10400.0000000203,187.795849371703,1.00000000047061,0.554721655113821
10500.0000000207,195.560146005762,1.00000000046145,0.555860431921264
10600.000000021,203.347390572214,1.0000000004477,0.556553241250878
10700.0000000214,211.184996795653,1.00000000045103,0.55731605771891
10800.0000000218,219.025445220451,1.00000000045048,0.558114120310051
10900.0000000221,226.880012609868,1.00000000043953,0.558670669432964
11000.0000000225,234.746109472859,1.00000000045266,0.559438469222318
11100.0000000229,242.586101959478,1.00000000044707,0.559615218449811
11200.0000000232,250.427284136194,1.00000000042381,0.560323845601866
11300.0000000236,258.233657103165,1.00000000043232,0.560856344354209
11400.0000000239,266.003638558033,1.000000000431,0.560481944769018
11500.0000000243,273.74686341271,1.00000000042447,0.561224168706821
11600.0000000247,281.424114634884,1.00000000041486,0.561700158727749
11700.000000025,289.05714668055,1.00000000041306,0.56107940389484
11800.0000000254,296.623882979605,1.00000000041464,0.56187682325639
11900.0000000258,304.113386996338,1.00000000040462,0.561956235993195
12000.0000000261,311.541335927246,1.00000000040117,0.561674158553367
12100.0000000265,318.871473457254,1.00000000041391,0.562184078934861
12200.0000000269,326.122303616581,1.00000000039948,0.561729578397177
12300.0000000272,333.280151999918,1.00000000038509,0.561881240782782
12400.0000000276,340.327784606077,1.00000000039659,0.562063542576325
12500.0000000279,347.286457039257,1.00000000039501,0.561304386779859
12600.0000000283,354.123805016814,1.00000000039351,0.561715327717327
12700.0000000287,360.851941844516,1.00000000039232,0.561569454599899
12800.000000029,367.468144703516,1.00000000038704,0.560961649780314
12900.0000000294,373.951579383794,1.00000000038662,0.561495956249965
13000.0000000298,380.323644763951,1.00000000038143,0.56070815778001
13100.0000000301,386.55914081676,1.00000000037004,0.560584024386093
13200.0000000305,392.662432611687,1.00000000036799,0.56091723876544
13300.0000000309,398.641167502477,1.00000000036153,0.559902340888739
13400.0000000312,404.470744839164,1.00000000036217,0.560082816826106
13500.0000000316,410.172480662862,1.0000000003704,0.559835855030958
13600.0000000319,415.73045571122,1.00000000035316,0.55905224135281
13700.0000000323,421.140349858163,1.0000000003454,0.559184615896043
13800.0000000327,426.417472010631,1.00000000034407,0.559158993219469
13900.000000033,431.539821613134,1.00000000035583,0.558294739093295
14000.0000000334,436.520680463066,1.00000000033447,0.557946733353594
14100.0000000338,441.354252424475,1.00000000032209,0.558135231730278
14200.0000000341,446.035319932167,1.00000000033167,0.557617101461404
14300.0000000345,450.576601221244,1.00000000033181,0.556905534990868
14400.0000000349,454.961177882058,1.0000000003168,0.557150407134682
14500.0000000352,459.200879018429,1.00000000032,0.556584943614584
14600.0000000356,463.293901130444,1.00000000032354,0.555934577409159
14700.0000000359,467.230848373299,1.00000000032067,0.555987009549328
14800.0000000363,471.028410468208,1.00000000032777,0.555604725325586
14900.0000000367,474.67318980732,1.00000000031908,0.555427411951085
15000.000000037,478.170164090711,1.00000000030763,0.554925983107755
15100.0000000374,481.52525030964,1.00000000030963,0.554315366479221
15200.0000000378,484.727442327795,1.00000000030522,0.554012383858674
15300.0000000381,487.791830786442,1.0000000002984,0.553454576711515
15400.0000000385,490.708501680446,1.00000000029395,0.553967555737822
15500.0000000389,493.482405418005,1.0000000003022,0.554385165838866
15600.0000000392,496.121185907002,1.00000000029305,0.55298571704054
15700.0000000396,498.613271447902,1.00000000029864,0.552552249255195
15800.0000000399,500.973218336807,1.00000000028572,0.550818394374294
15900.0000000403,503.193417186114,1.00000000028751,0.55246064729161
16000.0000000407,505.278395799603,1.00000000027697,0.552366588442233
16100.000000041,507.236173121506,1.00000000029472,0.554261647820159
16200.0000000414,509.061319195643,1.0000000002754,0.552294899771225
16300.0000000418,510.761286648744,1.00000000028168,0.550295848480661
16400.0000000418,512.332161813599,1.00000000026846,0.547242998574511
16500.0000000404,513.770095216374,1.00000000027263,0.548583651751429
16600.0000000389,515.08837722204,1.00000000026883,0.552206657888516
16700.0000000375,516.285720108177,1.00000000027501,0.555059930070633
16800.000000036,517.373472548395,1.00000000027506,0.553975387997544
16900.0000000346,518.34993932337,1.00000000026642,0.548778632679099
17000.0000000331,519.205636637823,1.00000000025346,0.544173509265792
17100.0000000317,519.945213373641,1.0000000002426,0.543093159687626
17200.0000000302,520.564369485754,1.00000000024569,0.547779325045387
17300.0000000287,521.079557629884,1.0000000002562,0.554632905400074
17400.0000000273,521.503297866093,1.00000000027135,0.557809930175131
17500.0000000258,521.838389226048,1.00000000027473,0.554629316746532
17600.0000000244,522.084529269114,1.00000000024992,0.545241299548669
17700.0000000229,522.224971716697,1.0000000002303,0.53731331009878
17800.0000000215,522.254850479747,1.00000000021986,0.536223561558604
17900.00000002,522.181864572752,1.00000000023686,0.544743522970593
18000.0000000186,522.022372950876,1.00000000026045,0.556127580402141
18100.0000000171,521.801864681634,1.00000000028303,0.561886185793496
18200.0000000156,521.524646124414,1.00000000027765,0.55728188881999
18300.0000000142,521.181984409594,1.00000000025926,0.545105250269381
18400.0000000127,520.757909975508,1.00000000022665,0.530936485754228
18500.0000000113,520.233512763531,1.00000000020194,0.525293454079333
18600.0000000098,519.61688511537,1.00000000021347,0.533486025243856
18700.0000000084,518.925083849799,1.00000000025065,0.549599277142189
18800.0000000069,518.186657732388,1.0000000002917,0.5631698771705
18900.0000000055,517.422542178359,1.00000000029407,0.564774598479233
19000.000000004,516.628190585729,1.00000000028846,0.554357332033015
19100.0000000026,515.788191195483,1.00000000023852,0.534863369008471
19200.0000000011,514.875095886578,1.00000000019956,0.516623806532191
19299.9999999996,513.875408420467,1.00000000018161,0.511608116569354
19399.9999999982,512.798530145563,1.00000000020681,0.524580437277099
19499.9999999967,511.666597326343,1.00000000025719,0.548181210305551
19599.9999999953,510.514545209472,1.00000000030995,0.565430485890325
19699.9999999938,509.361049468402,1.00000000032544,0.568866454834128
19799.9999999924,508.204112500999,1.00000000031423,0.55714243113293
19899.9999999909,507.02690391492,1.00000000025149,0.534377168930995
19999.9999999895,505.798259456275,1.00000000019588,0.508776152860527
20099.999999988,504.500349054715,1.00000000016216,0.494035305297093
20199.9999999865,503.130300079104,1.00000000017354,0.501330607226869
20299.9999999851,501.707388460236,1.00000000022886,0.529319186316693
20399.9999999836,500.267288901335,1.00000000030187,0.557134950923001
20499.9999999822,498.834571062351,1.00000000033578,0.571252120808402
20599.9999999807,497.420980894453,1.00000000035467,0.568892101714172
20699.9999999793,496.019947772898,1.00000000031687,0.553076024685328
20799.9999999778,494.606525990497,1.00000000025431,0.524910641030198
20899.9999999764,493.156777104189,1.00000000018323,0.494066979408577
20999.9999999749,491.647057105431,1.0000000001506,0.47657165871457
21099.9999999734,490.078074681737,1.00000000015878,0.484663636484901
21199.999999972,488.469829363698,1.00000000021958,0.516973183985426
21299.9999999705,486.849101721862,1.00000000029871,0.550864806358632
21399.9999999691,485.244612030232,1.00000000034997,0.570252890290605
21499.9999999676,483.668473900731,1.00000000036832,0.5740252792887
21599.9999999662,482.119610003863,1.0000000003493,0.564092782171991
21699.9999999647,480.584510224764,1.00000000030344,0.539872432931649
21799.9999999633,479.03623098552,1.00000000022783,0.505675456861437
21899.9999999618,477.454829307722,1.00000000016576,0.474534642339552
21999.9999999603,475.825400062787,1.00000000013786,0.46224718291622
22099.9999999589,474.152162033638,1.00000000016422,0.476709070389984
22199.9999999574,472.454902763521,1.000000000234,0.512286870980153
22299.999999956,470.755349046697,1.00000000031037,0.54766689085546
22399.9999999545,469.07589266961,1.00000000036342,0.568914494389972
22499.9999999531,467.428081729507,1.00000000037887,0.573963469044446
22599.9999999516,465.8116808539,1.00000000037099,0.566607906761113
22699.9999999502,464.218182502331,1.00000000032505,0.546969575993648
22799.9999999487,462.628320160345,1.00000000025538,0.51697443314108
22899.9999999473,461.024038940203,1.00000000019412,0.481590091481435
22999.9999999458,459.390599272627,1.00000000015408,0.457546600282613
23099.9999999443,457.722661412906,1.00000000014473,0.455218334549998
23199.9999999429,456.029695753334,1.00000000018133,0.475010946316832
23299.9999999414,454.323861055332,1.00000000024408,0.510659020272091
23399.99999994,452.624367870653,1.00000000031359,0.54473099165208
23499.9999999385,450.945515847812,1.00000000036243,0.563763004584532
23599.9999999371,449.294619132478,1.00000000037693,0.569279472809097
23699.9999999356,447.673730126232,1.0000000003778,0.563125953726393
23799.9999999342,446.076590019321,1.00000000034411,0.54783981184692
23899.9999999327,444.491598912574,1.00000000027162,0.523642023192571
23999.9999999312,442.90646293825,1.0000000002376,0.494242464337461
24099.9999999298,441.308070410711,1.0000000001896,0.465740970663337
24199.9999999283,439.692117600157,1.00000000015955,0.451125954761802
24299.9999999269,438.056970244377,1.00000000016144,0.454898383347282
24399.9999999254,436.409326297378,1.00000000019627,0.474709885301659
24499.999999924,434.759444319971,1.00000000024296,0.503361566413907
24599.9999999225,433.116458333276,1.00000000030599,0.533683091218589
24699.9999999211,431.490681683751,1.00000000034167,0.552901105256907
24799.9999999196,429.887257927716,1.00000000036767,0.558928193127286
24899.9999999181,428.307209235165,1.0000000003614,0.555794833670862
24999.9999999167,426.749013491366,1.00000000035541,0.544374737331784
25099.9999999152,425.206172634359,1.00000000031181,0.528734408994667
25199.9999999138,423.671659903965,1.00000000027114,0.507652569669005
25299.9999999123,422.138038797561,1.00000000023639,0.486534815705704
25399.9999999109,420.599683122424,1.00000000019299,0.46643126989728
25499.9999999094,419.055370911583,1.00000000017632,0.455955692503644
25599.999999908,417.503960528539,1.00000000018616,0.456664685377904
25699.9999999065,415.949954424468,1.00000000020421,0.469090138391759
25799.9999999051,414.397061781493,1.00000000023804,0.489010604594151
25899.9999999036,412.850271977808,1.00000000027994,0.511658330223613
25999.9999999021,411.31506973368,1.00000000031585,0.530572629110016
26099.9999999007,409.794735813317,1.00000000034245,0.54176624581393
26199.9999998992,408.290876505624,1.00000000034326,0.543617293906569
26299.9999998978,406.803928525285,1.00000000035406,0.538536077190872
26399.9999998963,405.331684377877,1.00000000032603,0.529436881868067
26499.9999998949,403.871469049908,1.00000000029371,0.518927697042443
26599.9999998934,402.420107058636,1.00000000027854,0.507890308872983
26699.999999892,400.974150106316,1.00000000024517,0.494309222380041
26799.9999998905,399.53193209159,1.00000000022917,0.483253140602501
26899.999999889,398.091621711001,1.00000000020283,0.471265889302781
26999.9999998876,396.654199629271,1.00000000020027,0.465883576300451
27099.9999998861,395.219401689664,1.0000000002085,0.466042824757324
27199.9999998847,393.788931291105,1.00000000021666,0.473111173383608
27299.9999998832,392.364404223644,1.00000000023149,0.485459326622342
27399.9999998818,390.947123890436,1.00000000027022,0.500083620592417
27499.9999998803,389.539332334657,1.00000000029167,0.513176766780351
27599.9999998789,388.142262714261,1.00000000030194,0.522238696720192
27699.9999998774,386.756261045516,1.00000000031832,0.526844712448347
27799.9999998759,385.38196180028,1.00000000032636,0.52506501456483
27899.9999998745,384.018628138681,1.0000000003144,0.522832835525117
27999.999999873,382.665376840532,1.00000000028866,0.517891819128008
28099.9999998716,381.321500029196,1.0000000002688,0.511480899946684
28199.9999998701,379.98562646559,1.00000000026618,0.507617994035557
28299.9999998687,378.657723929465,1.00000000025674,0.502675551323402
28399.9999998672,377.336946693153,1.00000000025506,0.499275101784546
28499.9999998658,376.02386021633,1.00000000023745,0.492588555135239
28599.9999998643,374.718404213127,1.00000000022632,0.485641304873208
28699.9999998629,373.420622162348,1.00000000022258,0.480367373343722
28799.9999998614,372.131293484755,1.00000000022033,0.476722794146828
28899.9999998599,370.849729651304,1.00000000021455,0.477233053736526
