Time,AGPnorm,Energy,Entropy
0,0,1,-7.2969479433328e-17
99.9999999999986,0.00044420691657827,0.999999999998477,0.00167862756474481
199.999999999993,0.00303014834348754,0.999999999997995,0.00499859353059315
300,0.00618255327354041,0.999999999999446,0.00935642248053584
400.000000000022,0.00949744200621333,1.00000000000037,0.0148436838314674
500.000000000045,0.0135335183185189,0.999999999999051,0.0215451733312521
600.000000000068,0.0191887505440032,0.999999999997893,0.0291254662260172
700.000000000091,0.0249939210829043,0.999999999998709,0.0374022849427267
800.000000000113,0.0315921324384816,1.00000000000037,0.0464581653465555
900.000000000136,0.0383477055151062,0.99999999999971,0.0564665477660292
1000.00000000016,0.0462584105808279,0.999999999998189,0.0672786186608328
1100.0000000001,0.0544858394070932,0.999999999998102,0.0789240805463166
1200,0.0628590204622728,0.999999999999889,0.0914343420718932
1299.99999999991,0.0713580249093995,1.00000000000033,0.105187852784116
1399.99999999982,0.0802900594955679,0.999999999998764,0.120112223377206
1499.99999999973,0.0898320119325423,0.999999999998163,0.136505838598825
1599.99999999964,0.0988197845583903,0.99999999999997,0.15456332752277
1699.99999999955,0.10835848421786,1.00000000000334,0.174992884457488
1799.99999999946,0.11700418737694,1.0000000000075,0.198110263163484
1899.99999999937,0.126258302034367,1.00000000001879,0.223915299758075
1999.99999999928,0.139227232160701,1.00000000004317,0.251866524873988
2099.99999999919,0.162378399759456,1.00000000007935,0.281027042992579
2199.99999999909,0.198345843386774,1.0000000001279,0.310176389857262
2299.999999999,0.265669484120285,1.00000000017738,0.337914935678961
2399.99999999891,0.405349725239281,1.00000000023864,0.363681130955471
2499.99999999882,0.659219091558755,1.00000000029615,0.387074802537423
2599.99999999873,1.05942101544045,1.00000000037434,0.408372742004965
2699.99999999864,1.66038110829127,1.00000000040082,0.427603846727517
2799.99999999855,2.53379935103902,1.00000000045207,0.444560738307629
2899.99999999846,3.73309415603628,1.00000000050681,0.459436454670255
2999.99999999837,5.28440483088661,1.00000000054685,0.472935220041407
3099.99999999828,7.23110877008093,1.00000000060774,0.484904695202609
3199.99999999819,9.62149236095758,1.00000000060885,0.495341733587494
3299.99999999809,12.4692775261783,1.00000000062657,0.504127293208808
3399.999999998,15.7548235486836,1.00000000065463,0.512007099711339
3499.99999999791,19.479456954833,1.00000000063278,0.519098296064816
3599.99999999782,23.6543444088313,1.00000000067448,0.524971988813782
3699.99999999773,28.253605883078,1.00000000064376,0.529613510681984
3799.99999999764,33.2185489601614,1.00000000064753,0.533672249662945
3899.99999999755,38.5093159595381,1.00000000065781,0.537524998136526
3999.99999999746,44.1149164764692,1.00000000068304,0.540528332368749
4099.99999999738,49.9966862888534,1.00000000067127,0.542117929558303
4199.99999999775,56.08406213401,1.00000000067099,0.543523115666197
4299.99999999811,62.3124992268181,1.00000000065815,0.545877360436705
4399.99999999848,68.6601721934047,1.00000000060218,0.546265222383893
4499.99999999884,75.1028280419928,1.00000000064619,0.546123918213887
4599.9999999992,81.5759935569984,1.00000000061956,0.546804309928693
4699.99999999957,88.0170568720656,1.00000000062056,0.546121479005944
4799.99999999993,94.3955788788994,1.00000000060526,0.546279111668525
4900.00000000029,100.701772373501,1.00000000059154,0.545244141404844
5000.00000000066,106.895879095061,1.00000000060842,0.543746437361595
5100.00000000102,112.928911632275,1.00000000056488,0.543772416636357
5200.00000000139,118.769485291739,1.00000000057874,0.542359142366914
5300.00000000175,124.414722179311,1.00000000055585,0.540542874791395
5400.00000000211,129.854306706716,1.00000000052749,0.539838450530243
5500.00000000248,135.055366578872,1.00000000052792,0.538503973735971
5600.00000000284,139.994221358543,1.00000000052756,0.536723351239473
5700.00000000321,144.665378909621,1.00000000052482,0.535483057138887
5800.00000000357,149.073119099041,1.00000000051244,0.534688867721774
5900.00000000393,153.205121094673,1.00000000047446,0.532418744864448
6000.0000000043,157.044491048561,1.00000000048053,0.530305183869666
6100.00000000466,160.588442725045,1.00000000048228,0.530214937384361
6200.00000000502,163.846288601968,1.00000000046125,0.53035789523806
6300.00000000539,166.82365363199,1.0000000004447,0.526175990142051
6400.00000000575,169.511474963107,1.00000000041495,0.521862911966514
6500.00000000612,171.909096122691,1.00000000042535,0.524134189189303
6600.00000000648,174.03379675109,1.00000000039566,0.528867901426662
6700.00000000684,175.902426715992,1.00000000042264,0.525017793875664
6800.00000000721,177.507199594594,1.00000000040129,0.51353948041647
6900.00000000757,178.836953359679,1.00000000037039,0.51146495017328
7000.00000000793,179.915125350728,1.00000000040197,0.524556761334492
7100.0000000083,180.788170309127,1.00000000040641,0.534272098997773
7200.00000000866,181.474730914761,1.00000000038926,0.524531737168326
7300.00000000903,181.941697141414,1.00000000033385,0.500473875504229
7400.00000000939,182.159499883252,1.00000000031936,0.495341006880162
7500.00000000975,182.167351563019,1.0000000003506,0.520207463072685
7600.00000001012,182.049643796989,1.00000000042329,0.543287153997697
7700.00000001048,181.849639090466,1.00000000040639,0.540106132152138
7800.00000001084,181.52849002458,1.00000000034412,0.505481861215418
7900.00000001121,181.013261223907,1.00000000024176,0.470246090169963
8000.00000001157,180.293667509749,1.00000000026126,0.480906369661927
8100.00000001194,179.452863102555,1.00000000038024,0.524804801348869
8200.0000000123,178.587881394764,1.00000000046947,0.553983379893548
8300.00000001266,177.73470722044,1.00000000047369,0.549941652563402
8400.00000001303,176.848732995016,1.00000000036474,0.508992905944052
8500.00000001339,175.84282178353,1.00000000022165,0.450119337104928
8600.00000001376,174.675406717366,1.00000000018052,0.433059900296405
8700.00000001412,173.395570520303,1.00000000030641,0.484105599009934
8800.00000001448,172.094910537571,1.0000000004726,0.537558433837093
8900.00000001485,170.842937694217,1.00000000054485,0.560037399984443
9000.00000001521,169.654856772157,1.00000000053331,0.552718464339124
9100.00000001557,168.4856876207,1.00000000039669,0.506796943766948
9200.00000001594,167.258480418713,1.00000000023855,0.431337011652471
9300.0000000163,165.920765452004,1.00000000015316,0.38733082447172
9400.00000001667,164.490432283443,1.0000000002219,0.421666585677507
9500.00000001703,163.033754222248,1.00000000039754,0.492566564239002
9600.00000001739,161.610291943675,1.00000000050945,0.539656639429237
9700.00000001776,160.254204273929,1.00000000055532,0.556252004085222
9800.00000001812,158.968869169239,1.00000000055224,0.549715875687743
9900.00000001848,157.724976712471,1.00000000044674,0.513895709413305
10000.0000000188,156.47237275332,1.00000000030789,0.443523655410313
10100.0000000192,155.167168336206,1.00000000018615,0.371512956785941
10200.0000000196,153.802277953092,1.00000000015535,0.35552506920999
10300.0000000199,152.404839585965,1.0000000002543,0.406856019357466
10400.0000000203,151.011627826335,1.00000000039377,0.478155961913411
10500.0000000207,149.649493337021,1.00000000052304,0.523805856781471
10600.000000021,148.335090024231,1.00000000058662,0.541666626591865
10700.0000000214,147.075312663988,1.00000000053897,0.544899824408616
10800.0000000218,145.862774703469,1.0000000005236,0.532056758227214
10900.0000000221,144.676699753634,1.00000000039949,0.497094773621578
11000.0000000225,143.490829141836,1.00000000031227,0.438390272111905
11100.0000000229,142.288205197913,1.00000000022248,0.377769366733967
11200.0000000232,141.068923560483,1.0000000001834,0.35035724448707
11300.0000000236,139.84655065545,1.00000000021175,0.369327916826739
11400.0000000239,138.634851776995,1.00000000030163,0.420667785972916
11500.0000000243,137.440218904475,1.00000000041008,0.477732333937384
11600.0000000247,136.265182927428,1.00000000047523,0.510931403003892
11700.000000025,135.11344763691,1.00000000052957,0.520534169258093
11800.0000000254,133.989069848829,1.00000000051203,0.52526914784256
11900.0000000258,132.893375650483,1.00000000050887,0.532826284807921
12000.0000000261,131.822729902808,1.00000000046826,0.525985229109827
12100.0000000265,130.768806511854,1.00000000038539,0.493922652749284
12200.0000000269,129.723762691131,1.00000000032331,0.447236763428809
12300.0000000272,128.686265666963,1.00000000025995,0.404078654988097
12400.0000000276,127.66216833268,1.00000000023605,0.376895727197886
12500.0000000279,126.659491083511,1.00000000024712,0.374143147738903
12600.0000000283,125.682527609897,1.00000000027077,0.398508311740201
12700.0000000287,124.729804669618,1.00000000032299,0.429168527078758
12800.000000029,123.795541897877,1.00000000035521,0.464175174129497
12900.0000000294,122.873822206912,1.00000000039406,0.495986346262278
13000.0000000298,121.962213181827,1.00000000039352,0.505154554116135
13100.0000000301,121.060331592949,1.00000000041018,0.498165733925944
13200.0000000305,120.166460508751,1.00000000044708,0.499931134326703
13300.0000000309,119.278984548492,1.00000000049458,0.516217981886397
13400.0000000312,118.399081009255,1.00000000051324,0.53486505668313
13500.0000000316,117.52968300434,1.00000000046728,0.533731100787627
13600.0000000319,116.673345443117,1.00000000040865,0.506670027433894
13700.0000000323,115.833368407964,1.00000000029743,0.46136191820985
13800.0000000327,115.016638379854,1.00000000021597,0.418414861505593
13900.000000033,114.231474958966,1.00000000022026,0.38982070072849
14000.0000000334,113.481121848031,1.00000000027118,0.383699072229523
14100.0000000338,112.763224310689,1.00000000033446,0.393535861384023
14200.0000000341,112.073287194113,1.00000000035492,0.419091298737363
14300.0000000345,111.405324380808,1.00000000037821,0.446782932057765
14400.0000000349,110.751202244034,1.00000000040276,0.465114114808355
14500.0000000352,110.103531427855,1.00000000040846,0.4811128561772
14600.0000000356,109.459505856547,1.00000000039577,0.494796226229325
14700.0000000359,108.821431351024,1.0000000003615,0.499208952252546
14800.0000000363,108.194131291481,1.00000000032098,0.491051681568786
14900.0000000367,107.578110945468,1.00000000033393,0.479799865869885
15000.000000037,106.966035646505,1.00000000039159,0.482603641009806
15100.0000000374,106.347159738072,1.00000000049394,0.497529325005505
15200.0000000378,105.71578930234,1.00000000053748,0.517083437295474
15300.0000000381,105.074629521643,1.00000000052394,0.533898651249175
15400.0000000385,104.430809996344,1.00000000048799,0.535060449138321
15500.0000000389,103.791816027101,1.00000000040293,0.518990968699895
15600.0000000392,103.165952536465,1.00000000035218,0.488074776563045
15700.0000000396,102.562830197479,1.00000000028454,0.45107595674708
15800.0000000399,101.994490230529,1.00000000022292,0.419609200614335
15900.0000000403,101.469629641924,1.00000000022739,0.396850614633672
16000.0000000407,100.990113301452,1.00000000024212,0.387479766162939
16100.000000041,100.548333132173,1.00000000030308,0.395990536688678
16200.0000000414,100.132933296329,1.00000000037081,0.418440390503783
16300.0000000418,99.7328697663646,1.0000000003954,0.440034618819349
16400.0000000418,99.3423251514789,1.00000000040152,0.458022035179388
16500.0000000404,98.9565586636393,1.00000000039154,0.472515779808351
16600.0000000389,98.5724683255775,1.00000000039007,0.482650138395631
16700.0000000375,98.1872835848927,1.00000000041228,0.491228493650072
16800.000000036,97.7982706904248,1.00000000040592,0.501511457243027
16900.0000000346,97.4056304822179,1.00000000039489,0.509226279751954
17000.0000000331,97.0118789145886,1.00000000036361,0.513693434444371
17100.0000000317,96.6230121274374,1.00000000034225,0.513435847230366
17200.0000000302,96.2417320542236,1.00000000033552,0.507014239603073
17300.0000000287,95.8665081841271,1.00000000034218,0.501340640308042
17400.0000000273,95.49026889915,1.00000000037608,0.495572238241198
17500.0000000258,95.1069750022727,1.00000000041428,0.491577814551553
17600.0000000244,94.7116782660297,1.00000000046174,0.496962151242728
17700.0000000229,94.3020575669356,1.00000000048384,0.509086470648313
17800.0000000215,93.8775498757879,1.00000000047334,0.523964635066203
17900.00000002,93.4411634787692,1.00000000046585,0.537605856915912
18000.0000000186,92.9996608080078,1.00000000046066,0.539890012350361
18100.0000000171,92.5624715445901,1.00000000041023,0.526112693466211
18200.0000000156,92.1404161173419,1.00000000034669,0.499184250892787
18300.0000000142,91.7445111238453,1.00000000027467,0.466981588480192
18400.0000000127,91.3848142620466,1.00000000023601,0.440236130938084
18500.0000000113,91.0662414955299,1.00000000023896,0.425801487731179
18600.0000000098,90.790135493208,1.00000000024871,0.419272295912102
18700.0000000084,90.5544131861986,1.00000000029381,0.416610977875833
18800.0000000069,90.3539108980267,1.00000000030641,0.41752489427062
18900.0000000055,90.1794037141364,1.00000000032974,0.423200735338822
19000.000000004,90.01906807085,1.00000000039022,0.441354325439817
19100.0000000026,89.8611929198041,1.00000000040612,0.461372522348196
19200.0000000011,89.6989300628893,1.00000000041764,0.478244968943561
19299.9999999996,89.5350466085609,1.00000000038124,0.486440355467864
19399.9999999982,89.3770052615261,1.00000000035609,0.487422895052144
19499.9999999967,89.2316697634605,1.00000000031559,0.485264976562531
19599.9999999953,89.100382025916,1.00000000031785,0.48496415775104
19699.9999999938,88.976308311826,1.00000000034982,0.493100575476058
19799.9999999924,88.8477897628008,1.0000000004081,0.506548626118174
19899.9999999909,88.702744587177,1.00000000044041,0.518887229327579
19999.9999999895,88.5336354480568,1.00000000045323,0.528398592159778
20099.999999988,88.3388358079422,1.00000000044905,0.5341419739917
20199.9999999865,88.1225115696399,1.00000000043299,0.537493782149513
20299.9999999851,87.8922073855375,1.00000000038622,0.540812908841715
20399.9999999836,87.6571631193971,1.00000000035099,0.538689756660476
20499.9999999822,87.424283718241,1.00000000033072,0.528023463420037
20599.9999999807,87.1974258449495,1.00000000031752,0.516799422909502
20699.9999999793,86.9782939942399,1.0000000003115,0.510801672700079
20799.9999999778,86.7648463906701,1.00000000032042,0.50630194265538
20899.9999999764,86.5530123982313,1.00000000036309,0.502401254699972
20999.9999999749,86.336470366904,1.00000000040124,0.502343688878242
21099.9999999734,86.1097179362053,1.00000000044417,0.508081385827708
21199.999999972,85.8679385292013,1.0000000004616,0.517884083109674
21299.9999999705,85.6085151104987,1.00000000051882,0.529278551845308
21399.9999999691,85.3327057687565,1.00000000051769,0.54003127782994
21499.9999999676,85.0446194397755,1.00000000046113,0.545994000896899
21599.9999999662,84.7511469368404,1.00000000043486,0.545610740402324
21699.9999999647,84.4601071178358,1.00000000039247,0.539171749567864
21799.9999999633,84.1805223183587,1.00000000034836,0.521817183388724
21899.9999999618,83.9208993417828,1.00000000028804,0.495923906901616
21999.9999999603,83.6892304760754,1.00000000026963,0.474318526240905
22099.9999999589,83.4924581406492,1.00000000025122,0.455924924982893
22199.9999999574,83.3353823426678,1.00000000023623,0.442636045236045
22299.999999956,83.220019164074,1.00000000024887,0.436187506734593
22399.9999999545,83.144038815523,1.00000000028111,0.431917054613597
22499.9999999531,83.1008942546593,1.00000000031446,0.429095647062723
22599.9999999516,83.0815175976591,1.00000000035895,0.431994155079296
22699.9999999502,83.0773771273544,1.00000000037543,0.437597045155868
22799.9999999487,83.0822133513,1.00000000036216,0.442489003772809
22899.9999999473,83.0926327884292,1.00000000037195,0.446920005875718
22999.9999999458,83.1072782481654,1.00000000035799,0.452938190447225
23099.9999999443,83.1251721666101,1.0000000003757,0.465796036848317
23199.9999999429,83.1439460871396,1.00000000038412,0.479877251522832
23299.9999999414,83.1608591406031,1.00000000038419,0.488757664232215
23399.99999994,83.1731160553794,1.00000000038628,0.496927174033415
23499.9999999385,83.1787166075939,1.00000000039629,0.507690569759438
23599.9999999371,83.1770617484172,1.00000000040127,0.519511603505349
23699.9999999356,83.1700506717409,1.00000000038309,0.527480766354524
23799.9999999342,83.1615143255327,1.00000000036342,0.529425397146007
23899.9999999327,83.1544555224603,1.00000000034816,0.529376116331662
23999.9999999312,83.149596561014,1.00000000034384,0.529901248292741
24099.9999999298,83.144412022209,1.00000000035788,0.532756973987491
24199.9999999283,83.1354362912128,1.00000000037174,0.537929107381692
24299.9999999269,83.1180491549484,1.00000000039075,0.539104875097604
24399.9999999254,83.0877792882023,1.00000000037302,0.538452267283816
24499.999999924,83.0429264008025,1.00000000038064,0.536835685329037
24599.9999999225,82.9825010108007,1.0000000003982,0.533000101526797
24699.9999999211,82.905379996432,1.00000000040451,0.52951143899709
24799.9999999196,82.8106566632773,1.00000000042225,0.525298494984703
24899.9999999181,82.6982661126877,1.00000000041178,0.524612206298383
24999.9999999167,82.5705195012102,1.00000000040936,0.532857007311515
25099.9999999152,82.4317082074709,1.00000000040607,0.538739767034794
25199.9999999138,82.2863913747113,1.00000000039281,0.540070151424244
25299.9999999123,82.1384893809431,1.00000000038477,0.539779315548191
25399.9999999109,81.9906725127006,1.00000000036312,0.539478786473604
25499.9999999094,81.8448349176457,1.00000000032948,0.538331380960489
25599.999999908,81.702535294406,1.00000000031381,0.536909445021372
25699.9999999065,81.5646041756804,1.00000000030832,0.536771884755618
25799.9999999051,81.4304512471223,1.00000000033301,0.5381985765686
25899.9999999036,81.298207908324,1.00000000032551,0.53742246619604
25999.9999999021,81.1658195839889,1.00000000034653,0.535496416171848
26099.9999999007,81.0315524064897,1.00000000035738,0.534740233655541
26199.9999998992,80.8934427073276,1.00000000038288,0.534626292872223
26299.9999998978,80.7491492158976,1.00000000040804,0.533943155493817
26399.9999998963,80.5964368298062,1.00000000041641,0.531617476490586
26499.9999998949,80.4337497565237,1.00000000044189,0.528705950255908
26599.9999998934,80.2600843268804,1.00000000049066,0.528812357256284
26699.999999892,80.0746720638785,1.0000000004975,0.532990070834396
26799.9999998905,79.8779156383001,1.00000000048878,0.537574982452413
26899.999999889,79.6724910148319,1.00000000044995,0.542964045709692
26999.9999998876,79.4629482892642,1.00000000044124,0.545343978550507
27099.9999998861,79.2549372542624,1.00000000041624,0.543987148921674
27199.9999998847,79.0543626171316,1.00000000036201,0.536050634160013
27299.9999998832,78.8675048671084,1.00000000031441,0.52121827062288
27399.9999998818,78.7003747614924,1.00000000028232,0.505649733730533
27499.9999998803,78.5584649463907,1.00000000026437,0.491176086677669
27599.9999998789,78.4462622011998,1.00000000025552,0.478397500588308
27699.9999998774,78.3672249758284,1.0000000002528,0.468796002690218
27799.9999998759,78.3230547807396,1.0000000002724,0.458523370146691
27899.9999998745,78.3135226166535,1.00000000026037,0.449239814791687
27999.999999873,78.3363078078557,1.00000000028872,0.445585142743191
28099.9999998716,78.3863201826168,1.00000000031866,0.445649145323265
28199.9999998701,78.4572563013394,1.00000000034764,0.451010507961298
28299.9999998687,78.5435713942163,1.00000000036711,0.456362324719342
28399.9999998672,78.640604326649,1.00000000037121,0.458851809880651
28499.9999998658,78.7460654878039,1.0000000003538,0.458831012875538
28599.9999998643,78.8576783621701,1.00000000036674,0.457977375501243
28699.9999998629,78.971883161541,1.0000000003851,0.462298025233548
28799.9999998614,79.0863628839982,1.00000000038254,0.470109457437891
28899.9999998599,79.2011354462586,1.00000000036592,0.477848376379555
28999.9999998585,79.3174047180584,1.00000000036353,0.48639206484978
