Time,AGPnorm,Energy,Entropy
0,0,1,-1.24332991179316e-17
99.9999999999986,2.50363117147095e-05,1.00000000000179,0.00107803175740468
199.999999999993,0.00214110784231269,1.00000000000156,0.00168234236325177
300,0.00540640767486152,1.0000000000002,0.00299911721002621
400.000000000022,0.00758502438378943,1.00000000000254,0.00507331866889764
500.000000000045,0.00922710684218949,1.00000000000022,0.0067777669522239
600.000000000068,0.0130199425356569,1.00000000000141,0.00951760273171031
700.000000000091,0.0161087875132616,1.0000000000019,0.0120906058665246
800.000000000113,0.0210186698879205,1.0000000000001,0.0149283931075666
900.000000000136,0.0262021583390354,1.0000000000024,0.0183477419391936
1000.00000000016,0.030202588034803,1.00000000000047,0.0214909083390968
1100.0000000001,0.0359991684536547,1.00000000000108,0.0253060417512996
1200,0.0423317481525699,1.0000000000022,0.0291181886852506
1299.99999999991,0.0491863781294232,1.00000000000008,0.0330720082230535
1399.99999999982,0.0560787124687404,1.00000000000212,0.0375307760150707
1499.99999999973,0.0624795934813369,1.00000000000078,0.041783952608457
1599.99999999964,0.07034251976885,1.00000000000087,0.0465667085757814
1699.99999999955,0.0787919687064226,1.00000000000239,0.0514919932756596
1799.99999999946,0.0868892082944839,1.00000000000008,0.0564900681725231
1899.99999999937,0.0950199299921832,1.0000000000018,0.0619697319389536
1999.99999999928,0.103530917446178,1.00000000000115,0.0673427775218588
2099.99999999919,0.113040751456807,1.00000000000072,0.0732170005966723
2199.99999999909,0.122601158687058,1.0000000000024,0.0793602706100962
2299.999999999,0.131412586149671,1.00000000000014,0.0855452849131655
2399.99999999891,0.140392859143179,1.00000000000156,0.0922765659270273
2499.99999999882,0.150381575725799,1.00000000000155,0.0990820999351337
2599.99999999873,0.160709491183894,1.00000000000058,0.106428224093805
2699.99999999864,0.170537412453646,1.00000000000225,0.114216046419107
2799.99999999855,0.179776086113195,1.00000000000032,0.122138339025234
2899.99999999846,0.18937142788536,1.00000000000151,0.13085072794107
2999.99999999837,0.199940641843724,1.00000000000208,0.140020878979032
3099.99999999828,0.210212891413343,1.00000000000094,0.149953814729895
3199.99999999819,0.219772907237154,1.00000000000318,0.160850769084089
3299.99999999809,0.228974854460603,1.00000000000376,0.172353441733331
3399.999999998,0.239526394161336,1.00000000000834,0.185223609250209
3499.99999999791,0.249197539068923,1.00000000001697,0.199043274343191
3599.99999999782,0.259473945752015,1.00000000002665,0.213570188485876
3699.99999999773,0.270926194183033,1.00000000004382,0.228874413771506
3799.99999999764,0.279726424262646,1.00000000006522,0.244114393183923
3899.99999999755,0.299989136321392,1.00000000009103,0.259722488056647
3999.99999999746,0.318720544256222,1.00000000012305,0.275142045850248
4099.99999999738,0.348613391083207,1.00000000015266,0.2900048708079
4199.99999999775,0.401402256071173,1.00000000019099,0.304806020102271
4299.99999999811,0.461615055761268,1.00000000023189,0.31907203904959
4399.99999999848,0.5708291298613,1.00000000026206,0.333145834379959
4499.99999999884,0.712043195370866,1.00000000030545,0.346821218829814
4599.9999999992,0.904403492213448,1.00000000033849,0.359719331514048
4699.99999999957,1.18119833118445,1.00000000037392,0.372484529542276
4799.99999999993,1.5166113696738,1.00000000042246,0.384617996058287
4900.00000000029,1.96915017655515,1.00000000044419,0.396367081349249
5000.00000000066,2.52885075730039,1.00000000047924,0.407663623255697
5100.00000000102,3.20662996659531,1.00000000051098,0.418286313994312
5200.00000000139,4.04907394687963,1.00000000054831,0.428720452300512
5300.00000000175,5.02590646654347,1.00000000058053,0.438592321407345
5400.00000000211,6.19088492754943,1.00000000060155,0.447898744525545
5500.00000000248,7.53974240447187,1.00000000063763,0.456830928000645
5600.00000000284,9.07042015968143,1.00000000064367,0.465268619578819
5700.00000000321,10.8267941450763,1.0000000006565,0.473440308312901
5800.00000000357,12.7776566027775,1.00000000066869,0.48115520998414
5900.00000000393,14.9605440563108,1.00000000069272,0.488163780514156
6000.0000000043,17.3693975515409,1.00000000071596,0.495042257357642
6100.00000000466,19.9941195087829,1.0000000007301,0.501340957383895
6200.00000000502,22.8656874241584,1.00000000073608,0.507505864897779
6300.00000000539,25.9514786222086,1.00000000073359,0.513183100825256
6400.00000000575,29.2747668556308,1.00000000075656,0.5182878615652
6500.00000000612,32.8221517920674,1.00000000076077,0.523513152238595
6600.00000000648,36.5794291824479,1.00000000077076,0.528198444266201
6700.00000000684,40.5667971166247,1.00000000076339,0.532571692254996
6800.00000000721,44.746031254855,1.00000000078159,0.536650586523388
6900.00000000757,49.1341119293678,1.0000000007912,0.540253411108128
7000.00000000793,53.7102339944708,1.00000000076551,0.544265129103306
7100.0000000083,58.4563555917787,1.00000000077437,0.547470689213491
7200.00000000866,63.3884757873128,1.00000000078351,0.550287526589308
7300.00000000903,68.4620646360938,1.00000000076135,0.553421777846646
7400.00000000939,73.6913497601062,1.0000000007854,0.555905134520202
7500.00000000975,79.054022990283,1.00000000076719,0.558573963899251
7600.00000001012,84.5262000737449,1.00000000073827,0.560750321292582
7700.00000001048,90.1259956080677,1.00000000074092,0.562792219087749
7800.00000001084,95.8051060500445,1.00000000075425,0.564995343124669
7900.00000001121,101.57449282306,1.00000000075882,0.566467457566379
8000.00000001157,107.417621596054,1.00000000074445,0.56806591228321
8100.00000001194,113.303462932707,1.00000000074255,0.569630289714721
8200.0000000123,119.254023845284,1.00000000074483,0.570691765317603
8300.00000001266,125.222126788575,1.00000000072328,0.572319962453455
8400.00000001303,131.214355985438,1.00000000071929,0.573066183123046
8500.00000001339,137.223694178214,1.00000000072172,0.57402224511448
8600.00000001376,143.213009192524,1.0000000007081,0.575195813355408
8700.00000001412,149.207663326738,1.00000000070237,0.575470421307543
8800.00000001448,155.165912607829,1.00000000070279,0.576527980095379
8900.00000001485,161.089568178751,1.00000000068699,0.57684295483141
9000.00000001521,166.980801863863,1.0000000007,0.577154544193837
9100.00000001557,172.801213317823,1.00000000068629,0.577870834941186
9200.00000001594,178.573952661519,1.00000000066942,0.577767625145587
9300.0000000163,184.269872259586,1.00000000069924,0.578197991760445
9400.00000001667,189.880777049995,1.00000000065699,0.578397477867656
9500.00000001703,195.420587342678,1.00000000066772,0.578457507398599
9600.00000001739,200.850087163046,1.00000000061498,0.578630544042824
9700.00000001776,206.192290322222,1.0000000006312,0.578829132235552
9800.00000001812,211.426662791185,1.00000000063715,0.578035633541038
9900.00000001848,216.540945759794,1.0000000006258,0.578799875409951
10000.0000000188,221.554923939749,1.00000000062487,0.578186764551699
10100.0000000192,226.43288255323,1.00000000060607,0.577915924233597
10200.0000000196,231.194115192236,1.00000000060688,0.578799566288425
10300.0000000199,235.828241665603,1.00000000059685,0.577109471985951
10400.0000000203,240.318799766031,1.00000000062164,0.578084031075348
10500.0000000207,244.690466445924,1.0000000006123,0.577628428365648
10600.000000021,248.912195293724,1.00000000057283,0.576641403250608
10700.0000000214,252.998663823703,1.00000000057203,0.57760497970494
10800.0000000218,256.949117776987,1.0000000005758,0.576156863267928
10900.0000000221,260.74492723075,1.00000000056451,0.57585899688272
11000.0000000225,264.408574591216,1.00000000056619,0.576189906787478
11100.0000000229,267.920845318481,1.0000000005454,0.575104776064488
11200.0000000232,271.286491372555,1.00000000054196,0.574790672301979
11300.0000000236,274.51243251723,1.0000000005116,0.575082064950156
11400.0000000239,277.583769370847,1.00000000053169,0.573736692339395
11500.0000000243,280.517108119771,1.00000000052531,0.573448540293728
11600.0000000247,283.300882363326,1.00000000050904,0.573664526456175
11700.000000025,285.939626860138,1.00000000051045,0.572845280512784
11800.0000000254,288.439166041351,1.00000000050759,0.572328105948233
11900.0000000258,290.788508192443,1.00000000050151,0.572471261801527
12000.0000000261,293.003502868012,1.00000000048445,0.571347857205424
12100.0000000265,295.074896200607,1.00000000048412,0.571639364300328
12200.0000000269,297.007209557533,1.00000000047747,0.571066282647937
12300.0000000272,298.808885616099,1.00000000048191,0.569500123978436
12400.0000000276,300.468317263572,1.00000000046758,0.57031528354326
12500.0000000279,302.001518170167,1.00000000046063,0.570919355646555
12600.0000000283,303.40374554921,1.00000000046839,0.569639231537909
12700.0000000287,304.675498359465,1.00000000044117,0.568470769732043
12800.000000029,305.825933918571,1.00000000043885,0.567933597190307
12900.0000000294,306.848183864886,1.00000000044174,0.570313171948886
13000.0000000298,307.757389386127,1.00000000044887,0.570215208891583
13100.0000000301,308.551154161845,1.0000000004356,0.56639781648357
13200.0000000305,309.223748634084,1.00000000040908,0.564987232996225
13300.0000000309,309.787529658745,1.00000000041665,0.568936935011766
13400.0000000312,310.243931465674,1.0000000004365,0.571676061264819
13500.0000000316,310.605714563279,1.00000000042184,0.568036032947183
13600.0000000319,310.865811851826,1.00000000039795,0.561683723232956
13700.0000000323,311.017896485616,1.0000000004054,0.561878388850414
13800.0000000327,311.078533913215,1.00000000042401,0.570186219353652
13900.000000033,311.058078729972,1.00000000045055,0.573151506088491
14000.0000000334,310.963601771701,1.00000000041268,0.564953512077453
14100.0000000338,310.783792677887,1.00000000038158,0.555478132078901
14200.0000000341,310.509029740981,1.00000000036691,0.557243855007524
14300.0000000345,310.16168999556,1.00000000043595,0.570934337567203
14400.0000000349,309.758538979221,1.0000000004601,0.573743418206676
14500.0000000352,309.303833603463,1.00000000042597,0.564194266166025
14600.0000000356,308.782621818554,1.00000000036145,0.54982698049347
14700.0000000359,308.17951179486,1.00000000035717,0.548502969862111
14800.0000000363,307.513667300535,1.00000000042348,0.565502956208648
14900.0000000367,306.809558819567,1.00000000047149,0.576207020170156
15000.000000037,306.079649558211,1.00000000046085,0.569471680946815
15100.0000000374,305.308534332728,1.00000000036769,0.548551725322977
15200.0000000378,304.472298411207,1.00000000032438,0.538079863165487
15300.0000000381,303.574089171953,1.00000000036831,0.545599466558318
15400.0000000385,302.638972428736,1.00000000047724,0.572904749274978
15500.0000000389,301.695213046669,1.00000000051806,0.578161233858081
15600.0000000392,300.743663312453,1.00000000046819,0.561061749519111
15700.0000000396,299.755722824603,1.00000000034674,0.535974430668241
15800.0000000399,298.713765195783,1.00000000031709,0.524976846834508
15900.0000000403,297.620932926137,1.00000000037151,0.540553780820795
16000.0000000407,296.509981028388,1.00000000051754,0.574102362699561
16100.000000041,295.408525132585,1.00000000055152,0.579726274295015
16200.0000000414,294.309130647869,1.00000000048709,0.558687319908118
16300.0000000418,293.192510647635,1.00000000036868,0.530799656953927
16400.0000000418,292.032625910534,1.00000000030344,0.51380176834514
16500.0000000404,290.830163661898,1.00000000032911,0.522521177322593
16600.0000000389,289.609270741397,1.00000000049127,0.55980268794312
16700.0000000375,288.397713728383,1.00000000056678,0.582444981890325
16800.000000036,287.206237773863,1.00000000054729,0.571139647130001
16900.0000000346,286.01782315474,1.00000000043537,0.539640611809321
17000.0000000331,284.808728181531,1.00000000033162,0.512781478633997
17100.0000000317,283.565554782944,1.00000000029646,0.503552772583674
17200.0000000302,282.292391577408,1.00000000037368,0.522279534000404
17300.0000000287,281.015814721325,1.00000000051064,0.561768735123723
17400.0000000273,279.756941382506,1.00000000059765,0.581523629874463
17500.0000000258,278.520022028657,1.00000000055667,0.568960786754113
17600.0000000244,277.2940376186,1.00000000045424,0.535377953165894
17700.0000000229,276.055558844254,1.00000000034476,0.506928047454915
17800.0000000215,274.795312425315,1.00000000031387,0.49844249406227
17900.00000002,273.512799161622,1.00000000034147,0.508641704020557
18000.0000000186,272.223270290085,1.00000000045846,0.541009203098385
18100.0000000171,270.946947575828,1.00000000059232,0.571850884902569
18200.0000000156,269.692734844894,1.00000000058748,0.576427075915469
18300.0000000142,268.457813335795,1.00000000052803,0.551407723859832
18400.0000000127,267.228631973883,1.00000000042637,0.517803674011596
18500.0000000113,265.990628851182,1.00000000034513,0.498049626707236
18600.0000000098,264.740016782321,1.00000000032561,0.496897359474907
18700.0000000084,263.477109775128,1.00000000036524,0.508733740152081
18800.0000000069,262.213994812779,1.00000000045253,0.533324386615055
18900.0000000055,260.962604499763,1.00000000055743,0.560010076205442
19000.000000004,259.729348016402,1.00000000056064,0.568518760687627
19100.0000000026,258.514982043855,1.00000000055232,0.552741188155318
19200.0000000011,257.31099486428,1.00000000045747,0.524565331741201
19299.9999999996,256.108390964842,1.0000000003797,0.500976155490186
19399.9999999982,254.901727450692,1.00000000033358,0.495920719934378
19499.9999999967,253.689787083954,1.00000000036363,0.503043109879772
19599.9999999953,252.477770602395,1.00000000040602,0.514735326433459
19699.9999999938,251.269914040329,1.00000000045832,0.528793364434624
19799.9999999924,250.072829577807,1.00000000050572,0.547234268228745
19899.9999999909,248.891103739104,1.00000000055851,0.555126298190162
19999.9999999895,247.723579375402,1.0000000005503,0.546137737639909
20099.999999988,246.567070702884,1.00000000046363,0.52424625687678
20199.9999999865,245.416160508084,1.00000000039972,0.506206268866215
20299.9999999851,244.267742113835,1.00000000036258,0.499945686815379
20399.9999999836,243.121844958883,1.00000000037007,0.505473894991387
20499.9999999822,241.978282457369,1.00000000038852,0.510637827695175
20599.9999999807,240.839886006207,1.00000000042536,0.51536765234902
20699.9999999793,239.708262100634,1.00000000044395,0.52358371714103
20799.9999999778,238.586220373471,1.00000000049596,0.534578203907827
20899.9999999764,237.476131175119,1.00000000051627,0.54056146825838
20999.9999999749,236.376867362986,1.00000000051305,0.5371996794199
21099.9999999734,235.287276338508,1.00000000046567,0.526596444065866
21199.999999972,234.205860373542,1.00000000042666,0.515417824291297
21299.9999999705,233.131087299739,1.00000000041124,0.509423970455576
21399.9999999691,232.063324726031,1.00000000039067,0.510671524748253
21499.9999999676,231.001422648557,1.00000000039418,0.51198267344187
21599.9999999662,229.946442835643,1.0000000004033,0.5135633897772
21699.9999999647,228.898044085467,1.00000000042558,0.513633524270265
21799.9999999633,227.857336659651,1.00000000043913,0.516009544493972
21899.9999999618,226.825637175163,1.00000000047428,0.519237313738606
21999.9999999603,225.802989646327,1.00000000048023,0.527579720008794
22099.9999999589,224.789341699554,1.00000000048312,0.533365559719893
22199.9999999574,223.784742605967,1.00000000047548,0.531568567610772
22299.999999956,222.788324305042,1.0000000004351,0.524884806132569
22399.9999999545,221.800433618676,1.00000000041794,0.519778738374321
22499.9999999531,220.820705829916,1.0000000004165,0.520480519918349
22599.9999999516,219.84988894742,1.00000000041765,0.521654175336277
22699.9999999502,218.887474429912,1.0000000004135,0.519739111090048
22799.9999999487,217.93343594764,1.00000000038387,0.512200444413401
22899.9999999473,216.987971198939,1.00000000036976,0.506055829465235
22999.9999999458,216.050911813263,1.00000000039753,0.505242576360098
23099.9999999443,215.122611069543,1.00000000044161,0.511547005639774
23199.9999999429,214.202992157344,1.00000000046707,0.518059265771562
23299.9999999414,213.291102470098,1.00000000048037,0.528276830312782
23399.99999994,212.387013385632,1.00000000045568,0.532024890757604
23499.9999999385,211.490814513647,1.00000000044608,0.531797476477002
23599.9999999371,210.602748901453,1.00000000040894,0.525408197297226
23699.9999999356,209.722874576698,1.00000000044967,0.526915576778103
23799.9999999342,208.851025498468,1.00000000043998,0.532994834694773
23899.9999999327,207.987729401259,1.00000000045277,0.532010749755556
23999.9999999312,207.133243122626,1.00000000042108,0.524175907693051
24099.9999999298,206.289053023949,1.0000000003672,0.510864694063817
24199.9999999283,205.455594396966,1.00000000034865,0.497932639436262
24299.9999999269,204.633135200185,1.00000000036071,0.492765044321144
24399.9999999254,203.820904037957,1.0000000004214,0.498888659401327
24499.999999924,203.01729785344,1.00000000046056,0.509074891446975
24599.9999999225,202.220670674549,1.0000000004889,0.517708446565581
24699.9999999211,201.430071915371,1.00000000048506,0.520851745190669
24799.9999999196,200.645503046678,1.00000000044917,0.525520323568898
24899.9999999181,199.867931479514,1.00000000042121,0.530945218049448
24999.9999999167,199.097650168582,1.00000000043182,0.528595510881791
25099.9999999152,198.334369321047,1.00000000045017,0.529199562999839
25199.9999999138,197.577056826004,1.00000000047318,0.539828481586282
25299.9999999123,196.825288066558,1.00000000048999,0.541616265634822
25399.9999999109,196.080435360513,1.00000000046107,0.532172978966095
25499.9999999094,195.344281962107,1.00000000040096,0.519238601190352
25599.999999908,194.61998020942,1.00000000035797,0.502583275040591
25699.9999999065,193.909354067463,1.00000000031672,0.489595152861919
25799.9999999051,193.212522698538,1.00000000035026,0.482594315662383
25899.9999999036,192.527729709518,1.00000000039212,0.488795400820597
25999.9999999021,191.851626510145,1.0000000004641,0.500529670123601
26099.9999999007,191.181121960443,1.00000000049514,0.51219898768363
26199.9999998992,190.514693604314,1.00000000048766,0.513017893823737
26299.9999998978,189.852028588989,1.00000000047197,0.512821536827744
26399.9999998963,189.193848616553,1.0000000004335,0.51852900468754
26499.9999998949,188.541377404,1.00000000044056,0.527024990547705
26599.9999998934,187.894182565706,1.00000000043856,0.531651043375714
26699.999999892,187.251460690781,1.00000000045803,0.530937316420043
26799.9999998905,186.61219858569,1.00000000047573,0.537531554118899
26899.999999889,185.975689241487,1.00000000049271,0.543716058490862
26999.9999998876,185.342690733312,1.00000000047294,0.536493019928663
27099.9999998861,184.716171499968,1.00000000044234,0.521217058681876
27199.9999998847,184.099526953851,1.00000000039769,0.506794535614828
27299.9999998832,183.495913697695,1.0000000003377,0.495506102578609
27399.9999998818,182.907768362845,1.00000000032687,0.486192846149177
27499.9999998803,182.334065362771,1.00000000035287,0.483198395082771
27599.9999998789,181.77308652335,1.00000000039928,0.484179557991022
27699.9999998774,181.221092691584,1.0000000004355,0.492970515601713
27799.9999998759,180.674751759258,1.00000000047223,0.50173712914926
27899.9999998745,180.131623636979,1.00000000046829,0.508653069843944
27999.999999873,179.590807905444,1.00000000049832,0.509716868286914
28099.9999998716,179.051622889537,1.00000000046002,0.50911787702693
28199.9999998701,178.514832118087,1.00000000045795,0.514377354639972
28299.9999998687,177.980716011464,1.00000000044996,0.52482675730278
28399.9999998672,177.449004178508,1.00000000046658,0.533255028083948
28499.9999998658,176.919165636501,1.00000000046685,0.534286482014934
28599.9999998643,176.391028972534,1.00000000046892,0.531607144671498
28699.9999998629,175.864785901263,1.0000000004771,0.534133387243612
28799.9999998614,175.340861920595,1.0000000004853,0.53300571188596
28899.9999998599,174.820837591329,1.00000000046983,0.527656217417863
