Time,AGPnorm,Energy,Entropy
0,0,1,-1.17525709858709e-17
99.9999999999986,4.60907531299098e-05,0.999999999996553,0.00180948822660708
199.999999999993,0.00440138118304311,0.999999999998566,0.00299578468751812
300,0.0105485161740997,0.999999999999043,0.00510346244300537
400.000000000022,0.0146776970686295,0.999999999996367,0.00875866759209997
500.000000000045,0.0178334701418444,0.999999999999839,0.0117643958205716
600.000000000068,0.0251752102795322,0.999999999997174,0.016104204391597
700.000000000091,0.0308247662422249,0.999999999997743,0.0208293435492915
800.000000000113,0.0390677061820112,0.999999999999698,0.025424485435142
900.000000000136,0.0493805616663471,0.999999999996291,0.0312211821749618
1000.00000000016,0.0571596024717721,0.999999999999271,0.0368262324532804
1100.0000000001,0.0673203416504409,0.999999999997968,0.0428923367831238
1200,0.0784974655025893,0.999999999997116,0.0498102635947242
1299.99999999991,0.0897162018887192,1,0.0565304914756641
1399.99999999982,0.10232700151317,0.999999999996551,0.0641567107946254
1499.99999999973,0.113646806878683,0.999999999998475,0.0720737602623926
1599.99999999964,0.126197174229925,0.999999999998759,0.080159363419949
1699.99999999955,0.14057511220461,0.999999999996771,0.0894094100911646
1799.99999999946,0.153665662305082,0.999999999999857,0.0987543775505073
1899.99999999937,0.166772147504286,0.999999999997116,0.108880366565452
1999.99999999928,0.179992526699824,0.999999999997786,0.119987256073207
2099.99999999919,0.193695570552328,0.999999999999493,0.131550465183795
2199.99999999909,0.208765766519739,0.999999999997062,0.144982603928234
2299.999999999,0.222163888842847,1.00000000000121,0.159535580263595
2399.99999999891,0.235305644428962,1.00000000000444,0.175772757372178
2499.99999999882,0.247886842025716,1.0000000000172,0.194577462413046
2599.99999999873,0.262966824500672,1.00000000005092,0.214512619541173
2699.99999999864,0.278125745712946,1.00000000009115,0.236103381577845
2799.99999999855,0.289613058063544,1.00000000015801,0.257798554381529
2899.99999999846,0.31834942524753,1.00000000023859,0.278870449871423
2999.99999999837,0.344751391676308,1.00000000033386,0.300299139428181
3099.99999999828,0.397502797360824,1.00000000040861,0.320629057405857
3199.99999999819,0.491659737768256,1.00000000050442,0.340380286004347
3299.99999999809,0.606973439769135,1.0000000006031,0.35977739481812
3399.999999998,0.812352015980639,1.00000000070275,0.37744604794136
3499.99999999791,1.08990367712257,1.00000000078501,0.395304435056072
3599.99999999782,1.45810458523727,1.00000000089156,0.411829165792132
3699.99999999773,1.98267236586831,1.0000000009791,0.426906402646714
3799.99999999764,2.6191816904243,1.00000000105267,0.442034321030744
3899.99999999755,3.43036352366555,1.00000000113225,0.455434507987073
3999.99999999746,4.43888804927424,1.00000000114352,0.468359952581315
4099.99999999738,5.60674406849592,1.0000000012351,0.48068672755652
4199.99999999775,7.01426775814849,1.00000000127638,0.491246307300936
4299.99999999811,8.62535764832833,1.00000000130887,0.502015269187513
4399.99999999848,10.4368015743253,1.00000000134205,0.511676691676984
4499.99999999884,12.5101577853787,1.00000000135656,0.520008220682963
4599.9999999992,14.771900073615,1.00000000133826,0.528764886821408
4699.99999999957,17.2622585693769,1.00000000137138,0.535910869254792
4799.99999999993,19.9840309230847,1.00000000144654,0.54257380749279
4900.00000000029,22.8713762674917,1.00000000142937,0.549535985678098
5000.00000000066,25.9887085799068,1.00000000139997,0.55476189033375
5100.00000000102,29.2755255051937,1.00000000140355,0.560320198251721
5200.00000000139,32.7124217561492,1.00000000146492,0.565127887973642
5300.00000000175,36.3377399562975,1.00000000146563,0.569071079871762
5400.00000000211,40.0639736969038,1.00000000141728,0.573771824403246
5500.00000000248,43.9280670163488,1.00000000144439,0.577108058343
5600.00000000284,47.906963694828,1.00000000141541,0.580255922803166
5700.00000000321,51.9405455580759,1.00000000136406,0.583647950516541
5800.00000000357,56.0771560006992,1.00000000140808,0.585552510831016
5900.00000000393,60.2453092035188,1.00000000140168,0.588180870412633
6000.0000000043,64.4468971546456,1.00000000142499,0.590111157765225
6100.00000000466,68.6917686281395,1.00000000136555,0.591619846147398
6200.00000000502,72.9090963230264,1.00000000130252,0.593939963175513
6300.00000000539,77.1383303429303,1.00000000127868,0.594797982625664
6400.00000000575,81.3370189338002,1.0000000013089,0.595792701285874
6500.00000000612,85.4832894919501,1.00000000125995,0.596967716782667
6600.00000000648,89.6041838304004,1.00000000130504,0.597065998882282
6700.00000000684,93.6372766711395,1.00000000124277,0.598531249891702
6800.00000000721,97.6078782082717,1.00000000121712,0.598617305872662
6900.00000000757,101.499528251608,1.00000000123153,0.598661160656834
7000.00000000793,105.281091806993,1.00000000117937,0.59951131355251
7100.0000000083,108.98230060536,1.00000000114788,0.599483672924078
7200.00000000866,112.559132759139,1.00000000113601,0.599721123219125
7300.00000000903,116.023893919094,1.0000000011599,0.599363190556042
7400.00000000939,119.376469076281,1.00000000114992,0.599134142342411
7500.00000000975,122.58722750938,1.00000000109425,0.599171232121663
7600.00000001012,125.682988790269,1.0000000011064,0.599131090436252
7700.00000001048,128.635981270751,1.00000000108355,0.598161370469529
7800.00000001084,131.451561920821,1.00000000109673,0.598822507365129
7900.00000001121,134.138313066342,1.00000000102625,0.597082451138684
8000.00000001157,136.673216387854,1.00000000106146,0.598495265927772
8100.00000001194,139.075897169641,1.00000000098661,0.596489223741432
8200.0000000123,141.335947066765,1.00000000097826,0.597550332659834
8300.00000001266,143.448577929589,1.00000000098219,0.59582424371173
8400.00000001303,145.432978835555,1.00000000097609,0.595967279720472
8500.00000001339,147.264967995069,1.00000000093951,0.594884272519679
8600.00000001376,148.966672102672,1.00000000091978,0.595677572939105
8700.00000001412,150.529126074894,1.00000000091,0.593463936644525
8800.00000001448,151.952458987701,1.0000000009114,0.594805168904183
8900.00000001485,153.251069371565,1.00000000089571,0.592568770217231
9000.00000001521,154.412016335443,1.00000000086949,0.593242699064337
9100.00000001557,155.44950880296,1.00000000085697,0.592865255663206
9200.00000001594,156.363915190496,1.00000000084675,0.591866422708036
9300.0000000163,157.151878341656,1.00000000084417,0.591360703547432
9400.00000001667,157.829914431894,1.00000000080551,0.593127736365326
9500.00000001703,158.390316264834,1.00000000080026,0.589167944152932
9600.00000001739,158.840025192828,1.0000000007966,0.592104410823484
9700.00000001776,159.191074579902,1.00000000080512,0.592059944866555
9800.00000001812,159.43518070744,1.00000000077962,0.586897925856303
9900.00000001848,159.587486328656,1.00000000079936,0.593877379607462
10000.0000000188,159.652084637627,1.00000000080793,0.590225109848137
10100.0000000192,159.627040917278,1.00000000074558,0.584249978751794
10200.0000000196,159.52127029632,1.00000000084515,0.592890164745887
10300.0000000199,159.344515231229,1.00000000078502,0.588384417274868
10400.0000000203,159.093960604416,1.00000000071991,0.57883785643421
10500.0000000207,158.770713764513,1.00000000086133,0.591478931665424
10600.000000021,158.397371577239,1.00000000079989,0.587860660415553
10700.0000000214,157.962983533003,1.00000000069871,0.572408524253075
10800.0000000218,157.466677063516,1.00000000081478,0.58721819367932
10900.0000000221,156.937340141339,1.00000000085212,0.587349649351838
11000.0000000225,156.36238063768,1.00000000072427,0.571145985143823
11100.0000000229,155.737201307495,1.00000000077963,0.575610498271505
11200.0000000232,155.084467303333,1.00000000084966,0.586023175999592
11300.0000000236,154.404060423781,1.0000000008029,0.576470174395312
11400.0000000239,153.688789280763,1.00000000071669,0.564225336289325
11500.0000000243,152.93862699467,1.00000000082885,0.580529403300119
11600.0000000247,152.173982318307,1.00000000087039,0.57992447486286
11700.000000025,151.393626290412,1.00000000077413,0.570723153625727
11800.0000000254,150.581812272747,1.00000000072873,0.557779926789393
11900.0000000258,149.752865295301,1.00000000086499,0.579612323394698
12000.0000000261,148.919685426931,1.00000000085733,0.575298098717644
12100.0000000265,148.076127485189,1.00000000077235,0.566551037983194
12200.0000000269,147.213401455468,1.00000000072777,0.5505149013486
12300.0000000272,146.335788198201,1.00000000086244,0.577685889700483
12400.0000000276,145.462705192167,1.00000000084871,0.570148135199273
12500.0000000279,144.586454679245,1.00000000084569,0.562843555744681
12600.0000000283,143.697638465724,1.00000000072392,0.549123204445339
12700.0000000287,142.8001172121,1.00000000082795,0.564293551711526
12800.000000029,141.906950925358,1.00000000096589,0.573609167266698
12900.0000000294,141.017763686878,1.00000000082608,0.554651997414662
13000.0000000298,140.125768223354,1.00000000077519,0.553785628227699
13100.0000000301,139.226005455525,1.00000000078069,0.550320001589835
13200.0000000305,138.329929697436,1.00000000091849,0.569011175644854
13300.0000000309,137.440229055817,1.00000000086141,0.558039707123338
13400.0000000312,136.55497917714,1.00000000083318,0.547144551461533
13500.0000000316,135.670029081061,1.00000000077303,0.551564756793834
13600.0000000319,134.784312680724,1.00000000085847,0.55528631183216
13700.0000000323,133.905823247135,1.00000000091353,0.560413402736092
13800.0000000327,133.033732265906,1.00000000083229,0.552816003593513
13900.000000033,132.167181706079,1.00000000082599,0.539125537774389
14000.0000000334,131.30491499349,1.00000000082595,0.549513512685253
14100.0000000338,130.445689099968,1.00000000084434,0.557784235005325
14200.0000000341,129.594259172228,1.00000000088992,0.554622079362128
14300.0000000345,128.749692356973,1.00000000088043,0.549928007895643
14400.0000000349,127.91118729463,1.00000000082732,0.538145174417763
14500.0000000352,127.079470167346,1.00000000083813,0.53988449964927
14600.0000000356,126.253108346906,1.00000000080985,0.553239710193752
14700.0000000359,125.434586506479,1.00000000089706,0.559385354242878
14800.0000000363,124.623595506299,1.00000000083951,0.548370500554577
14900.0000000367,123.819721036307,1.00000000082639,0.540721857799511
15000.000000037,123.022907622761,1.00000000082795,0.537577160731348
15100.0000000374,122.232588194997,1.00000000083722,0.538019159741076
15200.0000000378,121.45063239414,1.0000000008491,0.551799888010633
15300.0000000381,120.676133053808,1.00000000085898,0.560170685727177
15400.0000000385,119.909763186436,1.00000000084376,0.549649289987953
15500.0000000389,119.151428866347,1.00000000082547,0.535475567738941
15600.0000000392,118.399954159072,1.00000000079498,0.53885820678729
15700.0000000396,117.656394794314,1.00000000081081,0.539642085415623
15800.0000000399,116.920891986686,1.00000000082096,0.540415478625916
15900.0000000403,116.193584488895,1.00000000088095,0.55678848274437
16000.0000000407,115.474905240909,1.00000000083366,0.557129482146742
16100.000000041,114.76394824858,1.00000000077999,0.545478509046938
16200.0000000414,114.061232349882,1.00000000082916,0.538873566059856
16300.0000000418,113.366825577073,1.00000000078589,0.536545954718454
16400.0000000418,112.680447693941,1.00000000078975,0.544867188404675
16500.0000000404,112.002591932002,1.00000000082446,0.545430371729571
16600.0000000389,111.332795324911,1.00000000087212,0.549912924697874
16700.0000000375,110.671679552367,1.00000000083972,0.556415134167897
16800.000000036,110.019066278927,1.0000000007814,0.548910096371798
16900.0000000346,109.3746911138,1.00000000079241,0.543494044745065
17000.0000000331,108.739036798725,1.00000000079639,0.535521323889234
17100.0000000317,108.112271857106,1.00000000077627,0.537676851067265
17200.0000000302,107.493629853169,1.00000000085437,0.551258925942586
17300.0000000287,106.882801011166,1.00000000082074,0.552276790147562
17400.0000000273,106.279974333996,1.00000000081173,0.546657158033861
17500.0000000258,105.685248931786,1.00000000083948,0.553028919303165
17600.0000000244,105.099348317267,1.00000000077263,0.548963468135972
17700.0000000229,104.522706474431,1.00000000075232,0.539029087150024
17800.0000000215,103.954826395018,1.00000000083666,0.537062460970714
17900.00000002,103.395318458389,1.00000000078958,0.537634262567358
18000.0000000186,102.843973232102,1.00000000078776,0.540699715812818
18100.0000000171,102.299538033567,1.00000000086712,0.552073748610373
18200.0000000156,101.761532332217,1.00000000082892,0.556017997761289
18300.0000000142,101.230737604774,1.00000000085822,0.549004572665516
18400.0000000127,100.707580075918,1.00000000079001,0.547261735096478
18500.0000000113,100.19380873749,1.00000000077049,0.545248405640836
18600.0000000098,99.6898528140241,1.00000000076947,0.537222534220046
18700.0000000084,99.1949030835511,1.00000000077737,0.53453612199148
18800.0000000069,98.7076849033516,1.0000000008638,0.537209261563487
18900.0000000055,98.2272245318668,1.00000000082623,0.537930658458204
19000.000000004,97.7537400747677,1.00000000083007,0.538747631286546
19100.0000000026,97.2849357100937,1.00000000094811,0.555825305424381
19200.0000000011,96.81988774833,1.00000000088289,0.5632133984829
19299.9999999996,96.3609889586239,1.00000000082783,0.546072725413673
19399.9999999982,95.9103578337829,1.00000000081422,0.542700383380374
19499.9999999967,95.469094844577,1.00000000077796,0.539569957791335
19599.9999999953,95.0381307518903,1.00000000079101,0.538091604982523
19699.9999999938,94.6160512689247,1.00000000079665,0.536808882613685
19799.9999999924,94.2010033767155,1.00000000085109,0.533988833207931
19899.9999999909,93.7918005104054,1.00000000087338,0.534430167696663
19999.9999999895,93.3884005377059,1.00000000082351,0.534724388858037
20099.999999988,92.9898065152806,1.00000000090717,0.541042706296772
20199.9999999865,92.5923369232122,1.00000000093996,0.555820548060076
20299.9999999851,92.1969899103386,1.00000000090745,0.560456326995171
20399.9999999836,91.8071088402211,1.00000000082309,0.546641957279033
20499.9999999822,91.42484717272,1.00000000080187,0.539122996488081
20599.9999999807,91.0523066200006,1.00000000076149,0.539142734055413
20699.9999999793,90.6897323818422,1.00000000082639,0.539306496345332
20799.9999999778,90.3349275523413,1.00000000086129,0.54329624497273
20899.9999999764,89.9873115418467,1.00000000079367,0.537572682011973
20999.9999999749,89.6457898037707,1.00000000081435,0.532282996837223
21099.9999999734,89.3097206953974,1.00000000079595,0.532744694197259
21199.999999972,88.9779125697826,1.00000000084224,0.538330367726333
21299.9999999705,88.6481472632122,1.00000000089656,0.540194780997742
21399.9999999691,88.3182298790996,1.00000000099063,0.546525939344292
21499.9999999676,87.9880603529582,1.00000000091433,0.556257285214908
21599.9999999662,87.6618745537653,1.00000000083457,0.551037634777565
21699.9999999647,87.3422943880376,1.0000000007868,0.541200264609307
21799.9999999633,87.0304919446585,1.00000000080057,0.539996898335794
21899.9999999618,86.7271741295972,1.00000000081044,0.544783608515942
21999.9999999603,86.4319337963518,1.00000000080616,0.545882819756629
22099.9999999589,86.1442825193043,1.00000000081012,0.543186806914235
22199.9999999574,85.8629013570677,1.00000000085746,0.546102446366715
22299.999999956,85.5867185991436,1.00000000083847,0.540300665334064
22399.9999999545,85.3161994457417,1.00000000082893,0.539643043475025
22499.9999999531,85.0493957283515,1.00000000082163,0.53942762313931
22599.9999999516,84.7855104750524,1.00000000082456,0.541952552965496
22699.9999999502,84.522170649567,1.00000000089391,0.544536326039325
22799.9999999487,84.257782812932,1.00000000092424,0.544171187971257
22899.9999999473,83.9934405476072,1.00000000089252,0.552092028879984
22999.9999999458,83.7309209937653,1.00000000082107,0.561854068438981
23099.9999999443,83.4732633302011,1.0000000008299,0.554394770737984
23199.9999999429,83.2225243872191,1.00000000079334,0.548564112627441
23299.9999999414,82.9790924608993,1.00000000080503,0.549072171591243
23399.99999994,82.7437447701204,1.00000000078216,0.550705089647487
23499.9999999385,82.5162286553469,1.00000000081013,0.551412364752084
23599.9999999371,82.295328810792,1.00000000080683,0.550079750032943
23699.9999999356,82.0796357371421,1.00000000085889,0.554504602857428
23799.9999999342,81.8673592455929,1.00000000087272,0.55231068521227
23899.9999999327,81.658761995442,1.00000000083847,0.549098023873862
23999.9999999312,81.4541515057567,1.00000000079974,0.54622048442924
24099.9999999298,81.2535729299921,1.00000000084103,0.545932502452269
24199.9999999283,81.0560591142455,1.00000000082494,0.548945922445675
24299.9999999269,80.8583607706162,1.00000000090471,0.547320454059255
24399.9999999254,80.6591774949228,1.00000000091986,0.548019543264098
24499.999999924,80.4573469586453,1.0000000008883,0.557221408961328
24599.9999999225,80.255494555273,1.0000000008715,0.564606377054117
24699.9999999211,80.0559757971899,1.00000000085646,0.5647416967442
24799.9999999196,79.8609756694843,1.00000000080804,0.557609706567688
24899.9999999181,79.6727139605548,1.00000000080822,0.552206978716244
24999.9999999167,79.4921821494876,1.00000000080579,0.551387401995045
25099.9999999152,79.3185508726404,1.00000000080623,0.55417077198796
25199.9999999138,79.1522745880123,1.00000000078739,0.553893179010197
25299.9999999123,78.991145182476,1.00000000083271,0.557513914475628
25399.9999999109,78.8332935989386,1.00000000087538,0.559693617741996
25499.9999999094,78.676607910782,1.00000000088187,0.560898065404903
25599.999999908,78.5217290462283,1.00000000083023,0.552201884853327
25699.9999999065,78.3715428763647,1.00000000080477,0.551109512623381
25799.9999999051,78.2249031270913,1.0000000007875,0.551818586389155
25899.9999999036,78.0813445875659,1.00000000084243,0.554290545735194
25999.9999999021,77.9392645775586,1.0000000008808,0.559000663259923
26099.9999999007,77.7968247992282,1.00000000088977,0.556089634740669
26199.9999998992,77.6526752446082,1.00000000086443,0.554968447347378
26299.9999998978,77.5049452222722,1.00000000089553,0.560016429680152
26399.9999998963,77.3550733526437,1.00000000085691,0.566156945312074
26499.9999998949,77.2039330643144,1.00000000093229,0.57521863461423
26599.9999998934,77.0544512642567,1.00000000084855,0.572663949691042
26699.999999892,76.9097484434044,1.00000000081108,0.563645231670545
26799.9999998905,76.7708150598114,1.00000000080806,0.558222602791835
26899.999999889,76.639036141879,1.00000000082012,0.552539620720763
26999.9999998876,76.5136332202911,1.00000000083926,0.55680486781105
27099.9999998861,76.3925716016604,1.00000000082407,0.558412802339942
27199.9999998847,76.2762699376954,1.00000000084492,0.562511566428877
27299.9999998832,76.1626297213294,1.0000000008488,0.565580785840001
27399.9999998818,76.0508253134743,1.00000000088827,0.562726942177113
27499.9999998803,75.9411965387221,1.00000000084766,0.561379843968521
27599.9999998789,75.8330941224282,1.00000000086294,0.558160273416384
27699.9999998774,75.72818801382,1.00000000082747,0.555607710667857
27799.9999998759,75.6258014386874,1.00000000083149,0.560658405421652
27899.9999998745,75.5248017427713,1.0000000008939,0.563113823424516
27999.999999873,75.4234853647382,1.00000000086826,0.56654616933922
28099.9999998716,75.3214958680233,1.00000000084515,0.571524353164312
28199.9999998701,75.2194175983336,1.00000000087328,0.568169270703828
28299.9999998687,75.1159389105022,1.00000000088979,0.564628633994428
28399.9999998672,75.0101912285002,1.00000000091181,0.568479424578968
28499.9999998658,74.9020046531006,1.00000000094714,0.57246472522662
28599.9999998643,74.792202274917,1.00000000087979,0.571153342993313
28699.9999998629,74.6830458055753,1.00000000086236,0.570961310440971
28799.9999998614,74.576030277671,1.00000000083869,0.57432547382873
28899.9999998599,74.4735738632052,1.00000000077493,0.571983279197043
28999.9999998585,74.3761168885711,1.00000000081207,0.568142694714983
