Time,AGPnorm,Energy,Entropy
0,0,1,-7.10703051489234e-17
99.9999999999986,0.00044724168786794,0.999999999998899,0.00173000718924132
199.999999999993,0.00308660607345091,0.999999999997435,0.00515745502349569
300,0.0064268620799723,0.999999999998131,0.00956164812205666
400.000000000022,0.00976579499819084,0.999999999999854,0.0151450036956904
500.000000000045,0.0139084112658085,0.999999999999449,0.0219781547582828
600.000000000068,0.0195646038021562,0.999999999997848,0.0297725044692288
700.000000000091,0.0258164758945844,0.999999999997633,0.0381818267034682
800.000000000113,0.0321642374158838,0.999999999999293,0.0473584577588723
900.000000000136,0.039536152510037,0.999999999999926,0.0575697437562179
1000.00000000016,0.0470199576930772,0.999999999998285,0.0686468848938938
1100.0000000001,0.055936449973205,0.999999999997651,0.0805552130026365
1200,0.0640474532712141,0.999999999998459,0.093309245011313
1299.99999999991,0.0730693161292892,1.00000000000016,0.107311288430281
1399.99999999982,0.0816984916997349,0.999999999999009,0.122747847463161
1499.99999999973,0.0914095905282769,0.999999999998127,0.139554875006241
1599.99999999964,0.100717952127329,0.999999999999221,0.158284019190805
1699.99999999955,0.110016702647552,1.0000000000033,0.179229895989447
1799.99999999946,0.119273290557144,1.0000000000095,0.203337373010111
1899.99999999937,0.12791375808398,1.00000000002378,0.229994639175167
1999.99999999928,0.14306745652896,1.00000000004988,0.258748398643701
2099.99999999919,0.16900764604652,1.00000000009655,0.288189668524354
2199.99999999909,0.211618478895198,1.00000000014095,0.317470179043005
2299.999999999,0.290050237430799,1.00000000020757,0.345187955197633
2399.99999999891,0.453109622713513,1.00000000026927,0.370551033429406
2499.99999999882,0.745379369260845,1.00000000032673,0.393680659139739
2599.99999999873,1.19632123088241,1.00000000036626,0.414453310897901
2699.99999999864,1.86072601656075,1.00000000044128,0.433331107616958
2799.99999999855,2.81686681801133,1.00000000048151,0.449897594958215
2899.99999999846,4.12039043066052,1.00000000051661,0.464548545733064
2999.99999999837,5.79002134971441,1.00000000056857,0.477456139822483
3099.99999999828,7.85643072883129,1.00000000061008,0.48914870940903
3199.99999999819,10.3739787904013,1.0000000006145,0.499202023956842
3299.99999999809,13.3577970096575,1.00000000066023,0.507638505120421
3399.999999998,16.7855167707461,1.00000000063108,0.515257503245558
3499.99999999791,20.6366206997216,1.00000000069102,0.521911010799999
3599.99999999782,24.9244531245186,1.00000000066397,0.527734863470974
3699.99999999773,29.6290714402172,1.00000000065294,0.532176420685383
3799.99999999764,34.6922999737826,1.00000000069655,0.535559902355997
3899.99999999755,40.0640635554553,1.00000000066723,0.539468554580628
3999.99999999746,45.7171882224242,1.00000000068757,0.542437527901229
4099.99999999738,51.6285597336428,1.00000000069675,0.543538787949312
4199.99999999775,57.7297664416332,1.00000000064787,0.544876638541791
4299.99999999811,63.9528816033196,1.00000000065782,0.54700604935102
4399.99999999848,70.2643547691912,1.000000000662,0.547133823753954
4499.99999999884,76.6442761900675,1.0000000006209,0.547255778262875
4599.9999999992,83.0377188091372,1.00000000059723,0.547553642182997
4699.99999999957,89.3834796272925,1.00000000064431,0.546600590768614
4799.99999999993,95.6474386380667,1.00000000062941,0.546807514357823
4900.00000000029,101.809800260237,1.00000000059201,0.545541681550327
5000.00000000066,107.844960864037,1.00000000058122,0.544343434635391
5100.00000000102,113.709659976921,1.00000000054336,0.544101621807543
5200.00000000139,119.369998713045,1.00000000058973,0.542224440874668
5300.00000000175,124.817105760059,1.00000000058015,0.540705909645445
5400.00000000211,130.043838843295,1.00000000054586,0.539841588156602
5500.00000000248,135.028713814532,1.00000000052064,0.538208578098269
5600.00000000284,139.745517372763,1.00000000054117,0.536472574229357
5700.00000000321,144.188714941606,1.00000000049163,0.535763034051476
5800.00000000357,148.358714495985,1.00000000051587,0.53458312487868
5900.00000000393,152.251433064973,1.00000000046943,0.531735800580098
6000.0000000043,155.853174179416,1.00000000046391,0.530220318604928
6100.00000000466,159.160513233734,1.00000000047541,0.530918985063853
6200.00000000502,162.18070722201,1.00000000045638,0.530428083591813
6300.00000000539,164.918393468152,1.00000000046215,0.524965873465566
6400.00000000575,167.370436208081,1.00000000043545,0.521922988401429
6500.00000000612,169.539954207988,1.00000000044788,0.526329445933033
6600.00000000648,171.445552420783,1.00000000039699,0.529859926985411
6700.00000000684,173.097261022102,1.00000000041295,0.522246949352964
6800.00000000721,174.48456621013,1.00000000038483,0.510775334452029
6900.00000000757,175.604938063523,1.000000000356,0.515274997349548
7000.00000000793,176.494302498306,1.00000000040105,0.530876640678746
7100.0000000083,177.197491598267,1.00000000040399,0.534789534533138
7200.00000000866,177.71204171707,1.00000000038542,0.51646118175323
7300.00000000903,177.997691208901,1.00000000031173,0.493849229145822
7400.00000000939,178.043985852194,1.00000000034555,0.50244331066803
7500.00000000975,177.91650784333,1.0000000004041,0.532491564415958
7600.00000001012,177.695944867007,1.00000000046121,0.547445920270741
7700.00000001048,177.394937337187,1.00000000041013,0.530141339323793
7800.00000001084,176.9505399803,1.0000000002963,0.487580912116827
7900.00000001121,176.300652300585,1.00000000022111,0.466787634852148
8000.00000001157,175.476558542997,1.0000000003056,0.499235132994103
8100.00000001194,174.581315770371,1.00000000046546,0.541959049203909
8200.0000000123,173.692843809298,1.00000000050209,0.558248520269179
8300.00000001266,172.811610836553,1.00000000044478,0.536722262724686
8400.00000001303,171.863670359313,1.00000000029877,0.480967429742335
8500.00000001339,170.769542442327,1.00000000019658,0.43255709019864
8600.00000001376,169.530486294325,1.00000000023035,0.450130136358789
8700.00000001412,168.22637824061,1.0000000003848,0.512015546450772
8800.00000001448,166.943260634086,1.00000000051569,0.552548235389098
8900.00000001485,165.725150959153,1.00000000057714,0.560607803080726
9000.00000001521,164.555972520677,1.00000000050514,0.536263525847164
9100.00000001557,163.370115593713,1.00000000033834,0.470897860509253
9200.00000001594,162.097504044439,1.00000000019117,0.399847682789175
9300.0000000163,160.71931659557,1.00000000017197,0.3948247475446
9400.00000001667,159.282620460414,1.00000000032151,0.459117627827324
9500.00000001703,157.854302271609,1.0000000004917,0.521504654029452
9600.00000001739,156.480861078623,1.00000000058539,0.550861987522203
9700.00000001776,155.180146800188,1.0000000005669,0.555328177207894
9800.00000001812,153.936962574057,1.00000000049255,0.534647091864424
9900.00000001848,152.708742151212,1.00000000037278,0.478556009302146
10000.0000000188,151.446714190491,1.00000000024421,0.400448089360869
10100.0000000192,150.12722473291,1.00000000016076,0.354579260038189
10200.0000000196,148.764192003505,1.00000000020357,0.379338254372757
10300.0000000199,147.39090728945,1.00000000035879,0.448979607852699
10400.0000000203,146.038363696238,1.00000000047661,0.508041738023307
10500.0000000207,144.726750309985,1.00000000053587,0.535526252641417
10600.000000021,143.466840780904,1.00000000057848,0.544261484796397
10700.0000000214,142.257162923723,1.00000000054279,0.539617904060642
10800.0000000218,141.082035139081,1.0000000004744,0.51345909875959
10900.0000000221,139.917235404839,1.00000000036526,0.463849821464869
11000.0000000225,138.742398097614,1.00000000026937,0.401851902644377
11100.0000000229,137.552032104141,1.00000000019419,0.357845777198801
11200.0000000232,136.354881652877,1.00000000020787,0.361407291787403
11300.0000000236,135.164841038992,1.0000000002823,0.40073308285723
11400.0000000239,133.990660520044,1.00000000037393,0.458421080566062
11500.0000000243,132.834944497845,1.00000000045142,0.501859114928745
11600.0000000247,131.699839744797,1.00000000051176,0.517830001413842
11700.000000025,130.589291921461,1.00000000059486,0.523006790943904
11800.0000000254,129.506091305075,1.00000000054138,0.5305874270364
11900.0000000258,128.448774986699,1.0000000004875,0.53086202715794
12000.0000000261,127.410940739382,1.0000000004127,0.507084098830088
12100.0000000265,126.384378566547,1.00000000033243,0.463258441871375
12200.0000000269,125.365734166189,1.00000000028763,0.417833103948387
12300.0000000272,124.35942142058,1.00000000026063,0.386114170804796
12400.0000000276,123.373558901238,1.00000000025734,0.375373344471897
12500.0000000279,122.413680387544,1.00000000027794,0.394002020312107
12600.0000000283,121.479014415749,1.00000000031865,0.423294412010993
12700.0000000287,120.564341417844,1.00000000036861,0.455261107581803
12800.000000029,119.663556043865,1.00000000040106,0.487799976539832
12900.0000000294,118.773186673864,1.0000000003952,0.50419043779236
13000.0000000298,117.892533224389,1.00000000040051,0.499219755852045
13100.0000000301,117.020377814811,1.00000000045304,0.497412474814913
13200.0000000305,116.154403607881,1.00000000050689,0.510447148613065
13300.0000000309,115.294404929957,1.00000000051532,0.530575953608954
13400.0000000312,114.443046031114,1.00000000051906,0.536173535690148
13500.0000000316,113.603478826723,1.00000000041767,0.515832367156428
13600.0000000319,112.779276076796,1.0000000003206,0.473556484942976
13700.0000000323,111.976981036094,1.00000000023916,0.428078860065941
13800.0000000327,111.205225928349,1.00000000022101,0.395778162330759
13900.000000033,110.469034855527,1.00000000026236,0.385244463204611
14000.0000000334,109.766333295523,1.00000000031474,0.391905023164102
14100.0000000338,109.091808726002,1.00000000035355,0.41432106183473
14200.0000000341,108.439206826801,1.00000000038198,0.444191318096759
14300.0000000345,107.801073800195,1.00000000041047,0.464862097014149
14400.0000000349,107.17055260268,1.00000000044124,0.480223628087511
14500.0000000352,106.544084734546,1.00000000042742,0.491856103023555
14600.0000000356,105.922886208348,1.00000000035928,0.497338342321941
14700.0000000359,105.311808200053,1.00000000032266,0.492050310920513
14800.0000000363,104.712391079986,1.00000000032482,0.482360434415468
14900.0000000367,104.118657376015,1.00000000041079,0.481698797944424
15000.000000037,103.519848533385,1.00000000046465,0.495257055486875
15100.0000000374,102.90893947868,1.00000000053921,0.513626652556342
15200.0000000378,102.286816452784,1.000000000537,0.530372526517422
15300.0000000381,101.660118747036,1.00000000047565,0.535828208172873
15400.0000000385,101.036956731316,1.00000000043433,0.522013290217743
15500.0000000389,100.425513503222,1.00000000035314,0.493016010577147
15600.0000000392,99.8356365808465,1.00000000029457,0.455637816686222
15700.0000000396,99.2784964526714,1.00000000024077,0.424122548897715
15800.0000000399,98.7640501010614,1.00000000020628,0.401535088693875
15900.0000000403,98.2947652184734,1.00000000026231,0.391364584589645
16000.0000000407,97.8645121039176,1.00000000032069,0.397074921354023
16100.000000041,97.4609676537597,1.00000000037171,0.417963855154906
16200.0000000414,97.0736830989402,1.00000000039261,0.440299144535109
16300.0000000418,96.6952082379575,1.00000000038723,0.458189029804036
16400.0000000418,96.3217387089226,1.00000000040543,0.473173495943731
16500.0000000404,95.9496582617802,1.00000000041916,0.481911645289687
16600.0000000389,95.5766092642941,1.00000000041413,0.489941456933209
16700.0000000375,95.2003100721071,1.00000000042349,0.500536896793888
16800.000000036,94.8206678325912,1.00000000039457,0.509467420848268
16900.0000000346,94.439759135528,1.0000000003573,0.513602063841258
17000.0000000331,94.0623711223071,1.00000000034331,0.514674918428662
17100.0000000317,93.6919149718306,1.00000000032835,0.509806743425808
17200.0000000302,93.3269710412574,1.00000000034516,0.503762735398107
17300.0000000287,92.962293927592,1.00000000038266,0.498137807382421
17400.0000000273,92.5911765373447,1.00000000039447,0.491409101922101
17500.0000000258,92.2088396033305,1.00000000045466,0.495693934131304
17600.0000000244,91.8124002762727,1.00000000049733,0.507095544459575
17700.0000000229,91.4014924306416,1.00000000052744,0.524629262193389
17800.0000000215,90.978975368558,1.00000000051549,0.538008235255702
17900.00000002,90.5513342386524,1.0000000004618,0.538810121173042
18000.0000000186,90.1271226505966,1.00000000039795,0.524272464636727
18100.0000000171,89.7172533407716,1.00000000033777,0.498822874611625
18200.0000000156,89.3339167229015,1.00000000026945,0.467392795599046
18300.0000000142,88.9863544521157,1.00000000025121,0.440872161485344
18400.0000000127,88.680144375544,1.00000000026936,0.426891652440336
18500.0000000113,88.4160294116918,1.00000000025863,0.42025625188652
18600.0000000098,88.1916384747461,1.00000000028759,0.419501735661547
18700.0000000084,88.0006102475384,1.00000000032359,0.422075111798175
18800.0000000069,87.8338198152179,1.00000000033958,0.426530794896201
18900.0000000055,87.6799244917784,1.00000000039101,0.44228400056442
19000.000000004,87.5272658601874,1.00000000044434,0.46417571170289
19100.0000000026,87.3710179969918,1.00000000040631,0.480330132057761
19200.0000000011,87.213483169395,1.00000000040147,0.487880338269958
19299.9999999996,87.0613112121335,1.00000000034512,0.488542147087044
19399.9999999982,86.9211802017755,1.00000000032125,0.48584491083986
19499.9999999967,86.7948334337015,1.00000000032972,0.486344776672464
19599.9999999953,86.6754707441101,1.00000000037649,0.494592019874846
19699.9999999938,86.5512488628312,1.00000000041864,0.507463660790395
19799.9999999924,86.4106215186715,1.00000000047122,0.518809626905102
19899.9999999909,86.2458347458296,1.00000000049808,0.527555070267824
19999.9999999895,86.0556576635801,1.00000000047599,0.532530479310103
20099.999999988,85.8446247840758,1.00000000043317,0.536475512939393
20199.9999999865,85.6209140231097,1.00000000041047,0.540241298910924
20299.9999999851,85.3922647458059,1.00000000036256,0.537928541690148
20399.9999999836,85.1655879075024,1.00000000033198,0.528104190865316
20499.9999999822,84.9453310887654,1.0000000003215,0.517052157304003
20599.9999999807,84.7323422409166,1.00000000031785,0.510359354127487
20699.9999999793,84.5250431521409,1.00000000034038,0.507171701026888
20799.9999999778,84.318461115189,1.00000000037932,0.503122228269589
20899.9999999764,84.106756480517,1.0000000004125,0.502996196146964
20999.9999999749,83.8842818542281,1.0000000004212,0.508975739983234
21099.9999999734,83.647460609181,1.00000000047117,0.51823908348059
21199.999999972,83.3939515570958,1.0000000005086,0.52791180223424
21299.9999999705,83.1245864750034,1.00000000049123,0.538223846428967
21399.9999999691,82.8443145314511,1.0000000004981,0.545468875512102
21499.9999999676,82.5600494110583,1.00000000046279,0.544153057776471
21599.9999999662,82.2798373657402,1.00000000039153,0.534585010340431
21699.9999999647,82.0121365114424,1.00000000032176,0.5162728990819
21799.9999999633,81.7660299809685,1.00000000030545,0.491172352171283
21899.9999999618,81.5495232635548,1.00000000026164,0.471987409818436
21999.9999999603,81.3688013299823,1.00000000026822,0.454442703194392
22099.9999999589,81.2278437745443,1.00000000024642,0.442006472396878
22199.9999999574,81.1275124428351,1.00000000026346,0.437422822802719
22299.999999956,81.064797801508,1.00000000028492,0.4340811023021
22399.9999999545,81.0331041154988,1.00000000030975,0.433252552615656
22499.9999999531,81.0227419084908,1.00000000036452,0.435204218905922
22599.9999999516,81.0242156256339,1.00000000039749,0.441441950603526
22699.9999999502,81.0321986048315,1.00000000040393,0.448605827907878
22799.9999999487,81.0445450800677,1.00000000037325,0.451633925212342
22899.9999999473,81.0611185940529,1.00000000037375,0.45695095765373
22999.9999999458,81.0811100062966,1.00000000035859,0.468174335573543
23099.9999999443,81.1021245013842,1.00000000038386,0.482530208765764
23199.9999999429,81.1214010451882,1.00000000039861,0.492858199775749
23299.9999999414,81.1361087918838,1.00000000039823,0.501966512089207
23399.99999994,81.1433540504905,1.00000000040844,0.512691834884132
23499.9999999385,81.142481260984,1.00000000041989,0.524555138839458
23599.9999999371,81.1359726705129,1.00000000039288,0.531162843845261
23699.9999999356,81.1278396366173,1.00000000036468,0.532418825714472
23799.9999999342,81.1211349814131,1.00000000036589,0.531215117519517
23899.9999999327,81.1154912734137,1.00000000038233,0.531441439156594
23999.9999999312,81.1088346111713,1.0000000003741,0.53555075762179
24099.9999999298,81.0975110083356,1.00000000038435,0.539221654194259
24199.9999999283,81.0779034472815,1.00000000037761,0.540391448835342
24299.9999999269,81.0467194307553,1.00000000038394,0.538988225836752
24399.9999999254,81.0016236711463,1.00000000038541,0.536661910150145
24499.999999924,80.9413637953288,1.00000000042553,0.533753978343994
24599.9999999225,80.8645219130055,1.00000000039224,0.530980991813952
24699.9999999211,80.770105637367,1.00000000040849,0.526128055401707
24799.9999999196,80.6589989211733,1.00000000042705,0.526997535946916
24899.9999999181,80.5338924620597,1.00000000042668,0.534852960577563
24999.9999999167,80.3989510490203,1.00000000039748,0.541208052229822
25099.9999999152,80.2586170985147,1.00000000038801,0.542974439923679
25199.9999999138,80.1158635655892,1.00000000037843,0.543241330558778
25299.9999999123,79.9726889325026,1.00000000036193,0.543249087896228
25399.9999999109,79.8309354927632,1.00000000034769,0.542057093037055
25499.9999999094,79.692564102069,1.0000000003195,0.540130316163756
25599.999999908,79.5587897910095,1.00000000032401,0.540743617201022
25699.9999999065,79.4287106110038,1.00000000033512,0.541196841195293
25799.9999999051,79.2999159809936,1.00000000033949,0.540180632180553
25899.9999999036,79.1704344109036,1.00000000035389,0.538233671216504
25999.9999999021,79.0384635664512,1.00000000037211,0.538296676715128
26099.9999999007,78.9022136116457,1.00000000039543,0.538171969586761
26199.9999998992,78.7593568532043,1.00000000042868,0.536668424702809
26299.9999998978,78.6075097757415,1.00000000042923,0.533532694117224
26399.9999998963,78.4456245849459,1.00000000047703,0.530837111462819
26499.9999998949,78.2731519630086,1.00000000047593,0.530815868823561
26599.9999998934,78.0895625515066,1.00000000050508,0.534238623506677
26699.999999892,77.8958677862604,1.00000000047878,0.539666781219563
26799.9999998905,77.6955186537086,1.00000000048149,0.545160159834361
26899.999999889,77.4937429652728,1.00000000043296,0.545566216316096
26999.9999998876,77.2962504112774,1.00000000038316,0.540479456792638
27099.9999998861,77.1091157023975,1.00000000031803,0.528816017298082
27199.9999998847,76.938398267646,1.00000000029703,0.513668516944352
27299.9999998832,76.7899847236889,1.00000000028108,0.50014952015932
27399.9999998818,76.6690129815982,1.00000000028252,0.487421801781274
27499.9999998803,76.5795490240874,1.00000000027226,0.475518513400174
27599.9999998789,76.5238285922522,1.00000000027498,0.466219697659858
27699.9999998774,76.5022576205588,1.00000000027089,0.456843780517597
27799.9999998759,76.5139067173312,1.00000000029629,0.450055800721325
27899.9999998745,76.5551549817833,1.0000000003124,0.449069454768759
27999.999999873,76.6199984076889,1.00000000034339,0.451268562368814
28099.9999998716,76.7018051386623,1.00000000037354,0.458078639371904
28199.9999998701,76.7948271427921,1.00000000036327,0.462900263374355
28299.9999998687,76.8960118460276,1.00000000036907,0.46367843318525
28399.9999998672,77.0041144439344,1.00000000037102,0.46229672999048
28499.9999998658,77.1174966280315,1.00000000038492,0.463796913362753
28599.9999998643,77.232879481303,1.00000000038481,0.468794394440468
28699.9999998629,77.3481717103484,1.00000000038332,0.47684274262239
28799.9999998614,77.4640399761487,1.0000000003731,0.485735397454943
28899.9999998599,77.581508439563,1.00000000037998,0.493972156220577
28999.9999998585,77.699893473764,1.00000000037033,0.500976295024923
