Time,AGPnorm,Energy,Entropy
0,0,1,-7.43423765063915e-17
99.9999999999986,0.00162640046413472,0.999999999997754,0.00517053092578244
199.999999999993,0.0113570561854617,0.999999999996354,0.0149347286287018
300,0.0228699645843215,0.99999999999842,0.0274724107712198
400.000000000022,0.0334269953944176,1.00000000000037,0.043630273132366
500.000000000045,0.0473255366714692,0.999999999998455,0.0633446969485382
600.000000000068,0.0648845801287173,0.999999999996337,0.0860290391385987
700.000000000091,0.0821640444589559,0.999999999997721,0.112160831807675
800.000000000113,0.0983087433064858,1.00000000000066,0.143487880129055
900.000000000136,0.115514495356745,1.00000000000932,0.183058639654785
1000.00000000016,0.131093145847879,1.00000000007562,0.233252755085487
1100.0000000001,0.154825154234546,1.00000000028434,0.290441394541727
1200,0.211324597254031,1.00000000068001,0.346106945276838
1299.99999999991,0.32654040332787,1.00000000104323,0.395677775245514
1399.99999999982,0.596693194515649,1.00000000142736,0.43795979813579
1499.99999999973,1.15823514037831,1.00000000177989,0.472089121873326
1599.99999999964,2.07111619100942,1.00000000197599,0.500869460771459
1699.99999999955,3.35856743959459,1.000000002093,0.525022694380188
1799.99999999946,5.08537339226938,1.00000000225488,0.543789326312422
1899.99999999937,7.26225464883731,1.00000000237443,0.557471992041397
1999.99999999928,9.7923194933341,1.00000000233943,0.568887102489945
2099.99999999919,12.5917886334937,1.00000000234295,0.577909277842554
2199.99999999909,15.6294134594748,1.00000000227137,0.584018874734445
2299.999999999,18.8414846059164,1.00000000226461,0.58693733645909
2399.99999999891,22.1044886565776,1.00000000204602,0.589470171471531
2499.99999999882,25.3204202342265,1.00000000198696,0.591212239023536
2599.99999999873,28.4534908144793,1.00000000209304,0.591170645595066
2699.99999999864,31.4681162747009,1.00000000194167,0.589812880828696
2799.99999999855,34.3017368808096,1.00000000195508,0.587905832311396
2899.99999999846,36.8957880410143,1.00000000179717,0.587273983686474
2999.99999999837,39.2306597654938,1.00000000169785,0.585031534981367
3099.99999999828,41.3123126505581,1.00000000167017,0.581024078389972
3199.99999999819,43.1323874242234,1.00000000161559,0.57849300719364
3299.99999999809,44.6745760712121,1.0000000015964,0.576807651268336
3399.999999998,45.936657135105,1.00000000152924,0.575736113557647
3499.99999999791,46.9345775496061,1.00000000143081,0.575029468913637
3599.99999999782,47.6890734211603,1.00000000137259,0.573168829832401
3699.99999999773,48.2101294854222,1.00000000138446,0.571427932456517
3799.99999999764,48.5228185100182,1.00000000129024,0.567046971971612
3899.99999999755,48.6246862559051,1.00000000137322,0.57759571768783
3999.99999999746,48.5795482568225,1.00000000118163,0.556608335206762
4099.99999999738,48.3726373946697,1.00000000139435,0.574932449326412
4199.99999999775,48.0779380367998,1.00000000118087,0.557674766686445
4299.99999999811,47.6532764330483,1.0000000012158,0.551719077555255
4399.99999999848,47.1798966110245,1.00000000145626,0.572171191870232
4499.99999999884,46.6346855416281,1.00000000099495,0.524168174193819
4599.9999999992,46.0300901280644,1.00000000160016,0.580133593230087
4699.99999999957,45.4319317500479,1.0000000013719,0.544829755845308
4799.99999999993,44.7740021499317,1.00000000106127,0.509841390266546
4900.00000000029,44.104542856538,1.00000000180108,0.583661806831806
5000.00000000066,43.4557362474758,1.00000000132605,0.527111045520157
5100.00000000102,42.7723960345306,1.00000000104325,0.493904757729767
5200.00000000139,42.0848450866559,1.00000000177968,0.56704931794414
5300.00000000175,41.4296265312315,1.00000000154638,0.531659824581724
5400.00000000211,40.7678806735213,1.00000000105643,0.492188637012359
5500.00000000248,40.0950206655305,1.00000000130825,0.511406996400853
5600.00000000284,39.4454971361132,1.00000000185238,0.55534404442498
5700.00000000321,38.8191766429762,1.00000000128904,0.502508389320125
5800.00000000357,38.1958840344574,1.00000000110135,0.495538295783138
5900.00000000393,37.5753329808654,1.00000000130413,0.508511413220738
6000.0000000043,36.9728881743435,1.00000000158327,0.537130215298447
6100.00000000466,36.3911346353488,1.00000000135079,0.515985673205121
6200.00000000502,35.8240107578675,1.00000000112674,0.494199967841036
6300.00000000539,35.2693148061078,1.00000000127834,0.514561082589642
6400.00000000575,34.7276614209313,1.0000000013183,0.51302963203374
6500.00000000612,34.202962597731,1.00000000145919,0.523793715127178
6600.00000000648,33.6929168421735,1.00000000155233,0.522573783911953
6700.00000000684,33.2005442817922,1.00000000115837,0.49608008305242
6800.00000000721,32.7268862901752,1.00000000126911,0.520528547645887
6900.00000000757,32.2661528853941,1.00000000137155,0.533063845724955
7000.00000000793,31.8235004297049,1.00000000122317,0.499833009244483
7100.0000000083,31.3965315147947,1.00000000147091,0.519702895598374
7200.00000000866,30.9787463215667,1.00000000152345,0.518782432791766
7300.00000000903,30.5778466415222,1.00000000115449,0.503146593555026
7400.00000000939,30.1979086566723,1.00000000127282,0.514843646621638
7500.00000000975,29.8271498777805,1.00000000163707,0.534651649837055
7600.00000001012,29.4684733950737,1.00000000122698,0.521927155976513
7700.00000001048,29.1303901238767,1.00000000124684,0.495199831787332
7800.00000001084,28.8053761919971,1.00000000150664,0.522724730454581
7900.00000001121,28.4851732442239,1.00000000151432,0.521681157809295
8000.00000001157,28.1760759048545,1.00000000137718,0.508437280802109
8100.00000001194,27.8850006299893,1.00000000127489,0.517588793674658
8200.0000000123,27.6059812138612,1.00000000141499,0.527892297813294
8300.00000001266,27.3311295715641,1.00000000154009,0.525692021790459
8400.00000001303,27.065036284966,1.00000000124764,0.524956478285743
8500.00000001339,26.8151207829023,1.00000000122219,0.512527635039452
8600.00000001376,26.5776065391814,1.00000000140384,0.520533532985276
8700.00000001412,26.3470799200493,1.00000000139653,0.533494997138154
8800.00000001448,26.1218877986877,1.0000000014806,0.524029903719915
8900.00000001485,25.908468733232,1.00000000127414,0.515918811763144
9000.00000001521,25.7074260244842,1.00000000139727,0.528500534878133
9100.00000001557,25.5127712132542,1.00000000138029,0.541688965734604
9200.00000001594,25.3286809082587,1.00000000133873,0.527913600288239
9300.0000000163,25.1507090246009,1.00000000138932,0.522158630453517
9400.00000001667,24.9751064808669,1.00000000138496,0.540795191803154
9500.00000001703,24.8038053697764,1.00000000135946,0.550762576699855
9600.00000001739,24.6407299028981,1.00000000127503,0.531176040920301
9700.00000001776,24.4883792196959,1.00000000133251,0.532480489172439
9800.00000001812,24.3434691363429,1.00000000147365,0.542795844985073
9900.00000001848,24.2030892374043,1.00000000150482,0.532509270211996
10000.0000000188,24.0694513832582,1.00000000127898,0.537521879339224
10100.0000000192,23.9476435658237,1.00000000124838,0.539008623501269
10200.0000000196,23.8296719880855,1.0000000014722,0.54297237378308
10300.0000000199,23.7099129415842,1.00000000143329,0.549044674865842
10400.0000000203,23.6016181175722,1.0000000012153,0.525827296281719
10500.0000000207,23.5073333921834,1.000000001335,0.533265325076677
10600.000000021,23.4127955278389,1.0000000014335,0.539434983607516
10700.0000000214,23.3114744731241,1.00000000156882,0.559037584265443
10800.0000000218,23.2041745837348,1.00000000146687,0.565878231820456
10900.0000000221,23.0991259494797,1.0000000013983,0.560335053957885
11000.0000000225,23.0014095037762,1.00000000134526,0.551969535767742
11100.0000000229,22.910276048409,1.00000000145762,0.557605272248325
11200.0000000232,22.8262922319024,1.00000000148459,0.551668760044458
11300.0000000236,22.7490724474334,1.00000000141201,0.53902464186671
11400.0000000239,22.6766718811636,1.00000000138238,0.537455763314165
11500.0000000243,22.6112890780727,1.00000000139819,0.554045527493061
11600.0000000247,22.5510956115013,1.00000000134633,0.556143692192434
11700.000000025,22.4934219785975,1.0000000014311,0.55232470667823
11800.0000000254,22.4367127051281,1.00000000154621,0.551737094874333
11900.0000000258,22.3833358923837,1.00000000137505,0.551258253924217
12000.0000000261,22.3388875069599,1.00000000140836,0.540680483221329
12100.0000000265,22.3035155420736,1.00000000138823,0.550121947702536
12200.0000000269,22.2656492086832,1.00000000152195,0.566028069828442
12300.0000000272,22.2229881001766,1.00000000151154,0.566315522137942
12400.0000000276,22.1774474205456,1.00000000154005,0.569693343123382
12500.0000000279,22.128301966778,1.00000000151551,0.567498042271366
12600.0000000283,22.0742760092704,1.00000000148789,0.573612989251325
12700.0000000287,22.0134333486778,1.00000000151852,0.586383426927651
12800.000000029,21.9524772807686,1.00000000143119,0.580542405555322
12900.0000000294,21.8968300287906,1.00000000132236,0.571620350917528
13000.0000000298,21.848532541332,1.00000000144657,0.56877380244937
13100.0000000301,21.8083838262763,1.0000000015582,0.564968321391685
13200.0000000305,21.7756881465397,1.00000000140549,0.547352702621081
13300.0000000309,21.7480049834653,1.0000000014438,0.551488002462979
13400.0000000312,21.7264838648953,1.00000000136646,0.561921449517496
13500.0000000316,21.7083891708312,1.00000000146485,0.571590243484439
13600.0000000319,21.6909618032953,1.00000000157597,0.574395514594165
13700.0000000323,21.6726113898153,1.00000000146138,0.566363586654221
13800.0000000327,21.6571195603426,1.00000000139951,0.557850710815773
13900.000000033,21.6490648863515,1.00000000140913,0.555093518537397
14000.0000000334,21.644862339733,1.00000000145001,0.557448437255198
14100.0000000338,21.6425395801834,1.00000000143833,0.568031478454026
14200.0000000341,21.6439506509089,1.00000000147217,0.576428958855913
14300.0000000345,21.6458366016642,1.0000000015087,0.582126412663395
14400.0000000349,21.6423510639054,1.00000000149644,0.590056970867931
14500.0000000352,21.6313104494467,1.00000000149832,0.59332590993561
14600.0000000356,21.6155807526783,1.00000000153814,0.593061655231675
14700.0000000359,21.5995432018051,1.00000000147923,0.594292179198406
14800.0000000363,21.5850564547885,1.00000000141637,0.588159921783568
14900.0000000367,21.5694423423243,1.00000000157833,0.589361480170577
15000.000000037,21.5480564771637,1.00000000162232,0.588181997415376
15100.0000000374,21.5154595447636,1.00000000162352,0.586421497055215
15200.0000000378,21.4748841443434,1.0000000016245,0.59666731242992
15300.0000000381,21.4300507898676,1.00000000150928,0.598626762292405
15400.0000000385,21.3858562800494,1.00000000141945,0.591325125770185
15500.0000000389,21.3485616203854,1.0000000014549,0.584983188624237
15600.0000000392,21.3186199862654,1.00000000140044,0.580146358967248
15700.0000000396,21.2967117396365,1.00000000151137,0.580964623218001
15800.0000000399,21.2830378325829,1.00000000144405,0.578564610066369
15900.0000000403,21.2753740866281,1.00000000142655,0.577240901237962
16000.0000000407,21.2739984479478,1.00000000155616,0.580198979163824
16100.000000041,21.2760501300971,1.00000000147112,0.586756285914595
16200.0000000414,21.2816063257466,1.00000000154496,0.588784837072293
16300.0000000418,21.2866129148888,1.00000000160774,0.591620516143702
16400.0000000418,21.2921706041656,1.00000000153479,0.584504921960665
16500.0000000404,21.3011221184825,1.00000000148171,0.576796873814124
16600.0000000389,21.316540267393,1.00000000148553,0.572003334878303
16700.0000000375,21.3342306091127,1.00000000145583,0.574312532711161
16800.000000036,21.3552489686909,1.00000000154772,0.585263990745497
16900.0000000346,21.3798884227219,1.00000000147124,0.587833087606738
17000.0000000331,21.4034777392007,1.00000000149786,0.587840174580607
17100.0000000317,21.4238309399363,1.00000000162972,0.593342897986204
17200.0000000302,21.4390930834853,1.00000000152503,0.585023305679706
17300.0000000287,21.4542014137814,1.00000000154797,0.584819332457889
17400.0000000273,21.4705812132295,1.00000000148202,0.594253795454514
17500.0000000258,21.4862856094482,1.00000000155364,0.606863362791818
17600.0000000244,21.4984667351344,1.00000000154624,0.615276056364899
17700.0000000229,21.5066146499244,1.00000000156748,0.6297329121768
17800.0000000215,21.5115962116532,1.00000000155666,0.633152104810633
17900.00000002,21.5138963968483,1.00000000157388,0.631853743163804
18000.0000000186,21.515138913075,1.00000000159561,0.630533772430217
18100.0000000171,21.5130988808902,1.00000000155371,0.640904087406348
18200.0000000156,21.506931061864,1.00000000159183,0.641513756171882
18300.0000000142,21.4980423447377,1.00000000162595,0.648518516563179
18400.0000000127,21.4857703732218,1.00000000157278,0.642653384513622
18500.0000000113,21.4695396524324,1.00000000152426,0.642065567727958
18600.0000000098,21.4470299061111,1.00000000154332,0.64525154411732
18700.0000000084,21.4202167335087,1.00000000156381,0.648304365954165
18800.0000000069,21.3879735903123,1.00000000165616,0.646644080553202
18900.0000000055,21.3503345997403,1.0000000016102,0.642131720414594
19000.000000004,21.3110454146852,1.0000000016694,0.644093926508789
19100.0000000026,21.2713607487453,1.00000000159223,0.644916883374311
19200.0000000011,21.2339664157588,1.00000000157946,0.640779080275028
19299.9999999996,21.1994874072792,1.00000000152912,0.639273107290135
19399.9999999982,21.1703714513626,1.00000000143532,0.638148065296459
19499.9999999967,21.1472928187367,1.00000000160405,0.636148287269487
19599.9999999953,21.131502773634,1.00000000157593,0.635658618135961
19699.9999999938,21.1202270252115,1.00000000146871,0.629233087691528
19799.9999999924,21.115516672151,1.00000000152831,0.620783888855415
19899.9999999909,21.1177619762687,1.00000000160058,0.610218176137796
19999.9999999895,21.123944706593,1.00000000153733,0.606293878683883
20099.999999988,21.1352496733869,1.00000000161557,0.610163892986306
20199.9999999865,21.1500550358435,1.00000000160163,0.615805752128447
20299.9999999851,21.1649350227297,1.00000000162606,0.621698171881756
20399.9999999836,21.1815970001835,1.00000000164241,0.620621318519528
20499.9999999822,21.1996983055017,1.00000000158894,0.609997341788365
20599.9999999807,21.2177891156824,1.00000000164719,0.61454623893212
20699.9999999793,21.2400058825179,1.00000000149747,0.605676466871603
20799.9999999778,21.2680195816374,1.00000000162518,0.597853926042147
20899.9999999764,21.3003153111347,1.00000000155971,0.600096562689455
20999.9999999749,21.3335030083274,1.00000000164963,0.607752022563186
21099.9999999734,21.3675350049963,1.00000000159145,0.612939683196483
21199.999999972,21.4007699450858,1.00000000165177,0.616938265345211
21299.9999999705,21.4339132458434,1.00000000158112,0.619686508165307
21399.9999999691,21.4670084762997,1.00000000168452,0.622984694651543
21499.9999999676,21.497737278678,1.00000000157693,0.617026882215332
21599.9999999662,21.5263033039775,1.00000000171914,0.620517054171789
21699.9999999647,21.5483902491093,1.00000000173775,0.619512144760645
21799.9999999633,21.5647181325781,1.00000000169148,0.62900827236609
21899.9999999618,21.5786308644232,1.00000000174476,0.641326651890184
21999.9999999603,21.5925842134843,1.00000000160319,0.644659932540882
22099.9999999589,21.6066805912158,1.00000000169102,0.645085256090489
22199.9999999574,21.6240599370615,1.00000000164757,0.637124889451627
22299.999999956,21.6400019727517,1.00000000170909,0.641505823946108
22399.9999999545,21.6552495527135,1.00000000163396,0.643743112576949
22499.9999999531,21.6714558675015,1.00000000168808,0.654132552618649
22599.9999999516,21.6864812306802,1.00000000167659,0.648846088267539
22699.9999999502,21.6988838296174,1.00000000167406,0.651487354131862
22799.9999999487,21.7067395675122,1.00000000187587,0.646750453917402
22899.9999999473,21.7071849511038,1.00000000182698,0.647572272232482
22999.9999999458,21.7049742501033,1.00000000176772,0.652662333708515
23099.9999999443,21.7002097809518,1.00000000170889,0.645363512682085
23199.9999999429,21.6967683496029,1.00000000157038,0.642169220861931
23299.9999999414,21.6959508957215,1.00000000160272,0.642807528566763
23399.99999994,21.6948031806822,1.00000000166484,0.647980777898825
23499.9999999385,21.693217052505,1.00000000158211,0.644144784275532
23599.9999999371,21.6928392020756,1.00000000169588,0.649821448798948
23699.9999999356,21.6902419786948,1.00000000165188,0.651792412310188
23799.9999999342,21.6843053335577,1.00000000172798,0.654466441010753
23899.9999999327,21.6749319603041,1.00000000179658,0.66881497220846
23999.9999999312,21.6635688412727,1.00000000174495,0.66663990648002
24099.9999999298,21.6503415628413,1.00000000177246,0.662046917426517
24199.9999999283,21.6346536709368,1.00000000175958,0.66118483569831
24299.9999999269,21.6175006072665,1.00000000173436,0.663779344998392
24399.9999999254,21.6009688337929,1.00000000167669,0.660513847328337
24499.999999924,21.5815060907351,1.00000000170884,0.660722209699044
24599.9999999225,21.5612552308689,1.00000000167715,0.656195836324221
24699.9999999211,21.5409377478929,1.00000000156243,0.65428554860643
24799.9999999196,21.5183495944838,1.00000000171077,0.661759519584583
24899.9999999181,21.4922842209944,1.0000000017442,0.666135740600515
24999.9999999167,21.463916693485,1.00000000179925,0.663041510438028
25099.9999999152,21.4334626207734,1.00000000179131,0.667211652938384
25199.9999999138,21.4003681008032,1.00000000174762,0.662744385820854
25299.9999999123,21.3644757483793,1.00000000184027,0.663926557305721
25399.9999999109,21.3274816315878,1.00000000173725,0.661387301054777
25499.9999999094,21.2916728138921,1.00000000167821,0.661580022673962
25599.999999908,21.2571286671828,1.00000000175318,0.661740188521001
25699.9999999065,21.2250940833896,1.00000000171657,0.653177248352558
25799.9999999051,21.1955263950283,1.00000000181807,0.645752457521948
25899.9999999036,21.1702934593753,1.00000000182022,0.641646213408803
25999.9999999021,21.1489286606223,1.0000000017548,0.643404997589577
26099.9999999007,21.1335074399121,1.00000000171674,0.64131839838681
26199.9999998992,21.1236121919832,1.00000000175927,0.641194493160431
26299.9999998978,21.1177276012793,1.00000000165507,0.639490654752143
26399.9999998963,21.1177953637303,1.00000000175135,0.63019085565303
26499.9999998949,21.1227652504993,1.00000000176969,0.629440074351812
26599.9999998934,21.1325682496,1.00000000164151,0.621760450690697
26699.999999892,21.1500868256154,1.00000000168656,0.610993079826496
26799.9999998905,21.1707128703589,1.00000000185987,0.611330856505797
26899.999999889,21.1932921613739,1.00000000172371,0.604827731477169
26999.9999998876,21.2200909848338,1.0000000017478,0.608170108211445
27099.9999998861,21.2476288474622,1.00000000185321,0.616151918977024
27199.9999998847,21.2757952418409,1.00000000186928,0.61312614020673
27299.9999998832,21.3069044491865,1.00000000171629,0.607797603508767
27399.9999998818,21.3389652250842,1.0000000018379,0.603665014076919
27499.9999998803,21.3728479871559,1.00000000182927,0.597185506905869
27599.9999998789,21.4137812249791,1.00000000167633,0.601190672443421
27699.9999998774,21.4592787999625,1.00000000178605,0.602697084629868
27799.9999998759,21.5037575108431,1.00000000175851,0.592874684334363
27899.9999998745,21.5500483662571,1.0000000017197,0.594631272809943
27999.999999873,21.6016399124964,1.00000000183281,0.607251742809591
28099.9999998716,21.6532723384888,1.00000000188296,0.609017211115309
28199.9999998701,21.7050509735815,1.0000000018552,0.608934404193523
28299.9999998687,21.7596863519965,1.00000000176828,0.621377634770071
28399.9999998672,21.8140468960717,1.00000000182983,0.627511395549001
28499.9999998658,21.8685793138666,1.00000000183827,0.629829721635088
28599.9999998643,21.9203197379486,1.00000000202764,0.632106379971986
28699.9999998629,21.9676907909395,1.00000000184307,0.632471349968961
28799.9999998614,22.0152233773458,1.00000000181631,0.634988056100301
28899.9999998599,22.0589021027469,1.00000000212136,0.644794217780321
28999.9999998585,22.0962223612994,1.0000000019731,0.643972194239457
