Time,AGPnorm,Energy,Entropy
0,0,1,-6.13990079897863e-19
99.9999999999986,0.00218508780155483,0.999999999998727,0.00752615679427664
199.999999999993,0.00610986333512582,1.00000000000066,0.0224099551968795
300,0.0130697425965436,0.999999999998195,0.043755117921232
400.000000000022,0.0212992093212449,1.00000000000127,0.0700870435944963
500.000000000045,0.0316477102245488,0.999999999998328,0.101963942328733
600.000000000068,0.0425508013179146,1.00000000000299,0.140282386249028
700.000000000091,0.0541209153219429,1.00000000000693,0.187476050108572
800.000000000113,0.0703064781731738,1.00000000004471,0.245550517429266
900.000000000136,0.0986698099863583,1.00000000014791,0.312512429145904
1000.00000000016,0.21897295057218,1.0000000003006,0.37842886357003
1100.0000000001,0.557763698767736,1.00000000046913,0.435025626566133
1200,1.35656058628731,1.00000000065953,0.477295579313996
1299.99999999991,2.80604013532349,1.00000000074119,0.507906120328562
1399.99999999982,5.07719865211971,1.00000000088416,0.526758387862943
1499.99999999973,8.17730038569216,1.00000000086138,0.539037756951456
1599.99999999964,12.0868588121071,1.00000000093363,0.544578247327162
1699.99999999955,16.6133777702497,1.00000000092108,0.545965221577975
1799.99999999946,21.6383230979683,1.00000000087361,0.543326065886183
1899.99999999937,26.8872202767549,1.00000000088913,0.540998001682894
1999.99999999928,32.2427745447407,1.00000000079055,0.533732207758318
2099.99999999919,37.4501422597167,1.00000000075086,0.529894622128695
2199.99999999909,42.4273363071489,1.00000000073906,0.519047540524495
2299.999999999,47.0022938651396,1.00000000069529,0.517884519971323
2399.99999999891,51.1323509857123,1.00000000070863,0.507728689487238
2499.99999999882,54.7241654158107,1.00000000067243,0.494019340299824
2599.99999999873,57.7734782883936,1.00000000062405,0.502824293996826
2699.99999999864,60.2968815680609,1.00000000059318,0.499290670505082
2799.99999999855,62.2420971716008,1.00000000050732,0.46488584114061
2899.99999999846,63.629134356424,1.00000000053058,0.473197307375502
2999.99999999837,64.5944079918891,1.00000000061113,0.516023883180601
3099.99999999828,65.2337051135032,1.00000000054849,0.491789279625527
3199.99999999819,65.4023914740306,1.00000000035283,0.416621176642703
3299.99999999809,65.1038045767703,1.00000000038719,0.43838553111168
3399.999999998,64.6068802615733,1.00000000062546,0.524863575321242
3499.99999999791,64.1114598545753,1.000000000675,0.541649372241941
3599.99999999782,63.524349821274,1.00000000045036,0.454199865371838
3699.99999999773,62.6240469279525,1.0000000002111,0.339613364793593
3799.99999999764,61.4611067806363,1.00000000033347,0.388620487997147
3899.99999999755,60.2574041224269,1.00000000066034,0.501304347409245
3999.99999999746,59.1792042876841,1.00000000077616,0.552715179929906
4099.99999999738,58.2475549841113,1.00000000073953,0.542442869999483
4199.99999999775,57.3381643437325,1.0000000005034,0.444944590306036
4299.99999999811,56.2951910885347,1.00000000021551,0.303309223686195
4399.99999999848,55.1284790768233,1.00000000018351,0.279868398174398
4499.99999999884,53.9489074716606,1.00000000045665,0.402066599674321
4599.9999999992,52.8030727910642,1.00000000071096,0.492617456830645
4699.99999999957,51.7253269845666,1.00000000075804,0.512726645958137
4799.99999999993,50.7516707610714,1.00000000072978,0.534483985513944
4900.00000000029,49.8805493645154,1.00000000068722,0.543368016802111
5000.00000000066,49.0433406828228,1.00000000050573,0.47926176420736
5100.00000000102,48.1726966951961,1.00000000029057,0.353469697751021
5200.00000000139,47.2875166230218,1.00000000018979,0.257999448760736
5300.00000000175,46.4644824560137,1.00000000022535,0.27189808953313
5400.00000000211,45.7293180457614,1.00000000039243,0.363980051265817
5500.00000000248,45.0186914194457,1.00000000059926,0.47133848951775
5600.00000000284,44.286898435788,1.00000000064789,0.528385900227708
5700.00000000321,43.5507981739999,1.00000000054535,0.497501389972191
5800.00000000357,42.8276558941357,1.0000000005441,0.447191116791151
5900.00000000393,42.1135394560418,1.0000000006347,0.476161262005163
6000.0000000043,41.4169232046935,1.00000000074412,0.540336071891622
6100.00000000466,40.757913629792,1.00000000073842,0.561817715530223
6200.00000000502,40.1324812941977,1.00000000057776,0.52623498657723
6300.00000000539,39.5182942997648,1.0000000003915,0.438178004752413
6400.00000000575,38.9317399288916,1.00000000019186,0.326526127736151
6500.00000000612,38.449070276428,1.0000000001482,0.248975503093208
6600.00000000648,38.1337527825892,1.00000000021846,0.253526328736248
6700.00000000684,37.9753575891071,1.0000000003454,0.319537534079435
6800.00000000721,37.9053813450885,1.00000000045194,0.403639187312559
6900.00000000757,37.820674414473,1.00000000057817,0.471889194146296
7000.00000000793,37.6423801375118,1.00000000065555,0.502953648795709
7100.0000000083,37.3557411397563,1.00000000066551,0.517671631757934
7200.00000000866,36.9914390771199,1.00000000065676,0.537818295986405
7300.00000000903,36.5999016848169,1.00000000051963,0.524617977375563
7400.00000000939,36.2271404664212,1.0000000003418,0.466959445426073
7500.00000000975,35.8931052663531,1.00000000033834,0.437535760661532
7600.00000001012,35.5702630065454,1.00000000049419,0.460120229529097
7700.00000001048,35.2202021001974,1.00000000058023,0.489126857396493
7800.00000001084,34.8354737336323,1.00000000060408,0.495775723230683
7900.00000001121,34.423440955687,1.00000000071028,0.504562615604948
8000.00000001157,34.0000968987722,1.00000000080417,0.536450458139864
8100.00000001194,33.5858048215597,1.00000000075752,0.561752592116814
8200.0000000123,33.1885572850701,1.00000000065586,0.556141336705865
8300.00000001266,32.8000172054236,1.00000000049284,0.514243880978205
8400.00000001303,32.4194283063455,1.00000000032206,0.442217785525499
8500.00000001339,32.0814555034651,1.00000000020506,0.35820439242109
8600.00000001376,31.8577122906709,1.00000000013815,0.290144959440874
8700.00000001412,31.8180674897628,1.00000000015906,0.250546148902868
8800.00000001448,31.9989870513247,1.00000000021005,0.257287961648604
8900.00000001485,32.3911364203682,1.00000000028977,0.298515131208106
9000.00000001521,32.9185685517274,1.00000000043012,0.356174517430888
9100.00000001557,33.4689225214465,1.00000000054247,0.420517912466454
9200.00000001594,33.9572123989682,1.00000000060482,0.471386857841845
9300.0000000163,34.3347928354839,1.00000000062881,0.504210010162001
9400.00000001667,34.5869222611913,1.00000000067694,0.527772394748
9500.00000001703,34.7218825736574,1.0000000006473,0.54714317269063
9600.00000001739,34.7658365160304,1.00000000057845,0.548016526279138
9700.00000001776,34.7543534802928,1.00000000051407,0.522009836723639
9800.00000001812,34.7127190422582,1.00000000046129,0.49060535810119
9900.00000001848,34.633054104151,1.00000000056679,0.48871649786425
10000.0000000188,34.4967072788362,1.00000000066268,0.510132201840683
10100.0000000192,34.3134016715809,1.00000000061487,0.531760404453993
10200.0000000196,34.1130899250508,1.00000000049858,0.524615164339781
10300.0000000199,33.924347347239,1.00000000041775,0.496195856122595
10400.0000000203,33.7554383620212,1.00000000045792,0.475438819930753
10500.0000000207,33.601526596285,1.00000000046697,0.468422568296267
10600.000000021,33.4576901421446,1.0000000004843,0.474471102054109
10700.0000000214,33.3203900438051,1.00000000049918,0.481574696808361
10800.0000000218,33.1819217763037,1.00000000051214,0.495688973402104
10900.0000000221,33.0331153760061,1.00000000053702,0.513931208044803
11000.0000000225,32.8669288229081,1.00000000055129,0.532774625237268
11100.0000000229,32.6872283613021,1.00000000047125,0.534355402889554
11200.0000000232,32.5054623270322,1.00000000042948,0.526873913910812
11300.0000000236,32.3243437553806,1.00000000042015,0.524931179997154
11400.0000000239,32.1362017633201,1.00000000048922,0.526940464868364
11500.0000000243,31.9315175669778,1.00000000050195,0.529713265230886
11600.0000000247,31.7080632173696,1.00000000055761,0.52904185209891
11700.000000025,31.4669256532892,1.00000000064101,0.533111625094271
11800.0000000254,31.2129746780366,1.00000000068433,0.540870664104904
11900.0000000258,30.9572857704299,1.00000000070491,0.544968970501613
12000.0000000261,30.7126406515274,1.000000000756,0.554592392661116
12100.0000000265,30.4905087864312,1.0000000007776,0.563407739507791
12200.0000000269,30.2941097679141,1.0000000007431,0.569097750297017
12300.0000000272,30.1127398570227,1.00000000065427,0.563216399801239
12400.0000000276,29.9273999063109,1.00000000056779,0.539633882494733
12500.0000000279,29.7218126172111,1.00000000044522,0.501601284540999
12600.0000000283,29.4968601889034,1.00000000032484,0.451049159935311
12700.0000000287,29.2763864946577,1.00000000021532,0.393428466195502
12800.000000029,29.1059215610943,1.00000000016012,0.339101751200072
12900.0000000294,29.042929469104,1.000000000141,0.29952511606647
13000.0000000298,29.1440468094475,1.0000000001389,0.27338994935762
13100.0000000301,29.4574830274686,1.00000000013608,0.257031891372339
13200.0000000305,30.0083492196761,1.00000000018409,0.262441948317742
13300.0000000309,30.7781031657988,1.00000000029509,0.290979692945741
13400.0000000312,31.7283317128615,1.00000000033109,0.326733583408924
13500.0000000316,32.7988223910504,1.00000000046325,0.367752849088915
13600.0000000319,33.9026634944908,1.00000000053447,0.407253487511811
13700.0000000323,34.9704950901064,1.00000000062928,0.44518111546638
13800.0000000327,35.9571332585373,1.0000000005978,0.473850027323266
13900.000000033,36.838672201945,1.00000000066379,0.496931313523141
14000.0000000334,37.5994999514668,1.00000000059382,0.521433029420595
14100.0000000338,38.2387286487772,1.00000000060749,0.542183110113195
14200.0000000341,38.763989577144,1.00000000059353,0.552974358303755
14300.0000000345,39.1912695700001,1.00000000054336,0.547830036737304
14400.0000000349,39.5427051367447,1.00000000050987,0.538766290636302
14500.0000000352,39.8277932358808,1.00000000051108,0.54509635323067
14600.0000000356,40.0469307679639,1.00000000054415,0.562033213883249
14700.0000000359,40.2011237670472,1.00000000056371,0.568658881607346
14800.0000000363,40.2991076183888,1.00000000057276,0.566542479895735
14900.0000000367,40.3483081811805,1.00000000054312,0.549934636507973
15000.000000037,40.3578043721672,1.0000000005584,0.533603877930307
15100.0000000374,40.3443888446279,1.00000000046631,0.520874113433307
15200.0000000378,40.31418831959,1.00000000052778,0.522413495617624
15300.0000000381,40.2591032522042,1.00000000055395,0.535381305537648
15400.0000000385,40.1764592395426,1.00000000055747,0.539267259201055
15500.0000000389,40.0774056135525,1.00000000048867,0.544957010943113
15600.0000000392,39.9685346077415,1.00000000048441,0.548080558683929
15700.0000000396,39.8466279395286,1.00000000054732,0.549078734914303
15800.0000000399,39.7096000916527,1.00000000055576,0.547868762775165
15900.0000000403,39.5616603290529,1.00000000050581,0.545503839849245
16000.0000000407,39.4112708522456,1.00000000047286,0.53394251702809
16100.000000041,39.2666842596024,1.00000000041,0.52077270271181
16200.0000000414,39.1318015166499,1.0000000004098,0.519954311019415
16300.0000000418,38.9992685125023,1.0000000004807,0.523499372165723
16400.0000000418,38.8597584679889,1.00000000053275,0.525637800246105
16500.0000000404,38.7100492518224,1.00000000054343,0.52836097607242
16600.0000000389,38.5505057077122,1.00000000058614,0.533019495896131
16700.0000000375,38.37896176115,1.00000000062032,0.5449994077327
16800.000000036,38.19494233401,1.00000000065478,0.555327781034623
16900.0000000346,38.0039518291258,1.00000000057345,0.556754295820759
17000.0000000331,37.8126425253267,1.00000000050138,0.553159850686583
17100.0000000317,37.6276912119365,1.00000000046615,0.549385128730956
17200.0000000302,37.4577642558198,1.0000000004043,0.529810692057975
17300.0000000287,37.3131900457797,1.00000000036186,0.512077128589062
17400.0000000273,37.1965237477691,1.00000000037317,0.492244750374811
17500.0000000258,37.1013423028247,1.00000000045013,0.479778530684583
17600.0000000244,37.0183256269078,1.00000000050696,0.477112484205932
17700.0000000229,36.9432094052252,1.00000000046701,0.487313660707242
17800.0000000215,36.8784639418275,1.00000000044394,0.490773314322452
17900.00000002,36.8237382172373,1.00000000047511,0.496877779092144
18000.0000000186,36.7732155624095,1.00000000049694,0.512299273851016
18100.0000000171,36.7228267884149,1.00000000049667,0.525915898097779
18200.0000000156,36.6694375447388,1.0000000005279,0.533786808114739
18300.0000000142,36.6067835470764,1.00000000056089,0.535417556819081
18400.0000000127,36.5343977074494,1.00000000056116,0.528487114161012
18500.0000000113,36.4569887696219,1.00000000051339,0.529102674829152
18600.0000000098,36.3753267244452,1.000000000489,0.534198024987479
18700.0000000084,36.2888307067653,1.00000000053113,0.54193060729455
18800.0000000069,36.1957987615141,1.00000000051545,0.55607466455629
18900.0000000055,36.0984291135641,1.00000000049832,0.569881976852368
19000.000000004,36.0002676246215,1.00000000050491,0.573103585110273
19100.0000000026,35.8993481225637,1.00000000051158,0.574877710397264
19200.0000000011,35.791792889013,1.00000000056392,0.576265483767991
19299.9999999996,35.6747712627373,1.00000000054351,0.582312123050495
19399.9999999982,35.5471800360954,1.00000000056194,0.584407216099362
19499.9999999967,35.4120928034412,1.00000000055404,0.58270481961344
19599.9999999953,35.2784106785907,1.00000000047875,0.582145307654694
19699.9999999938,35.151058485858,1.00000000040844,0.572648310805312
19799.9999999924,35.0282487813973,1.00000000051805,0.567369734683196
19899.9999999909,34.9025222073247,1.00000000053763,0.56542910265714
19999.9999999895,34.7713143600558,1.00000000055452,0.552053664820897
20099.999999988,34.6394384030671,1.00000000045732,0.541320480359506
20199.9999999865,34.5116311026576,1.00000000043832,0.542616661716933
20299.9999999851,34.388459054939,1.00000000047798,0.545441545072065
20399.9999999836,34.2661542624872,1.00000000048597,0.548282642261969
20499.9999999822,34.1447045096007,1.00000000051154,0.552869011238484
20599.9999999807,34.0251730946003,1.00000000048131,0.560591672299963
20699.9999999793,33.9073373301148,1.00000000049251,0.56159976742874
20799.9999999778,33.788271746327,1.000000000519,0.555105673316808
20899.9999999764,33.6634488653904,1.00000000056396,0.563521714295167
20999.9999999749,33.5322548391071,1.00000000055831,0.565092586840389
21099.9999999734,33.3965214970101,1.00000000051432,0.556203631670556
21199.999999972,33.2580693519325,1.00000000054479,0.551221801344116
21299.9999999705,33.1165145524455,1.0000000005559,0.56197603354752
21399.9999999691,32.971906414122,1.00000000058179,0.577055986681989
21499.9999999676,32.8262889448931,1.00000000054715,0.584179634084008
21599.9999999662,32.6817282514396,1.00000000046891,0.57692573470687
21699.9999999647,32.539192295346,1.00000000047019,0.56868963354604
21799.9999999633,32.3982487516823,1.00000000054149,0.5754641125946
21899.9999999618,32.2562983430927,1.00000000057482,0.580730995187389
21999.9999999603,32.112501309486,1.00000000055707,0.585316635953157
22099.9999999589,31.9689182250525,1.0000000005035,0.587393132931855
22199.9999999574,31.8264292087662,1.00000000044009,0.573861888487059
22299.999999956,31.6852947329882,1.00000000039828,0.563871690077339
22399.9999999545,31.5455079838617,1.00000000044568,0.569661524344768
22499.9999999531,31.4065705566047,1.00000000045004,0.577238886457956
22599.9999999516,31.2686301270259,1.00000000045017,0.576388017727367
22699.9999999502,31.1320778261832,1.00000000046205,0.573388068308987
22799.9999999487,30.996977409869,1.0000000004866,0.573975566098683
22899.9999999473,30.8644495653869,1.00000000049346,0.585627508720424
22999.9999999458,30.7355761473207,1.00000000051843,0.582022340731551
23099.9999999443,30.6126870584845,1.00000000055603,0.571961898690214
23199.9999999429,30.4987657684328,1.00000000057793,0.58174757278276
23299.9999999414,30.3972890873856,1.00000000060626,0.591996935121396
23399.99999994,30.3149296030978,1.00000000062138,0.589854187478715
23499.9999999385,30.2545265311383,1.0000000006825,0.587140454253596
23599.9999999371,30.2244303650174,1.00000000069555,0.594693407287916
23699.9999999356,30.2278937277099,1.00000000071654,0.601066888746158
23799.9999999342,30.2748573331249,1.00000000077467,0.607738568992998
23899.9999999327,30.3703316007955,1.00000000078968,0.611632648667597
23999.9999999312,30.5155525725966,1.00000000077977,0.613696045049265
24099.9999999298,30.7162319575168,1.00000000075152,0.611251814956413
24199.9999999283,30.9647919177372,1.0000000007658,0.608234138412347
24299.9999999269,31.2738430621914,1.00000000078968,0.601688377357609
24399.9999999254,31.6190570920906,1.00000000074554,0.593809839271388
24499.999999924,32.0044083917942,1.0000000007486,0.586168897286353
24599.9999999225,32.3886024225345,1.00000000066487,0.579755481990039
24699.9999999211,32.7663377862318,1.00000000060044,0.569913632835966
24799.9999999196,33.0993477725973,1.00000000053585,0.556142333940137
24899.9999999181,33.3786684915031,1.00000000049049,0.536230618070512
24999.9999999167,33.5854549283523,1.00000000043222,0.511731365138052
25099.9999999152,33.7099035956267,1.00000000036812,0.486044554045409
25199.9999999138,33.7593314902166,1.00000000033089,0.458323491949086
25299.9999999123,33.7337103742218,1.00000000027923,0.428643881356881
25399.9999999109,33.6576970569471,1.0000000002149,0.398956479464457
25499.9999999094,33.5453704981895,1.00000000020014,0.372025634093663
25599.999999908,33.428879520465,1.00000000016862,0.346727358267587
25699.9999999065,33.3383398354529,1.00000000015497,0.32181138914423
25799.9999999051,33.3061512288184,1.00000000013658,0.301342150561323
25899.9999999036,33.3688155074462,1.00000000012826,0.286044825504022
25999.9999999021,33.560563142509,1.00000000012424,0.272039790300913
26099.9999999007,33.9068480033177,1.00000000013124,0.261465995737913
26199.9999998992,34.4460320109386,1.00000000015229,0.261833601646603
26299.9999998978,35.1769761411319,1.00000000016558,0.264514941804706
26399.9999998963,36.1398828298315,1.00000000017947,0.270866546849445
26499.9999998949,37.3004126668528,1.00000000022374,0.282650942694022
26599.9999998934,38.6812968093562,1.00000000027083,0.295952257592834
26699.999999892,40.2392162303376,1.00000000030654,0.314908691895717
26799.9999998905,41.9493885126113,1.00000000037926,0.333688625008391
26899.999999889,43.787095103262,1.00000000040597,0.353189445607236
26999.9999998876,45.6949938579353,1.0000000004732,0.372095697779813
27099.9999998861,47.6671672474501,1.00000000053363,0.390918592741167
27199.9999998847,49.6227801802721,1.00000000056319,0.407677524469668
27299.9999998832,51.5858915522214,1.00000000058849,0.419268418758372
27399.9999998818,53.4793668925568,1.00000000064637,0.434342286218738
27499.9999998803,55.3161369068084,1.00000000062052,0.451619545318614
27599.9999998789,57.0603573183806,1.00000000066209,0.470600723219952
27699.9999998774,58.715744336242,1.000000000601,0.482124240671253
27799.9999998759,60.2795611338052,1.00000000067219,0.490234874664575
27899.9999998745,61.7282538921928,1.00000000067021,0.49706686097738
27999.999999873,63.0856043481007,1.00000000064717,0.510677366653115
28099.9999998716,64.328137247183,1.00000000063053,0.52703274228343
28199.9999998701,65.4897381884635,1.00000000063412,0.535808690878011
28299.9999998687,66.5528720059762,1.00000000065357,0.538174988800803
28399.9999998672,67.5350486487674,1.00000000059339,0.536624669950753
28499.9999998658,68.4298531873213,1.00000000062255,0.545536225077915
28599.9999998643,69.237549612787,1.00000000059097,0.55760955792901
28699.9999998629,69.976873464636,1.00000000057464,0.570547691240313
28799.9999998614,70.6432268460327,1.00000000056088,0.568031482432676
28899.9999998599,71.2634136287409,1.00000000054495,0.567236528617672
28999.9999998585,71.8179442376837,1.00000000058622,0.564775262398362
29099.999999857,72.3210899575961,1.00000000056897,0.571419725384066
