Time,AGPnorm,Energy,Entropy
0,0,1,-7.48686537177326e-17
99.9999999999986,0.00173163797288639,0.9999999999998,0.00525104815087396
199.999999999993,0.0117705634625195,1.00000000000208,0.0154445408755159
300,0.023222490348189,1.00000000000328,0.0288125931850304
400.000000000022,0.0348909790644531,1.00000000000135,0.0456187202791831
500.000000000045,0.049645517191045,0.999999999999143,0.0657720274252821
600.000000000068,0.0680506644343841,1.00000000000068,0.0895351069094196
700.000000000091,0.0846298379033649,1.00000000000328,0.117418753630725
800.000000000113,0.102128214097166,1.00000000000394,0.15100698343601
900.000000000136,0.11930194565278,1.00000000001836,0.193385429240318
1000.00000000016,0.135114604516599,1.00000000013034,0.247131826277138
1100.0000000001,0.160039051048435,1.00000000038864,0.30659104839662
1200,0.23317139239449,1.00000000080821,0.362447614695599
1299.99999999991,0.395667642597513,1.00000000124195,0.410676568704524
1399.99999999982,0.743683936736129,1.00000000163302,0.451037043518165
1499.99999999973,1.39395104676407,1.0000000019045,0.484257974282991
1599.99999999964,2.41815599822637,1.00000000213681,0.512054503346303
1699.99999999955,3.86166056382072,1.00000000235362,0.534632517965463
1799.99999999946,5.7493515348912,1.00000000240177,0.551590419421745
1899.99999999937,8.0300554645372,1.00000000240744,0.564491798454593
1999.99999999928,10.6180555970033,1.00000000248453,0.575260483829995
2099.99999999919,13.4658168731702,1.00000000238777,0.58322828361041
2199.99999999909,16.5280825383549,1.00000000238885,0.587404516968793
2299.999999999,19.696054713603,1.00000000220806,0.590347975248445
2399.99999999891,22.8481146868371,1.00000000216674,0.59185253895547
2499.99999999882,25.9220052391832,1.00000000220025,0.593557888205389
2599.99999999873,28.895772214507,1.00000000204049,0.592723427184727
2699.99999999864,31.7194789848158,1.00000000205036,0.590545114454466
2799.99999999855,34.3222098290473,1.00000000189764,0.58909688886271
2899.99999999846,36.6658398260537,1.00000000184855,0.588501997501141
2999.99999999837,38.7460405459406,1.00000000179995,0.586015587352511
3099.99999999828,40.5725954701815,1.0000000016503,0.581775146974483
3199.99999999819,42.1334067520194,1.00000000165107,0.579089834410055
3299.99999999809,43.4142450314068,1.00000000156331,0.579171985501287
3399.999999998,44.4249817862358,1.00000000156729,0.576576108949817
3499.99999999791,45.1874245889203,1.00000000150274,0.5777460596643
3599.99999999782,45.7207562680112,1.00000000136718,0.571180608380582
3699.99999999773,46.0447248511409,1.00000000144122,0.574978789050502
3799.99999999764,46.1674384291846,1.00000000130555,0.565960746051587
3899.99999999755,46.1229900874214,1.00000000145304,0.577853160288997
3999.99999999746,45.9316506404191,1.00000000115388,0.550886832185876
4099.99999999738,45.6346850723268,1.00000000148193,0.580479772944526
4199.99999999775,45.240014801021,1.00000000113662,0.538429657407758
4299.99999999811,44.7566137043503,1.00000000157041,0.582568817944568
4399.99999999848,44.2389657847364,1.00000000117177,0.541076497242993
4499.99999999884,43.6408181132081,1.0000000013811,0.549069436541375
4599.9999999992,43.0467854852025,1.00000000171293,0.573523600826142
4699.99999999957,42.4231350193001,1.00000000115517,0.514038834795404
4799.99999999993,41.7604023614429,1.00000000164231,0.562263300406029
4900.00000000029,41.1248718921613,1.00000000162835,0.550402133960875
5000.00000000066,40.4727280449633,1.00000000115541,0.500726393946706
5100.00000000102,39.8015430263994,1.00000000156422,0.539710636204465
5200.00000000139,39.1600996504555,1.00000000174542,0.556500893945227
5300.00000000175,38.5270964033787,1.0000000011748,0.493930745625576
5400.00000000211,37.8801430000055,1.00000000128657,0.507708923960742
5500.00000000248,37.2474451242135,1.00000000177725,0.551113867783468
5600.00000000284,36.6415094674882,1.00000000157407,0.522397885195345
5700.00000000321,36.0441747986985,1.00000000114925,0.490882472069785
5800.00000000357,35.4494521655384,1.00000000138748,0.512299951530811
5900.00000000393,34.8683095837817,1.00000000154684,0.533528105987256
6000.0000000043,34.3078135876319,1.00000000163065,0.527736292753286
6100.00000000466,33.7633885013419,1.00000000121159,0.490710696683413
6200.00000000502,33.2328745878208,1.00000000137931,0.518916586846763
6300.00000000539,32.7153278670432,1.00000000138833,0.519328957825368
6400.00000000575,32.2132014022097,1.00000000153449,0.526970963040271
6500.00000000612,31.7262498598271,1.00000000153027,0.519445250973122
6600.00000000648,31.2563384707778,1.00000000120207,0.500941279675466
6700.00000000684,30.8057086411544,1.00000000135164,0.51967329537392
6800.00000000721,30.3681633238376,1.0000000015269,0.535124578853518
6900.00000000757,29.947256548056,1.0000000011942,0.506163874074883
7000.00000000793,29.5423956096047,1.00000000152991,0.519819704385382
7100.0000000083,29.1467303269859,1.00000000161955,0.520389751898696
7200.00000000866,28.7675586865595,1.00000000127472,0.505516777418774
7300.00000000903,28.4078768785737,1.00000000137205,0.51543589565064
7400.00000000939,28.0582046132814,1.00000000160881,0.535027924350482
7500.00000000975,27.7187764568687,1.00000000133343,0.526464919856461
7600.00000001012,27.3993745627594,1.00000000132476,0.499200163600202
7700.00000001048,27.0930123604304,1.00000000161653,0.52641869150765
7800.00000001084,26.7920733014981,1.00000000156728,0.525472020098863
7900.00000001121,26.50253230018,1.00000000129854,0.508491944639458
8000.00000001157,26.2292878057317,1.00000000136583,0.518610068913369
8100.00000001194,25.9684002535039,1.00000000149055,0.528314460034186
8200.0000000123,25.7107704498751,1.00000000163247,0.529590916667242
8300.00000001266,25.4612527131179,1.00000000141451,0.529773661002802
8400.00000001303,25.2273420133386,1.00000000126822,0.513532247263068
8500.00000001339,25.0056527834576,1.00000000144404,0.520690002855429
8600.00000001376,24.7915212398616,1.00000000153808,0.537413516261129
8700.00000001412,24.5824046545652,1.00000000155043,0.531328202396091
8800.00000001448,24.3842869621924,1.00000000141267,0.518172228792975
8900.00000001485,24.199480918425,1.00000000142893,0.528240095558705
9000.00000001521,24.0214126455062,1.00000000144529,0.540732125195547
9100.00000001557,23.8517087754029,1.00000000143255,0.531623559121083
9200.00000001594,23.6873965480117,1.00000000149734,0.524741760068205
9300.0000000163,23.5242716698484,1.000000001598,0.541914908037466
9400.00000001667,23.3642052594694,1.00000000145924,0.548054154494532
9500.00000001703,23.2153173296605,1.0000000013152,0.528733257257075
9600.00000001739,23.0778226724379,1.0000000014739,0.540751520509903
9700.00000001776,22.9433073272665,1.00000000161874,0.549661543065455
9800.00000001812,22.8127205774564,1.00000000148397,0.533696325920361
9900.00000001848,22.6909471927636,1.00000000132888,0.534195986367028
10000.0000000188,22.5818588070725,1.00000000141725,0.537137018050414
10100.0000000192,22.4741418628817,1.00000000161805,0.547509175963291
10200.0000000196,22.3650848181982,1.00000000153416,0.548182121930504
10300.0000000199,22.2676448437174,1.00000000123039,0.526906908191767
10400.0000000203,22.1807814489773,1.00000000148928,0.53975345195259
10500.0000000207,22.0906494448021,1.00000000154023,0.541330697745763
10600.000000021,21.9938378904066,1.00000000160146,0.55632826276242
10700.0000000214,21.895390152861,1.00000000143145,0.562636447364645
10800.0000000218,21.8009194236464,1.00000000141687,0.557742844108595
10900.0000000221,21.7116821922652,1.00000000143382,0.559780384333504
11000.0000000225,21.627010947891,1.00000000155462,0.557628760326611
11100.0000000229,21.5480232823302,1.00000000152513,0.55198984447213
11200.0000000232,21.4758678995279,1.00000000147563,0.540549251191163
11300.0000000236,21.4124909882733,1.00000000148653,0.541695450365465
11400.0000000239,21.3564071213942,1.0000000015019,0.556969869905761
11500.0000000243,21.3036022865433,1.00000000160434,0.560304683640302
11600.0000000247,21.2517502386581,1.00000000157712,0.55523987489402
11700.000000025,21.199794602182,1.00000000145962,0.553086681538739
11800.0000000254,21.1519649771207,1.00000000147607,0.554278448639861
11900.0000000258,21.1115108359811,1.00000000140794,0.549300104062496
12000.0000000261,21.0761840515113,1.00000000146924,0.558439113206236
12100.0000000265,21.0409534217598,1.00000000156836,0.566932142624953
12200.0000000269,21.004433600239,1.00000000154137,0.563831574025975
12300.0000000272,20.9615990054528,1.00000000163708,0.576294856236031
12400.0000000276,20.9098643840409,1.00000000160394,0.583050188606895
12500.0000000279,20.8508116924352,1.00000000160659,0.591900246682103
12600.0000000283,20.7895428886064,1.00000000153176,0.592766071692726
12700.0000000287,20.7328305839353,1.00000000146046,0.58047437276492
12800.000000029,20.6832279471642,1.00000000146122,0.577680755566837
12900.0000000294,20.6404539386387,1.00000000158823,0.572602324530598
13000.0000000298,20.6052083625974,1.00000000160276,0.558676090825523
13100.0000000301,20.5761816306787,1.00000000150566,0.554864558981514
13200.0000000305,20.5536989435235,1.00000000148155,0.559777424132741
13300.0000000309,20.5353870445811,1.00000000151654,0.566707238428028
13400.0000000312,20.5183274727593,1.0000000016774,0.578564216450458
13500.0000000316,20.5022168335287,1.00000000156137,0.573823301482871
13600.0000000319,20.4880165973323,1.00000000142875,0.566622556075959
13700.0000000323,20.4777708119249,1.00000000157089,0.558901981947984
13800.0000000327,20.4701365494629,1.00000000158408,0.556446290010344
13900.000000033,20.4607289777439,1.00000000164965,0.570313198829871
14000.0000000334,20.4536207883127,1.00000000147353,0.572483823577418
14100.0000000338,20.451448226898,1.00000000158843,0.578463614050173
14200.0000000341,20.4516615519459,1.00000000161253,0.588464740085234
14300.0000000345,20.4492981355941,1.00000000161714,0.601148302273833
14400.0000000349,20.4390760942154,1.00000000164877,0.603742970228658
14500.0000000352,20.4227111059214,1.00000000159649,0.607878624435397
14600.0000000356,20.4039503870473,1.00000000159074,0.598340007927012
14700.0000000359,20.3809062709506,1.00000000156568,0.596015842113215
14800.0000000363,20.3508604870897,1.00000000163719,0.601768750700653
14900.0000000367,20.3143901991354,1.00000000175672,0.596836924106103
15000.000000037,20.2718236620879,1.00000000166356,0.600950432938522
15100.0000000374,20.228039851862,1.00000000158177,0.603390129232921
15200.0000000378,20.1860117329571,1.00000000146103,0.597068085415091
15300.0000000381,20.1490855094154,1.00000000155716,0.59309735374773
15400.0000000385,20.1186023299033,1.00000000156409,0.587559052415814
15500.0000000389,20.0939661086611,1.00000000156889,0.577873036067309
15600.0000000392,20.0760487947964,1.00000000162184,0.573558685235784
15700.0000000396,20.0660178345565,1.00000000146516,0.568455676325223
15800.0000000399,20.0630624642868,1.00000000155089,0.569905482510391
15900.0000000403,20.0649939645306,1.00000000158517,0.575713488129279
16000.0000000407,20.0688264882334,1.00000000164113,0.589834741846085
16100.000000041,20.0748121860222,1.00000000164653,0.582968658831839
16200.0000000414,20.0792764640218,1.0000000017257,0.583936346846747
16300.0000000418,20.0842945651177,1.00000000154431,0.575890601600412
16400.0000000418,20.0925324436976,1.00000000157915,0.572704922177628
16500.0000000404,20.1031633455809,1.00000000164952,0.579859415148315
16600.0000000389,20.1139974146445,1.00000000164304,0.587567258850558
16700.0000000375,20.1248989184389,1.00000000157877,0.587483432386529
16800.000000036,20.1374771709367,1.00000000158012,0.585600913437123
16900.0000000346,20.149305838863,1.00000000161638,0.584766144459848
17000.0000000331,20.1624830844522,1.00000000162402,0.582674989950537
17100.0000000317,20.1764113322355,1.00000000157902,0.580343372686496
17200.0000000302,20.1919432214192,1.00000000159791,0.596211701187543
17300.0000000287,20.2069192677169,1.00000000162224,0.606846433978977
17400.0000000273,20.2191654921738,1.00000000168012,0.614835627475446
17500.0000000258,20.2263853724076,1.00000000174148,0.628328147018608
17600.0000000244,20.2286003057018,1.00000000167514,0.628808084989066
17700.0000000229,20.2261510176324,1.00000000169611,0.626575658433912
17800.0000000215,20.2205683057903,1.0000000016592,0.623407869051594
17900.00000002,20.2110154945406,1.00000000165085,0.626688235934166
18000.0000000186,20.1984189006059,1.00000000161294,0.627679290552532
18100.0000000171,20.1830938284398,1.00000000166871,0.63387820295659
18200.0000000156,20.1664613570563,1.00000000163669,0.631992061123189
18300.0000000142,20.1479192678575,1.0000000016933,0.635890911166579
18400.0000000127,20.1246726709509,1.00000000175239,0.639097231805555
18500.0000000113,20.0939838331492,1.00000000179251,0.64090475456849
18600.0000000098,20.0568065730981,1.00000000165814,0.63138395606357
18700.0000000084,20.0164628661539,1.00000000177923,0.632358879826189
18800.0000000069,19.9734632566665,1.00000000166435,0.625709987620134
18900.0000000055,19.9326231916647,1.00000000163256,0.623008825072509
19000.000000004,19.8950013958048,1.00000000167278,0.621811799859016
19100.0000000026,19.8612926479178,1.00000000161859,0.620460447570808
19200.0000000011,19.8336092584791,1.00000000158872,0.616532058698286
19299.9999999996,19.8114607591198,1.00000000161907,0.613340053047679
19399.9999999982,19.794288084678,1.00000000164645,0.616186512791374
19499.9999999967,19.7826771459816,1.00000000169571,0.612388217859754
19599.9999999953,19.7762643662589,1.00000000168443,0.60168980320248
19699.9999999938,19.7771818130717,1.00000000156329,0.589515963945205
19799.9999999924,19.7840622887231,1.00000000166089,0.594147195487438
19899.9999999909,19.7947483873781,1.00000000157486,0.600291898101393
19999.9999999895,19.8070848940117,1.00000000173166,0.602643399050378
20099.999999988,19.8198243120801,1.00000000170494,0.608149400954594
20199.9999999865,19.8344553099927,1.00000000166801,0.606484554965457
20299.9999999851,19.8508626344726,1.000000001721,0.603394310574817
20399.9999999836,19.867565280175,1.00000000167631,0.603738600912029
20499.9999999822,19.8862900945018,1.00000000170922,0.596703801921332
20599.9999999807,19.906080281784,1.00000000168888,0.591730983355243
20699.9999999793,19.9282068643176,1.00000000175877,0.597092597018772
20799.9999999778,19.9508794214727,1.00000000170265,0.600796450941296
20899.9999999764,19.9734253936637,1.00000000176749,0.606804957116629
20999.9999999749,19.9945447175813,1.00000000166282,0.60631286173073
21099.9999999734,20.0151515135478,1.00000000173234,0.606914512150036
21199.999999972,20.0366263670282,1.00000000167525,0.610944554708842
21299.9999999705,20.0611977270087,1.00000000164519,0.613823816889225
21399.9999999691,20.0855738891858,1.00000000179725,0.618759410657053
21499.9999999676,20.1081694198488,1.00000000172746,0.628565494229722
21599.9999999662,20.1266353500964,1.0000000017584,0.637647788043121
21699.9999999647,20.1411949113219,1.00000000178325,0.65235017749354
21799.9999999633,20.1516023252167,1.00000000178366,0.654231284200188
21899.9999999618,20.1607952566655,1.00000000176949,0.649781139998568
21999.9999999603,20.1684715419837,1.00000000168369,0.642422954424283
22099.9999999589,20.1760908142628,1.00000000175044,0.640123348711194
22199.9999999574,20.1864024162645,1.00000000175004,0.649327470981807
22299.999999956,20.1971668710991,1.00000000174503,0.654721775741146
22399.9999999545,20.2072761413239,1.00000000176136,0.652923355207847
22499.9999999531,20.2144802652859,1.00000000183398,0.654348512795777
22599.9999999516,20.2175601477631,1.00000000177673,0.650633723598173
22699.9999999502,20.218729086006,1.00000000177403,0.653666866809586
22799.9999999487,20.2173437617238,1.0000000018928,0.651718936547221
22899.9999999473,20.2149719580294,1.00000000180331,0.656296339488646
22999.9999999458,20.21186920563,1.00000000177089,0.645109191708832
23099.9999999443,20.2077606050121,1.00000000190098,0.646252399742125
23199.9999999429,20.2015379083952,1.0000000017948,0.638574292702453
23299.9999999414,20.1935454111244,1.0000000018104,0.643688282520005
23399.99999994,20.183976419619,1.00000000180417,0.645189829938063
23499.9999999385,20.1750904081737,1.00000000177368,0.649798857380961
23599.9999999371,20.1651393997943,1.00000000187892,0.652930206431545
23699.9999999356,20.1521825852896,1.00000000184546,0.662489797745457
23799.9999999342,20.1382094559402,1.00000000188286,0.662216286266018
23899.9999999327,20.1228062890281,1.00000000181457,0.660640512779714
23999.9999999312,20.1050127093476,1.0000000018502,0.664896916382847
24099.9999999298,20.0871270738072,1.0000000017253,0.659063943001392
24199.9999999283,20.0653512015958,1.00000000197708,0.65810329717621
24299.9999999269,20.0403912586322,1.00000000185648,0.650498148609574
24399.9999999254,20.0142361174472,1.00000000175781,0.655622777610174
24499.999999924,19.9866932124913,1.00000000185729,0.655891189706831
24599.9999999225,19.9584223102886,1.00000000189157,0.658964899396134
24699.9999999211,19.9283463937719,1.00000000187905,0.664251418701663
24799.9999999196,19.895320403127,1.00000000195344,0.668742800513929
24899.9999999181,19.8584418356384,1.0000000019116,0.66439682645298
24999.9999999167,19.8194921073551,1.00000000182317,0.665832033991182
25099.9999999152,19.7804695871716,1.00000000190876,0.663442849928664
25199.9999999138,19.742999869852,1.00000000176155,0.66321562315706
25299.9999999123,19.7077665387235,1.00000000176484,0.661595437869114
25399.9999999109,19.6758464736645,1.00000000177666,0.658292313395611
25499.9999999094,19.6470578110641,1.00000000183135,0.645389748852425
25599.999999908,19.6214541879641,1.00000000178099,0.639407794444467
25699.9999999065,19.6001641888372,1.00000000174927,0.640801691689343
25799.9999999051,19.5848037762056,1.00000000188771,0.64676697531205
25899.9999999036,19.5737527594814,1.00000000191322,0.6492981020621
25999.9999999021,19.5667723354799,1.00000000182941,0.648474257302442
26099.9999999007,19.566064361897,1.0000000017775,0.647004266252552
26199.9999998992,19.5705090166588,1.00000000188015,0.640949098343196
26299.9999998978,19.5817032243625,1.00000000170629,0.632959615954079
26399.9999998963,19.5995745444063,1.00000000181116,0.623901654380959
26499.9999998949,19.6209145045632,1.00000000201062,0.627146918937581
26599.9999998934,19.6450866615213,1.00000000177289,0.620852654527258
26699.999999892,19.6724637771069,1.00000000193815,0.627684537688997
26799.9999998905,19.6984614190758,1.00000000206876,0.626620718464478
26899.999999889,19.7257510436441,1.00000000173337,0.610862741803406
26999.9999998876,19.756367415216,1.00000000187945,0.616111110243914
27099.9999998861,19.78713863871,1.0000000019414,0.611174316262644
27199.9999998847,19.8198768529213,1.00000000185676,0.607620203094035
27299.9999998832,19.8565525556458,1.00000000191155,0.618920775324286
27399.9999998818,19.8943216894023,1.00000000200351,0.614359232389963
27499.9999998803,19.9318681287274,1.00000000181741,0.60888943914004
27599.9999998789,19.9710188289224,1.0000000019402,0.613434347467498
27699.9999998774,20.0121538252875,1.00000000194509,0.613419786885667
27799.9999998759,20.0518907305,1.00000000199638,0.621297077042443
27899.9999998745,20.0927896372112,1.00000000190809,0.616477076443848
27999.999999873,20.1350816859365,1.00000000198213,0.618260406852536
28099.9999998716,20.1765403553731,1.00000000191593,0.617544336053205
28199.9999998701,20.2196259472448,1.0000000019577,0.617327146267632
28299.9999998687,20.2611061726584,1.00000000198056,0.619943716974845
28399.9999998672,20.3044541351513,1.00000000197231,0.624052823628769
28499.9999998658,20.3503091968254,1.00000000200711,0.628719520229455
28599.9999998643,20.3941557913603,1.00000000200212,0.639725878942485
28699.9999998629,20.4385857708828,1.00000000200277,0.640487291245213
28799.9999998614,20.4814456647094,1.00000000220872,0.645546651364986
28899.9999998599,20.5196458744269,1.00000000212395,0.647939302838159
28999.9999998585,20.5581611670408,1.00000000193508,0.650460736137836
