Time,AGPnorm,Energy,Entropy
0,0,1,9.37002252365863e-18
99.9999999999986,0.0113738110809682,1.00000000000144,0.0303935791655867
199.999999999993,0.0295461288080299,1.00000000000043,0.0882951795763933
300,0.0560370308440663,1.00000000001463,0.182944195624187
400.000000000022,0.0912524303442465,1.00000000066108,0.333012929208652
500.000000000045,0.261886413861348,1.00000000241699,0.473982467218997
600.000000000068,1.06767847167377,1.00000000389636,0.550839188235901
700.000000000091,2.66108442307142,1.00000000431475,0.584963144293101
800.000000000113,4.80657912118241,1.00000000438775,0.596481570524793
900.000000000136,7.14471158568197,1.0000000040681,0.593265945993924
1000.00000000016,9.25646205901933,1.00000000350017,0.585457882765836
1100.0000000001,10.9783293867711,1.0000000030759,0.575112779538788
1200,12.1686486764867,1.00000000283458,0.562890832127487
1299.99999999991,12.8600102319726,1.00000000268643,0.557332660635965
1399.99999999982,13.1247612316386,1.00000000243164,0.564887766133702
1499.99999999973,13.0477747154872,1.00000000287279,0.579304531846555
1599.99999999964,12.7694194132597,1.00000000194552,0.495677839853293
1699.99999999955,12.4210895687948,1.00000000258987,0.525113746410421
1799.99999999946,11.9516550669357,1.00000000297284,0.531992029038582
1899.99999999937,11.5202659935223,1.00000000204917,0.479393322402099
1999.99999999928,11.0347282724124,1.00000000257906,0.492314199461894
2099.99999999919,10.5930202721605,1.00000000274183,0.538146065230651
2199.99999999909,10.1700662294198,1.0000000018362,0.427592957577325
2299.999999999,9.74571455910314,1.00000000274955,0.534524543338427
2399.99999999891,9.35818448485164,1.00000000308888,0.544388974615704
2499.99999999882,9.02174037525075,1.00000000174301,0.419435686227378
2599.99999999873,8.69607664642294,1.00000000266174,0.525770704620121
2699.99999999864,8.38719377358215,1.00000000275683,0.537427502236621
2799.99999999855,8.0910679971605,1.00000000290139,0.548379710949957
2899.99999999846,7.86131806424069,1.00000000156512,0.428171239311557
2999.99999999837,7.66671868736308,1.00000000281312,0.503090326780102
3099.99999999828,7.46215688798942,1.00000000270394,0.538767681432877
3199.99999999819,7.26770602862194,1.00000000262079,0.556399141268367
3299.99999999809,7.06741986686216,1.00000000312849,0.557017712962027
3399.999999998,6.88410762315573,1.00000000228101,0.519687392513427
3499.99999999791,6.78774964890441,1.00000000192016,0.446860565573502
3599.99999999782,6.7198741012517,1.00000000275352,0.511890161023252
3699.99999999773,6.63368539647946,1.00000000260633,0.545420343919647
3799.99999999764,6.54941952617515,1.0000000026984,0.564235202054803
3899.99999999755,6.44731533641439,1.0000000030873,0.585834908379716
3999.99999999746,6.33856329311333,1.00000000264564,0.580175997840296
4099.99999999738,6.22157072918563,1.00000000303855,0.579046611283672
4199.99999999775,6.09919581219466,1.00000000289135,0.574939533225427
4299.99999999811,6.02711245837734,1.00000000185048,0.492240733764885
4399.99999999848,6.04518544323628,1.00000000206113,0.486756655230952
4499.99999999884,6.07428720078219,1.00000000304924,0.533174854357003
4599.9999999992,6.08811249847128,1.00000000280771,0.55227969646231
4699.99999999957,6.08506184962828,1.00000000275301,0.584495261184511
4799.99999999993,6.06131552858721,1.00000000297199,0.600589952245251
4900.00000000029,6.04090877392563,1.00000000252379,0.597814533108851
5000.00000000066,6.01179458740108,1.00000000272073,0.606247345435289
5100.00000000102,5.96560467697471,1.00000000293245,0.596524908101789
5200.00000000139,5.90435457165672,1.0000000028442,0.61457024048228
5300.00000000175,5.84074478381232,1.00000000258755,0.615319142457766
5400.00000000211,5.77049981723389,1.00000000285341,0.616773885984872
5500.00000000248,5.69358468047807,1.00000000305351,0.617697008654585
5600.00000000284,5.6144199726657,1.00000000324845,0.591158588501858
5700.00000000321,5.56356645758358,1.00000000197787,0.537247879787948
5800.00000000357,5.59381965934466,1.00000000213548,0.494718490476927
5900.00000000393,5.69153717314375,1.00000000239272,0.517767802807446
6000.0000000043,5.78898147454717,1.00000000311476,0.554535795007435
6100.00000000466,5.86884597812772,1.00000000285786,0.568750121075938
6200.00000000502,5.93553813877756,1.0000000030683,0.583625552477832
6300.00000000539,5.98553889232544,1.00000000289291,0.613153255735539
6400.00000000575,6.01343489950148,1.00000000314745,0.628606953979143
6500.00000000612,6.02961221292359,1.0000000029823,0.635469730468844
6600.00000000648,6.0352977287697,1.00000000299664,0.633492517218935
6700.00000000684,6.02792520031652,1.00000000326081,0.638779097582863
6800.00000000721,6.02006622784175,1.00000000272339,0.626771059582791
6900.00000000757,6.01755483393638,1.0000000028236,0.623829703551684
7000.00000000793,6.01448625706353,1.00000000302019,0.609054958017453
7100.0000000083,5.99786486759515,1.00000000317692,0.620122206577338
7200.00000000866,5.97958211261235,1.00000000280251,0.635118545885362
7300.00000000903,5.96169676512651,1.00000000298501,0.647469977607152
7400.00000000939,5.93993119176143,1.00000000276527,0.64110701506755
7500.00000000975,5.91701624131825,1.00000000312375,0.628556252641553
7600.00000001012,5.89342735177171,1.00000000322962,0.627109602296009
7700.00000001048,5.85753309834923,1.00000000323151,0.646526200674797
7800.00000001084,5.81190976418355,1.00000000313738,0.656347235285676
7900.00000001121,5.76038918861022,1.0000000031932,0.658504733508345
8000.00000001157,5.70904018037847,1.00000000283267,0.660411224919829
8100.00000001194,5.65838947632717,1.0000000031304,0.657606415377359
8200.0000000123,5.60922043881341,1.0000000035843,0.666100968012265
8300.00000001266,5.56135861604137,1.00000000370348,0.648443065798633
8400.00000001303,5.50936174207885,1.00000000336605,0.615696365942134
8500.00000001339,5.46159555361495,1.000000002696,0.575863884653752
8600.00000001376,5.45130252019944,1.0000000022268,0.535063852542553
8700.00000001412,5.51111761472988,1.00000000225965,0.520390725141266
8800.00000001448,5.63924122557705,1.00000000261082,0.527910799845215
8900.00000001485,5.79556195861692,1.00000000297628,0.541623636804359
9000.00000001521,5.94813087907731,1.00000000354523,0.564350162464941
9100.00000001557,6.09194279627189,1.00000000333581,0.571367464465233
9200.00000001594,6.22073647920583,1.00000000305146,0.583126105925159
9300.0000000163,6.34085504113859,1.00000000339501,0.602024027727602
9400.00000001667,6.4407972449465,1.00000000339304,0.607971387804065
9500.00000001703,6.52833422814615,1.00000000338298,0.632105160990385
9600.00000001739,6.60096861443691,1.00000000327524,0.644576622323458
9700.00000001776,6.66272147017575,1.00000000312794,0.63315941106822
9800.00000001812,6.71641348644027,1.00000000348864,0.645646702393094
9900.00000001848,6.76152321844383,1.00000000363083,0.661899962281371
10000.0000000188,6.79554890406558,1.00000000334764,0.673571803268532
10100.0000000192,6.82980575753056,1.00000000344192,0.65938805640818
10200.0000000196,6.86226972076077,1.00000000339346,0.66357686339855
10300.0000000199,6.88248865222835,1.00000000353529,0.677863000679029
10400.0000000203,6.89687682586357,1.0000000032558,0.673247324834471
10500.0000000207,6.91377060974474,1.00000000349267,0.670671405715174
10600.000000021,6.91884316147304,1.00000000365143,0.682020797179167
10700.0000000214,6.92057577142763,1.00000000353869,0.675332021790269
10800.0000000218,6.91415298603714,1.00000000315327,0.662131311493486
10900.0000000221,6.90719035663229,1.00000000357549,0.678867096645538
11000.0000000225,6.89560816118337,1.00000000360819,0.678141349879511
11100.0000000229,6.87965805182002,1.00000000356298,0.681979944096569
11200.0000000232,6.86863631215787,1.00000000353339,0.664520668061022
11300.0000000236,6.86789791990676,1.00000000324568,0.654099841391201
11400.0000000239,6.88282933806931,1.00000000336149,0.638522773196412
11500.0000000243,6.90957459075365,1.00000000314754,0.633648957128797
11600.0000000247,6.94286596962487,1.00000000388255,0.63482965883326
11700.000000025,6.96787987743343,1.00000000375033,0.631027991148809
11800.0000000254,6.9899506958607,1.00000000341594,0.643765658701183
11900.0000000258,7.00892854003801,1.00000000349258,0.653661572471895
12000.0000000261,7.0311471787813,1.00000000359187,0.657184889263758
12100.0000000265,7.04605893490036,1.00000000397762,0.656579243138533
12200.0000000269,7.06141065503182,1.00000000365838,0.665527016261633
12300.0000000272,7.07827791682301,1.00000000382437,0.666686329875215
12400.0000000276,7.09542306163741,1.00000000369825,0.673678757885353
12500.0000000279,7.10260170126821,1.00000000423475,0.682419854816742
12600.0000000283,7.11601013525087,1.00000000381696,0.673360455164755
12700.0000000287,7.1316698984538,1.00000000379898,0.669866425431371
12800.000000029,7.15649515749277,1.00000000368852,0.665492377387255
12900.0000000294,7.18398879618843,1.00000000384645,0.654809799794994
13000.0000000298,7.20666665095752,1.00000000385757,0.68421150939013
13100.0000000301,7.2322581793697,1.00000000371635,0.681448865482434
13200.0000000305,7.26239842759984,1.00000000363095,0.689549915196832
13300.0000000309,7.29004567565432,1.00000000360435,0.681111950791405
13400.0000000312,7.3186412606395,1.00000000390444,0.664641831672233
13500.0000000316,7.34311802484006,1.00000000397312,0.694873115471833
13600.0000000319,7.36483387191847,1.00000000375394,0.687480549153652
13700.0000000323,7.38638881857657,1.00000000427668,0.693457622250198
13800.0000000327,7.40288878517121,1.00000000403621,0.684034555083309
13900.000000033,7.42353293556934,1.00000000398663,0.698748244290975
14000.0000000334,7.44869385871596,1.00000000360073,0.678295948291522
14100.0000000338,7.46958394949561,1.00000000430101,0.693122583702872
14200.0000000341,7.47792018276899,1.00000000396489,0.685027750556201
14300.0000000345,7.49114991662966,1.00000000391736,0.676259702777849
14400.0000000349,7.50459377484313,1.0000000040569,0.686481949791949
14500.0000000352,7.51512947237888,1.00000000380787,0.678465072757916
14600.0000000356,7.52329545213388,1.00000000415014,0.692337044598566
14700.0000000359,7.52990490769033,1.00000000422244,0.675964289144953
14800.0000000363,7.53969392377449,1.00000000448027,0.695108911008367
14900.0000000367,7.5439462471825,1.00000000430141,0.698695254573583
15000.000000037,7.54975689151688,1.00000000365428,0.685174869506234
15100.0000000374,7.55619220846083,1.00000000402667,0.695769358054037
15200.0000000378,7.55369741850462,1.00000000425161,0.698255235349017
15300.0000000381,7.54995989383543,1.00000000417367,0.697849191987222
15400.0000000385,7.541581198446,1.00000000452691,0.700693077297441
15500.0000000389,7.52750962123738,1.00000000467788,0.684011978911275
15600.0000000392,7.50463412078813,1.00000000443129,0.699939244788985
15700.0000000396,7.47576505280916,1.00000000462097,0.694834220368784
15800.0000000399,7.44573458969498,1.00000000414747,0.706113658942262
15900.0000000403,7.41420344996738,1.00000000420518,0.696275440782785
16000.0000000407,7.38436924666561,1.00000000414838,0.706788312216943
16100.000000041,7.35692898455032,1.00000000379522,0.696103237914063
16200.0000000414,7.33256265041181,1.00000000498478,0.705965531552418
16300.0000000418,7.3147875922311,1.00000000440639,0.697113507022199
16400.0000000418,7.29984269617726,1.00000000464281,0.710520515228029
16500.0000000404,7.29360054291013,1.00000000442481,0.707525306062859
16600.0000000389,7.28887585968153,1.0000000046738,0.713091724087097
16700.0000000375,7.2874750996408,1.00000000466463,0.698735833396885
16800.000000036,7.28094058574152,1.00000000433957,0.675459032555166
16900.0000000346,7.27565003377033,1.00000000436495,0.667556406875998
17000.0000000331,7.26875370178107,1.00000000446881,0.640797411935599
17100.0000000317,7.28196885406438,1.00000000414358,0.623343734572301
17200.0000000302,7.32941802264671,1.00000000375263,0.608264044542461
17300.0000000287,7.43627900711706,1.00000000339987,0.589584276776762
17400.0000000273,7.60797803850078,1.00000000341086,0.577943220347398
17500.0000000258,7.861520267834,1.00000000365605,0.576217133394686
17600.0000000244,8.16474182058816,1.00000000413183,0.579946307944355
17700.0000000229,8.53275645318355,1.00000000396946,0.592783703017643
17800.0000000215,8.90261716109246,1.00000000471895,0.589944551450138
17900.00000002,9.29640657438296,1.00000000446095,0.594389235431377
18000.0000000186,9.66153670289454,1.00000000486071,0.605576321847127
18100.0000000171,10.0445403861024,1.00000000449465,0.606568823904916
18200.0000000156,10.4103843817699,1.00000000430597,0.615998232941624
18300.0000000142,10.7696992805151,1.00000000465263,0.617355973782733
18400.0000000127,11.1252495598771,1.00000000451747,0.623831730365665
18500.0000000113,11.4594361943096,1.00000000454134,0.619474811494336
18600.0000000098,11.8046037759919,1.00000000466079,0.635084228347158
18700.0000000084,12.1270028442528,1.00000000445979,0.636153579644931
18800.0000000069,12.4537418810862,1.00000000474644,0.639241022580855
18900.0000000055,12.7513489844406,1.00000000451198,0.659584561687255
19000.000000004,13.0407415895257,1.00000000467778,0.660356814511317
19100.0000000026,13.3092923597827,1.00000000486698,0.687269837131656
19200.0000000011,13.5654450872939,1.00000000419022,0.678230231632632
19299.9999999996,13.8354492876454,1.00000000510751,0.680316859781346
19399.9999999982,14.073576834468,1.00000000445995,0.664916075651946
19499.9999999967,14.3107442677042,1.00000000492214,0.695117744790742
19599.9999999953,14.5313350964566,1.00000000478576,0.690071990181698
19699.9999999938,14.744291320871,1.00000000448528,0.676095577599133
19799.9999999924,14.9580064461765,1.00000000420287,0.697622016800774
19899.9999999909,15.1608532943105,1.00000000482132,0.691429059584651
19999.9999999895,15.3636604531479,1.0000000044511,0.689754811317954
20099.999999988,15.553055207608,1.0000000048336,0.700061071930471
20199.9999999865,15.7425952625447,1.00000000461804,0.704809779922828
20299.9999999851,15.9285489144368,1.00000000468105,0.704749593767441
20399.9999999836,16.1249909075148,1.00000000464219,0.694316134265587
20499.9999999822,16.3105927492014,1.00000000504159,0.700910480338795
20599.9999999807,16.4747621168649,1.00000000474343,0.689637577670233
20699.9999999793,16.6280270949586,1.0000000045825,0.709072653098908
20799.9999999778,16.7750876599672,1.00000000518532,0.709024757858198
20899.9999999764,16.935438341152,1.00000000477044,0.709985540917738
20999.9999999749,17.107330274016,1.00000000518252,0.698441066561964
21099.9999999734,17.283726769286,1.0000000049982,0.698746048774153
21199.999999972,17.4471803294192,1.00000000485137,0.705504996087532
21299.9999999705,17.6039692676019,1.00000000516738,0.713169817956106
21399.9999999691,17.7618830007667,1.00000000494994,0.714769318570672
21499.9999999676,17.9180614712353,1.00000000490882,0.714514041015189
21599.9999999662,18.0725433179745,1.00000000506799,0.703872303462662
21699.9999999647,18.2226191854077,1.00000000502854,0.704870816332676
21799.9999999633,18.3722101051723,1.00000000533128,0.690299394922434
21899.9999999618,18.519161098532,1.00000000528746,0.704171297670511
21999.9999999603,18.6635763871637,1.00000000521603,0.716338047033532
22099.9999999589,18.8098214562622,1.00000000508642,0.712924424123024
22199.9999999574,18.9627326704123,1.00000000521639,0.705359297003542
22299.999999956,19.1226111980806,1.00000000533793,0.706194261486698
22399.9999999545,19.283171526337,1.00000000486168,0.707969077238976
22499.9999999531,19.4469550269609,1.00000000488016,0.698381263722574
22599.9999999516,19.6057260650017,1.00000000536348,0.713976135134689
22699.9999999502,19.7626684325563,1.00000000487103,0.706134629117326
22799.9999999487,19.9219676817688,1.0000000054031,0.674017890453831
22899.9999999473,20.0903691911438,1.00000000479026,0.686493157969363
22999.9999999458,20.2617992283793,1.00000000470498,0.690815690530121
23099.9999999443,20.4377662041035,1.00000000568931,0.699585989659244
23199.9999999429,20.6139760999102,1.00000000579835,0.70889438132108
23299.9999999414,20.7905167226328,1.00000000564347,0.69936670366284
23399.99999994,20.9563482845623,1.00000000551509,0.688827142757983
23499.9999999385,21.1229879457317,1.00000000522162,0.696354741653648
23599.9999999371,21.2849730998415,1.00000000517936,0.702940004811363
23699.9999999356,21.45661815746,1.00000000514012,0.694911902577296
23799.9999999342,21.6364916531159,1.00000000512703,0.706911652372027
23899.9999999327,21.8222203617832,1.00000000510406,0.704122807155088
23999.9999999312,22.00310345129,1.00000000509627,0.695862938352092
24099.9999999298,22.1827310378582,1.00000000519265,0.707451952553565
24199.9999999283,22.3490110736605,1.00000000582386,0.708306883131683
24299.9999999269,22.4971185423171,1.00000000574658,0.708630547035394
24399.9999999254,22.6440285587283,1.00000000518494,0.687721558727474
24499.999999924,22.8031693799086,1.00000000519322,0.708258226628499
24599.9999999225,22.9617930671756,1.00000000575545,0.708232656525744
24699.9999999211,23.1244325109164,1.00000000534429,0.688819889251434
24799.9999999196,23.2945615896806,1.00000000557934,0.692205731225598
24899.9999999181,23.4683984885334,1.00000000549541,0.703382333054349
24999.9999999167,23.6349274485154,1.00000000601591,0.706646632108276
25099.9999999152,23.7846602254739,1.0000000056589,0.718252452763811
25199.9999999138,23.9412166005608,1.00000000491606,0.710273056003757
25299.9999999123,24.10532884587,1.00000000556956,0.71495634916334
25399.9999999109,24.2816858764952,1.00000000547141,0.707812316670239
25499.9999999094,24.4737536706603,1.0000000055168,0.718693373867033
25599.999999908,24.6745401263291,1.00000000531734,0.712993881007191
25699.9999999065,24.8932174975131,1.00000000503099,0.711884288432753
25799.9999999051,25.1224932463978,1.00000000606956,0.713144690281649
25899.9999999036,25.3370830734379,1.0000000056817,0.711250818625381
25999.9999999021,25.5424547518209,1.00000000511987,0.705633529461204
26099.9999999007,25.75622122972,1.00000000549756,0.717592384029803
26199.9999998992,25.9712067224721,1.00000000539581,0.728384480165004
26299.9999998978,26.180376331729,1.00000000547381,0.714671256528592
26399.9999998963,26.394551922045,1.00000000592034,0.709660924296202
26499.9999998949,26.6228924013299,1.00000000499105,0.709456709704898
26599.9999998934,26.8649185007619,1.00000000574928,0.709133879036649
26699.999999892,27.1092419001635,1.0000000060231,0.722827643462056
26799.9999998905,27.3443726653884,1.00000000549662,0.709038384534803
26899.999999889,27.5825988712396,1.00000000579749,0.7066781753579
26999.9999998876,27.8244808473511,1.00000000580027,0.709772243751979
27099.9999998861,28.0742738363271,1.0000000056043,0.709127457749545
27199.9999998847,28.3277529221976,1.00000000584641,0.714182944349968
27299.9999998832,28.5760457371838,1.00000000609161,0.718837678599844
27399.9999998818,28.8044123236073,1.00000000634593,0.711768680699091
27499.9999998803,29.0296598388288,1.00000000582918,0.689018836388345
27599.9999998789,29.2570924642573,1.00000000600633,0.700381099700752
27699.9999998774,29.4885482949646,1.00000000613533,0.705623477436602
27799.9999998759,29.730498751666,1.00000000531116,0.716001290117292
27899.9999998745,29.9705022465276,1.00000000581209,0.720674716805013
27999.999999873,30.2039495711879,1.0000000061751,0.704922710366177
28099.9999998716,30.4407639924536,1.00000000590413,0.714663030890523
28199.9999998701,30.6863258549405,1.00000000575925,0.714210613573573
28299.9999998687,30.9462193985071,1.00000000547842,0.70038599954573
28399.9999998672,31.2135120607534,1.00000000529143,0.705670151298379
28499.9999998658,31.4720944903387,1.00000000623272,0.732502093828636
28599.9999998643,31.7130793056822,1.00000000597525,0.733050550084974
28699.9999998629,31.9437681540843,1.00000000606946,0.725486562458111
28799.9999998614,32.1720830220033,1.00000000604101,0.722525952470088
28899.9999998599,32.4066471652109,1.00000000576621,0.716330734872846
28999.9999998585,32.6484497160585,1.00000000547981,0.718573549703333
