Time,AGPnorm,Energy,Entropy
0,0,1,-1.40750552011367e-17
99.9999999999986,3.83762845005526e-05,0.999999999998996,0.0015858023642761
199.999999999993,0.00354653644983001,0.999999999999838,0.0025607724983988
300,0.00885637806957544,0.999999999999661,0.00443615280451502
400.000000000022,0.0124236965385217,0.999999999999128,0.0075523211977892
500.000000000045,0.0148639256274691,0.999999999999968,0.0101500073979592
600.000000000068,0.0209311371546762,0.999999999999199,0.0140194120516022
700.000000000091,0.0260298059216155,0.999999999999563,0.0179753838016368
800.000000000113,0.0334213989875392,0.999999999999957,0.0220522244658584
900.000000000136,0.0415491903319326,0.999999999999003,0.0270703770769611
1000.00000000016,0.0478130473541888,0.999999999999745,0.0318439307320789
1100.0000000001,0.0570035649683409,0.999999999999559,0.0372333723030921
1200,0.0670736872559349,0.999999999999364,0.0430668793915021
1299.99999999991,0.0767412650894168,1.00000000000003,0.0489088766680789
1399.99999999982,0.0868711184627754,0.999999999999009,0.0554636060032326
1499.99999999973,0.0967461902223877,0.999999999999497,0.0620742578668554
1599.99999999964,0.1085880188662,0.999999999999971,0.0691110316445708
1699.99999999955,0.121248975270623,0.999999999999185,0.0768164828400794
1799.99999999946,0.132262796077604,0.999999999999839,0.0846000837155929
1899.99999999937,0.143624587722708,0.999999999999231,0.0930146338307008
1999.99999999928,0.15612331646319,0.999999999999367,0.101909052761596
2099.99999999919,0.169198033154404,1.00000000000026,0.111343010682751
2199.99999999909,0.182287696449716,0.99999999999903,0.121738212924096
2299.999999999,0.19381979030329,0.999999999999644,0.132573398178621
2399.99999999891,0.205966589157432,1,0.144501956858269
2499.99999999882,0.219391825837661,1.00000000000062,0.157879136985072
2599.99999999873,0.232468873916554,1.00000000000507,0.172589671613487
2699.99999999864,0.244473475665855,1.00000000001212,0.18926043572615
2799.99999999855,0.255083624632986,1.00000000003133,0.207191076566939
2899.99999999846,0.270756000214654,1.00000000006242,0.22630355991151
2999.99999999837,0.281945658846835,1.00000000009856,0.246292873015741
3099.99999999828,0.301088049131028,1.00000000016128,0.265865961876509
3199.99999999819,0.328623788813011,1.00000000022859,0.285360273428535
3299.99999999809,0.357852603157773,1.00000000029596,0.304356204432282
3399.999999998,0.428853689003906,1.00000000036466,0.322825943310697
3499.99999999791,0.516663475546034,1.0000000004526,0.34102710540452
3599.99999999782,0.654134876833496,1.00000000051163,0.35823839925935
3699.99999999773,0.869997713517454,1.00000000058135,0.374698479379922
3799.99999999764,1.14105685605214,1.00000000066935,0.390740633015582
3899.99999999755,1.53472381098453,1.00000000075035,0.40577071650119
3999.99999999746,2.0408622950318,1.00000000081333,0.420185866142357
4099.99999999738,2.67278345516941,1.00000000083157,0.433968284888796
4199.99999999775,3.48460251939053,1.0000000009024,0.446492216480797
4299.99999999811,4.44669142675131,1.00000000090346,0.4590811244774
4399.99999999848,5.60385302937342,1.0000000010119,0.470146690485795
4499.99999999884,6.97217980008286,1.00000000109605,0.480454357092599
4599.9999999992,8.53067161888557,1.00000000106396,0.49078066635766
4699.99999999957,10.3220856654274,1.00000000109339,0.499953717793455
4799.99999999993,12.332774026107,1.0000000011436,0.508515008518866
4900.00000000029,14.5585657775851,1.00000000114836,0.516666097857466
5000.00000000066,17.0251555796064,1.00000000117959,0.523800604498793
5100.00000000102,19.7018646315771,1.00000000114706,0.530994265531367
5200.00000000139,22.5928209558426,1.00000000119792,0.537255804895484
5300.00000000175,25.7065526306381,1.00000000125077,0.542736284982024
5400.00000000211,29.0063172297636,1.00000000124975,0.548585825988128
5500.00000000248,32.5030934764896,1.00000000122554,0.553393348828154
5600.00000000284,36.1827561979404,1.00000000124268,0.557972830433726
5700.00000000321,40.0113566205744,1.00000000124427,0.562357122426316
5800.00000000357,44.0079777475787,1.00000000120554,0.565896250286957
5900.00000000393,48.1330598572277,1.00000000122879,0.569577081678789
6000.0000000043,52.372155708205,1.00000000119224,0.572885860638157
6100.00000000466,56.7328497160083,1.00000000117286,0.575559540962342
6200.00000000502,61.1638874420255,1.0000000011917,0.578453082034724
6300.00000000539,65.6791526672437,1.00000000119835,0.580486612251027
6400.00000000575,70.2554299916422,1.00000000118322,0.582550217970508
6500.00000000612,74.8578300456642,1.00000000115691,0.584881758372977
6600.00000000648,79.5062036040678,1.00000000114937,0.586214142190785
6700.00000000684,84.1532791190045,1.00000000119011,0.587688032837036
6800.00000000721,88.7999109530582,1.00000000111683,0.588924879152869
6900.00000000757,93.4429159491746,1.0000000011037,0.589874032334897
7000.00000000793,98.037878609366,1.00000000114133,0.591444534183045
7100.0000000083,102.607491846534,1.00000000107205,0.591803984575189
7200.00000000866,107.118936842934,1.00000000107541,0.592307274287024
7300.00000000903,111.561177607451,1.0000000010258,0.593200790679189
7400.00000000939,115.944594919743,1.00000000105407,0.593326531519545
7500.00000000975,120.227220552456,1.00000000105118,0.593802512853529
7600.00000001012,124.429045461006,1.00000000103086,0.593395431098957
7700.00000001048,128.531962877344,1.00000000102642,0.593974143511048
7800.00000001084,132.518591518365,1.00000000100261,0.594144280274607
7900.00000001121,136.405461387911,1.00000000096491,0.593968198113227
8000.00000001157,140.161721030959,1.00000000097348,0.593742156906796
8100.00000001194,143.799058654115,1.00000000096186,0.594451474521834
8200.0000000123,147.312519149151,1.00000000092651,0.592907007300451
8300.00000001266,150.683976276504,1.00000000096553,0.594081647342221
8400.00000001303,153.932957467865,1.00000000088658,0.592334919684807
8500.00000001339,157.035497553267,1.00000000090452,0.593572387998968
8600.00000001376,160.001158732833,1.00000000089143,0.591687531029413
8700.00000001412,162.831162142857,1.00000000088794,0.592333941869658
8800.00000001448,165.50991249467,1.0000000008355,0.591135141170758
8900.00000001485,168.053891513776,1.00000000085732,0.59147214888171
9000.00000001521,170.452127193462,1.0000000008276,0.590286961669662
9100.00000001557,172.704376030251,1.00000000083588,0.590427140120405
9200.00000001594,174.823984566451,1.0000000007974,0.589544087669672
9300.0000000163,176.790939085575,1.00000000078786,0.589074545976242
9400.00000001667,178.627598928921,1.00000000079797,0.589237821093091
9500.00000001703,180.322582112129,1.00000000079161,0.587496808273351
9600.00000001739,181.878577111995,1.00000000077389,0.588604535899051
9700.00000001776,183.307757192363,1.00000000073235,0.587266327538107
9800.00000001812,184.596849304868,1.00000000072966,0.587132508777435
9900.00000001848,185.762038918456,1.00000000074248,0.58667998989183
10000.0000000188,186.800807134292,1.00000000072052,0.586302045797712
10100.0000000192,187.713534457934,1.00000000069496,0.585476809707852
10200.0000000196,188.51071498526,1.00000000069269,0.585454516852258
10300.0000000199,189.187648410694,1.00000000068651,0.586464672007767
10400.0000000203,189.755273772485,1.00000000067603,0.584375483582994
10500.0000000207,190.212709221786,1.00000000067575,0.584688659924333
10600.000000021,190.563702063155,1.00000000067664,0.586003983106964
10700.0000000214,190.819823122233,1.00000000065458,0.584185506888114
10800.0000000218,190.974938043467,1.00000000064773,0.5825110108585
10900.0000000221,191.039810515823,1.00000000065391,0.584014220645354
11000.0000000225,191.021607967888,1.00000000069438,0.584547003145145
11100.0000000229,190.920269611895,1.00000000064156,0.580009056521539
11200.0000000232,190.738165912319,1.00000000064285,0.579058350999061
11300.0000000236,190.481889116949,1.00000000066636,0.585877330448879
11400.0000000239,190.166325164918,1.00000000066054,0.580920291488894
11500.0000000243,189.78017018892,1.00000000060327,0.570049227009123
11600.0000000247,189.326633084906,1.00000000069364,0.582145245645631
11700.000000025,188.832918914318,1.00000000069553,0.58340017462777
11800.0000000254,188.288821125887,1.00000000061365,0.569791017090613
11900.0000000258,187.685434797285,1.00000000058396,0.566538102168736
12000.0000000261,187.039101659809,1.00000000071544,0.583610885622035
12100.0000000265,186.363756541004,1.00000000069943,0.578238750557335
12200.0000000269,185.653725388975,1.00000000059442,0.565063411538837
12300.0000000272,184.89339041985,1.00000000058242,0.561002047963524
12400.0000000276,184.103619465644,1.00000000072753,0.581759311104385
12500.0000000279,183.302559072782,1.00000000073282,0.576705875036551
12600.0000000283,182.476980356444,1.00000000061055,0.562358609845544
12700.0000000287,181.617051251546,1.00000000060396,0.550166305213954
12800.000000029,180.727695213177,1.00000000072337,0.575312684707862
12900.0000000294,179.835856479005,1.00000000078934,0.580586744839829
13000.0000000298,178.938588892865,1.00000000065727,0.562172594611284
13100.0000000301,178.016017794849,1.00000000060142,0.546276668848687
13200.0000000305,177.068230567591,1.00000000061915,0.551656560529403
13300.0000000309,176.114855681906,1.0000000008475,0.586279674042485
13400.0000000312,175.168441062952,1.00000000073226,0.565300592961938
13500.0000000316,174.217652633971,1.00000000067031,0.551571410964442
13600.0000000319,173.246307805939,1.00000000055645,0.5372548606182
13700.0000000323,172.260938434388,1.00000000065898,0.554754282722858
13800.0000000327,171.281466206591,1.00000000085585,0.584224050318163
13900.000000033,170.310986918215,1.00000000077337,0.557952894101272
14000.0000000334,169.341283232009,1.00000000065937,0.543850788298661
14100.0000000338,168.358667809242,1.00000000060556,0.536056053483022
14200.0000000341,167.368123477605,1.00000000069698,0.546375133746247
14300.0000000345,166.382800372711,1.00000000084329,0.575748990465966
14400.0000000349,165.409281506232,1.00000000078913,0.563323685499221
14500.0000000352,164.442181379208,1.00000000070707,0.539191331588774
14600.0000000356,163.471377244406,1.00000000060091,0.536568723814106
14700.0000000359,162.496258652512,1.00000000065897,0.540740892135759
14800.0000000363,161.522390914688,1.0000000007106,0.552124774257179
14900.0000000367,160.558117021387,1.0000000008331,0.569582899235589
15000.000000037,159.605549708106,1.00000000076805,0.549592439252914
15100.0000000374,158.656894669229,1.00000000068969,0.530302260881554
15200.0000000378,157.710131948875,1.0000000006456,0.537819184652152
15300.0000000381,156.764309259329,1.00000000070525,0.544665485067725
15400.0000000385,155.822572606808,1.00000000072389,0.545558055944615
15500.0000000389,154.88998528463,1.00000000076793,0.554950373518773
15600.0000000392,153.966660199957,1.00000000077545,0.550808400061662
15700.0000000396,153.050979544381,1.0000000006983,0.529042867985413
15800.0000000399,152.139852882456,1.00000000064828,0.532475414109329
15900.0000000403,151.233255215836,1.00000000071226,0.548472063358431
16000.0000000407,150.333339470551,1.00000000070629,0.544226951414304
16100.000000041,149.439466591484,1.00000000070053,0.539262765119602
16200.0000000414,148.553646629756,1.00000000077758,0.546410731124631
16300.0000000418,147.676924617542,1.00000000074401,0.541579898661023
16400.0000000418,146.806932684547,1.0000000006983,0.53159358072521
16500.0000000404,145.944765735889,1.00000000066364,0.536324045053648
16600.0000000389,145.089381018564,1.00000000068655,0.547326825513834
16700.0000000375,144.241409704036,1.00000000069135,0.546177316324885
16800.000000036,143.40086334794,1.00000000068921,0.536273666338035
16900.0000000346,142.567553058675,1.00000000069183,0.532471361363531
17000.0000000331,141.742561801182,1.00000000071845,0.538664145137979
17100.0000000317,140.925676720809,1.00000000071372,0.542231563029201
17200.0000000302,140.116866163323,1.00000000069359,0.537030687415917
17300.0000000287,139.316604401236,1.00000000070839,0.541413893021485
17400.0000000273,138.524173474926,1.000000000675,0.549151835235011
17500.0000000258,137.740033565068,1.00000000065885,0.543650791417067
17600.0000000244,136.963598634306,1.00000000065784,0.531458607774042
17700.0000000229,136.195269391009,1.00000000066263,0.529354375448319
17800.0000000215,135.435581685671,1.00000000071076,0.537367418665433
17900.00000002,134.683830559874,1.00000000073407,0.548255479153628
18000.0000000186,133.940424896582,1.00000000066666,0.543892192564307
18100.0000000171,133.205390284363,1.00000000070433,0.541133384617938
18200.0000000156,132.478810231597,1.00000000070006,0.548862851318034
18300.0000000142,131.761028638849,1.00000000067279,0.548284501987597
18400.0000000127,131.052028605779,1.00000000063373,0.533683557379289
18500.0000000113,130.352131987448,1.00000000066963,0.529181431825672
18600.0000000098,129.660812361476,1.0000000007292,0.533445620720858
18700.0000000084,128.977818649314,1.00000000067597,0.536900080968742
18800.0000000069,128.303191477793,1.00000000071409,0.547351067153942
18900.0000000055,127.636050064216,1.00000000070209,0.550650624401167
19000.000000004,126.976620944246,1.00000000072374,0.546293315319531
19100.0000000026,126.325144559963,1.00000000072162,0.547377428265415
19200.0000000011,125.681878705913,1.00000000071175,0.548634912374803
19299.9999999996,125.04868814934,1.00000000060018,0.537799135068531
19399.9999999982,124.425834659543,1.00000000061189,0.526780359545147
19499.9999999967,123.812133912275,1.00000000068568,0.528411449603069
19599.9999999953,123.206310295969,1.00000000072913,0.53230732438893
19699.9999999938,122.608386812374,1.00000000066337,0.532961769909105
19799.9999999924,122.017952438295,1.0000000006851,0.542548731047875
19899.9999999909,121.433754373427,1.00000000073926,0.552437078283525
19999.9999999895,120.855900328719,1.00000000068679,0.551530024230231
20099.999999988,120.284669120818,1.0000000007396,0.548083778837633
20199.9999999865,119.720416616241,1.00000000073121,0.547534704292802
20299.9999999851,119.165354350869,1.00000000066335,0.538590109290603
20399.9999999836,118.621572461896,1.0000000006128,0.530753713993167
20499.9999999822,118.088737559294,1.00000000063108,0.522074984519177
20599.9999999807,117.564716727353,1.00000000073297,0.524643133581442
20699.9999999793,117.047199221463,1.0000000007335,0.529352167899874
20799.9999999778,116.535934048002,1.00000000069,0.525586527288375
20899.9999999764,116.030827469651,1.00000000070281,0.531848449337277
20999.9999999749,115.530352885459,1.00000000071765,0.547817415925445
21099.9999999734,115.033990350985,1.00000000070448,0.555469392219955
21199.999999972,114.542304189249,1.0000000007686,0.551744860785938
21299.9999999705,114.055656035658,1.00000000074568,0.546342321886267
21399.9999999691,113.576235929553,1.00000000066705,0.539507524999961
21499.9999999676,113.107029894762,1.00000000061404,0.531002305592572
21599.9999999662,112.64917641555,1.00000000064427,0.530358629097818
21699.9999999647,112.201589994736,1.00000000066815,0.52574692835706
21799.9999999633,111.76191078407,1.00000000068791,0.520772499308084
21899.9999999618,111.328640866801,1.0000000007452,0.523982485915623
21999.9999999603,110.900301035755,1.00000000069938,0.522403971123174
22099.9999999589,110.477377930685,1.00000000071338,0.524280373684431
22199.9999999574,110.058097488731,1.00000000072476,0.534496773972134
22299.999999956,109.639952201519,1.00000000078494,0.547628347567786
22399.9999999545,109.223383774963,1.00000000074385,0.55582592842375
22499.9999999531,108.810200923204,1.00000000070876,0.550207429975332
22599.9999999516,108.402335082353,1.00000000070405,0.539125384945176
22699.9999999502,108.001968699424,1.00000000065611,0.535333977897707
22799.9999999487,107.610542385589,1.00000000065538,0.535486428178874
22899.9999999473,107.228783970414,1.00000000064234,0.532925388016485
22999.9999999458,106.856519680427,1.00000000065886,0.53350155494457
23099.9999999443,106.49220382251,1.00000000068358,0.527765783504639
23199.9999999429,106.135572042253,1.00000000068548,0.519494591864933
23299.9999999414,105.785068991893,1.00000000068987,0.519243963070075
23399.99999994,105.439570447939,1.00000000069573,0.521857140579117
23499.9999999385,105.097358625248,1.00000000072655,0.528376604929491
23599.9999999371,104.756807713417,1.00000000072458,0.532222465025152
23699.9999999356,104.415880252756,1.00000000080692,0.539600315498352
23799.9999999342,104.074187928925,1.00000000075015,0.5479933184592
23899.9999999327,103.733573188289,1.00000000075099,0.551162039352273
23999.9999999312,103.397168840228,1.0000000006523,0.543363849055047
24099.9999999298,103.067323849073,1.00000000069924,0.536211276612487
24199.9999999283,102.744692045766,1.00000000067733,0.537863100033998
24299.9999999269,102.429239693583,1.00000000068773,0.541186290209111
24399.9999999254,102.12091342004,1.00000000069572,0.541573169065323
24499.999999924,101.82094795311,1.00000000066733,0.534593801977899
24599.9999999225,101.529011971295,1.00000000068925,0.533408526216207
24699.9999999211,101.244527968627,1.00000000070274,0.528687293263839
24799.9999999196,100.966543599021,1.00000000067558,0.523283890692787
24899.9999999181,100.695273068457,1.00000000067664,0.523100301268175
24999.9999999167,100.428193194857,1.00000000072371,0.529797768971092
25099.9999999152,100.162584552192,1.00000000073285,0.534852369336058
25199.9999999138,99.8978810645279,1.00000000075026,0.539032106035479
25299.9999999123,99.6320265050691,1.0000000008027,0.541159938349602
25399.9999999109,99.364329385374,1.00000000077437,0.541842974893663
25499.9999999094,99.0963141484097,1.00000000072938,0.547787315674346
25599.999999908,98.8303645276347,1.00000000068328,0.548679359405712
25699.9999999065,98.5694689624253,1.00000000068811,0.544736479863792
25799.9999999051,98.3145407418983,1.00000000067954,0.543571935646998
25899.9999999036,98.0653003021165,1.00000000067385,0.544726090997529
25999.9999999021,97.8210941411719,1.00000000073017,0.54709651916797
26099.9999999007,97.5818906024152,1.00000000067674,0.546956106447257
26199.9999998992,97.3495674427285,1.00000000066985,0.542054885023297
26299.9999998978,97.1256879916275,1.00000000063347,0.533835965586408
26399.9999998963,96.9099629921582,1.00000000068259,0.532113570009555
26499.9999998949,96.7005529000006,1.00000000068956,0.533129933014054
26599.9999998934,96.4958221329141,1.00000000068518,0.530332368120233
26699.999999892,96.2962905853117,1.00000000065977,0.530443461332507
26799.9999998905,96.1010720257264,1.00000000067223,0.533406272586274
26899.999999889,95.9080055282046,1.00000000071131,0.538780689217376
26999.9999998876,95.7152772288702,1.00000000073074,0.54647066634786
27099.9999998861,95.5214606369961,1.00000000072748,0.546231921041822
27199.9999998847,95.3256701405857,1.0000000007661,0.545271183594215
27299.9999998832,95.1271332265045,1.00000000072803,0.548347600064796
27399.9999998818,94.9280105831296,1.0000000007005,0.545086306844704
27499.9999998803,94.7314074847852,1.00000000067181,0.545626364667805
27599.9999998789,94.5381861603971,1.00000000066868,0.550461512371225
27699.9999998774,94.3488255089001,1.00000000070158,0.551813573671395
27799.9999998759,94.1621900948634,1.00000000072219,0.552560968813101
27899.9999998745,93.9778519903733,1.00000000073719,0.550607706040716
27999.999999873,93.7965258453937,1.00000000072931,0.548165374564759
28099.9999998716,93.6197624398586,1.00000000069174,0.546660936888603
28199.9999998701,93.449417898628,1.00000000065446,0.541455195621419
28299.9999998687,93.2873151735105,1.00000000063903,0.53593049141304
28399.9999998672,93.1319865966538,1.00000000069137,0.537103063323032
28499.9999998658,92.9829226938481,1.00000000070265,0.535111041024257
28599.9999998643,92.8373143500198,1.00000000073652,0.536464727979615
28699.9999998629,92.6948343648139,1.00000000070217,0.535807089600045
28799.9999998614,92.5563415242168,1.00000000068553,0.536563998536281
28899.9999998599,92.4211581736473,1.00000000071023,0.541349297619373
