Time,AGPnorm,Energy,Entropy
0,0,1,-1.12520355946498e-17
99.9999999999986,3.70392005062833e-05,0.999999999996342,0.00156330956500843
199.999999999993,0.00353993951471493,0.999999999999599,0.00255713931700678
300,0.0088547751971247,0.999999999998372,0.00432829717285273
400.000000000022,0.0124664495421398,0.999999999997023,0.00747138255167725
500.000000000045,0.0145952132409441,1.00000000000014,0.00998924320491531
600.000000000068,0.0206031332942772,0.999999999996723,0.0137696782583713
700.000000000091,0.0257242143330777,0.999999999998916,0.0177472461922967
800.000000000113,0.0329613874497514,0.999999999999147,0.0216192436377126
900.000000000136,0.0408139534312647,0.999999999996554,0.0266522536352925
1000.00000000016,0.0466801680278279,0.999999999999902,0.0313244556346604
1100.0000000001,0.0561430192023419,0.999999999997448,0.0365305422761538
1200,0.0663435504068674,0.99999999999824,0.0424021835891435
1299.99999999991,0.0754175001401545,0.99999999999959,0.0479957253174915
1399.99999999982,0.0850446886692085,0.999999999996408,0.0544821698862899
1499.99999999973,0.0946668134777666,0.999999999999517,0.0610031273709132
1599.99999999964,0.106920397073525,0.999999999998321,0.0677655544366776
1699.99999999955,0.119638210134983,0.999999999997543,0.0755003547313307
1799.99999999946,0.129805928325681,0.999999999999594,0.0829592729459162
1899.99999999937,0.140879581014922,0.99999999999672,0.0911794581212679
1999.99999999928,0.153365989631435,0.999999999999179,0.0999550075144478
2099.99999999919,0.166738928662955,0.999999999999025,0.10901178511005
2199.99999999909,0.179405924435292,0.999999999997006,0.119269015883528
2299.999999999,0.190290852158856,0.99999999999934,0.12966310643837
2399.99999999891,0.202486631125385,0.999999999997712,0.141100746370059
2499.99999999882,0.216319762189723,0.999999999999629,0.154157969329073
2599.99999999873,0.229233450692037,1.00000000000274,0.168052590348802
2699.99999999864,0.240653877547337,1.00000000000625,0.184132641558667
2799.99999999855,0.250933209751193,1.00000000002265,0.20132985378753
2899.99999999846,0.266510997290829,1.00000000004821,0.219846756396928
2999.99999999837,0.277783898674394,1.00000000008551,0.23976439742965
3099.99999999828,0.294498635331635,1.00000000013953,0.258925056165002
3199.99999999819,0.319126691901864,1.00000000018957,0.278347510783313
3299.99999999809,0.341924695173499,1.00000000025785,0.297279581686271
3399.999999998,0.404754858218797,1.00000000032665,0.315614784430478
3499.99999999791,0.479616363170825,1.00000000040979,0.334105097592587
3599.99999999782,0.594493953350314,1.00000000046581,0.351209051540985
3699.99999999773,0.787937779698929,1.00000000056189,0.367516047060419
3799.99999999764,1.02175638056764,1.00000000063851,0.384017019550241
3899.99999999755,1.3743496494506,1.0000000006976,0.39891260567566
3999.99999999746,1.83423873123904,1.00000000076111,0.41368421822658
4099.99999999738,2.40021939693695,1.00000000080819,0.427410687965943
4199.99999999775,3.15300389609125,1.00000000087042,0.440092603017477
4299.99999999811,4.03743839701865,1.00000000090741,0.453048529692299
4399.99999999848,5.11100229390176,1.00000000094942,0.464386269139953
4499.99999999884,6.40268799421175,1.00000000098096,0.474944690424911
4599.9999999992,7.85899846528314,1.00000000102741,0.485471654607138
4699.99999999957,9.56343202697453,1.00000000107856,0.49447373398797
4799.99999999993,11.478500927911,1.00000000109138,0.503720762222847
4900.00000000029,13.5994823991547,1.00000000112063,0.511894798838517
5000.00000000066,15.9839559981344,1.00000000112633,0.519193463331791
5100.00000000102,18.5556564940353,1.00000000116725,0.526738993622723
5200.00000000139,21.3596896233557,1.000000001141,0.533124193107751
5300.00000000175,24.3948858016483,1.00000000114931,0.538987231118481
5400.00000000211,27.6032914086194,1.00000000117285,0.5448607106448
5500.00000000248,31.040934419707,1.00000000120753,0.54967971674939
5600.00000000284,34.6479933395182,1.00000000119598,0.554799506698392
5700.00000000321,38.4189641929832,1.00000000118426,0.55920562558497
5800.00000000357,42.3804136865154,1.00000000118553,0.562838540600353
5900.00000000393,46.4567205789046,1.00000000116802,0.566874153029778
6000.0000000043,50.679487511646,1.00000000121623,0.569823714938805
6100.00000000466,55.022352075705,1.00000000118364,0.572957380673279
6200.00000000502,59.4436307862835,1.00000000115194,0.576112110278544
6300.00000000539,63.9781269980572,1.00000000116383,0.578103934276642
6400.00000000575,68.5633543860529,1.00000000114494,0.580607523145653
6500.00000000612,73.2006965663675,1.00000000117286,0.582663829800772
6600.00000000648,77.8918114804642,1.00000000113669,0.584409188239113
6700.00000000684,82.5830327569228,1.00000000108869,0.586206748914987
6800.00000000721,87.3027397002703,1.0000000011347,0.586933831845934
6900.00000000757,92.0126525334578,1.0000000010883,0.58841867772
7000.00000000793,96.6919077116253,1.00000000105892,0.590213147821335
7100.0000000083,101.358165456327,1.00000000111344,0.590059845161993
7200.00000000866,105.964304217465,1.00000000108119,0.590966335319956
7300.00000000903,110.525479649306,1.00000000101823,0.591825795323024
7400.00000000939,115.024073923553,1.00000000100656,0.592668383906384
7500.00000000975,119.431891984022,1.00000000101447,0.592711799183264
7600.00000001012,123.772204955261,1.00000000100744,0.592488658377154
7700.00000001048,128.00914255849,1.00000000099638,0.593190792395006
7800.00000001084,132.146907468307,1.00000000101733,0.593421336627878
7900.00000001121,136.183596506011,1.00000000098722,0.592939051987239
8000.00000001157,140.093899969518,1.00000000096026,0.592969039012686
8100.00000001194,143.896036178217,1.00000000094937,0.593591920057854
8200.0000000123,147.570123061074,1.00000000090687,0.592433753006327
8300.00000001266,151.111951083071,1.00000000094079,0.593256445120035
8400.00000001303,154.531157998946,1.00000000087577,0.592001306049281
8500.00000001339,157.803205330245,1.00000000088726,0.59285658323966
8600.00000001376,160.947384427779,1.0000000008911,0.591344237689975
8700.00000001412,163.949708535731,1.00000000086308,0.591706583889672
8800.00000001448,166.806773161489,1.00000000084822,0.590988624963527
8900.00000001485,169.527189174078,1.00000000079734,0.590777595195334
9000.00000001521,172.099570852773,1.00000000084255,0.590191687940609
9100.00000001557,174.531045696068,1.00000000081358,0.589693110409167
9200.00000001594,176.823384487986,1.00000000080302,0.589406279048229
9300.0000000163,178.965430421831,1.00000000078841,0.588442102681614
9400.00000001667,180.974040972616,1.0000000007865,0.589008476086943
9500.00000001703,182.837862064439,1.00000000076018,0.58696433268253
9600.00000001739,184.563936441737,1.00000000074462,0.588043450086019
9700.00000001776,186.15757138088,1.00000000071,0.587020048916414
9800.00000001812,187.60965773107,1.00000000072917,0.586489538387765
9900.00000001848,188.93525938645,1.00000000072398,0.586558106018704
10000.0000000188,190.129136289907,1.0000000006999,0.585870418056311
10100.0000000192,191.196749911193,1.00000000070426,0.585492162828154
10200.0000000196,192.143213026764,1.000000000698,0.584893866582176
10300.0000000199,192.96530479176,1.00000000068183,0.58521460610549
10400.0000000203,193.673893438589,1.00000000068096,0.584500525302005
10500.0000000207,194.267710401474,1.00000000066638,0.584235770828999
10600.000000021,194.75091695187,1.00000000067491,0.583696302299099
10700.0000000214,195.130539303748,1.00000000065535,0.585055914470912
10800.0000000218,195.407560041245,1.00000000065771,0.583630160487155
10900.0000000221,195.586968221486,1.00000000063503,0.580603797171457
11000.0000000225,195.671742048902,1.00000000066336,0.585694006557868
11100.0000000229,195.673416672963,1.0000000006565,0.583998445798624
11200.0000000232,195.589471733809,1.00000000059442,0.575164726762094
11300.0000000236,195.417504901284,1.00000000065764,0.584100918640798
11400.0000000239,195.183416207973,1.00000000068133,0.584945719896924
11500.0000000243,194.880680341538,1.00000000060516,0.572381189003855
11600.0000000247,194.500460458706,1.00000000060275,0.573805042683806
11700.000000025,194.066234750429,1.00000000068,0.58503889320577
11800.0000000254,193.583641954701,1.00000000063149,0.577057621316007
11900.0000000258,193.044368281538,1.00000000058354,0.566549802600317
12000.0000000261,192.44464838011,1.00000000064032,0.572681976535692
12100.0000000265,191.805758624991,1.00000000071064,0.583760639294012
12200.0000000269,191.138587100472,1.00000000066753,0.574230692245358
12300.0000000272,190.42555850868,1.00000000056121,0.560273903218718
12400.0000000276,189.665667432992,1.0000000005929,0.565189368484579
12500.0000000279,188.881076343054,1.00000000074461,0.584211068852862
12600.0000000283,188.081389271263,1.00000000065469,0.572925002238743
12700.0000000287,187.254078041179,1.00000000058142,0.555905570125715
12800.000000029,186.382545008557,1.00000000058046,0.55184358624467
12900.0000000294,185.492114253802,1.00000000075923,0.583571088218165
13000.0000000298,184.601486477882,1.00000000074861,0.575140602982655
13100.0000000301,183.697415446393,1.00000000060645,0.556723162779123
13200.0000000305,182.764903381223,1.00000000053611,0.541190190914657
13300.0000000309,181.80575868617,1.00000000068173,0.563920436135224
13400.0000000312,180.8490924257,1.000000000781,0.583936119510985
13500.0000000316,179.897618363342,1.00000000074523,0.563600543879703
13600.0000000319,178.934569400275,1.00000000056797,0.544027981037664
13700.0000000323,177.950750166548,1.00000000059183,0.537569616373675
13800.0000000327,176.954217655139,1.00000000074115,0.565082564611967
13900.000000033,175.965937401739,1.00000000080209,0.579750411957494
14000.0000000334,174.9872815738,1.0000000007723,0.556981542741026
14100.0000000338,174.003295774848,1.0000000006014,0.538861574076474
14200.0000000341,173.006907435759,1.00000000060394,0.535456332860054
14300.0000000345,172.001854673788,1.00000000069697,0.551260838088459
14400.0000000349,171.004062316592,1.00000000078145,0.576905075429362
14500.0000000352,170.019052333554,1.00000000080228,0.561626325232643
14600.0000000356,169.038210970468,1.00000000065864,0.537220676382649
14700.0000000359,168.052584671751,1.00000000060954,0.53506626055058
14800.0000000363,167.061401363509,1.00000000065101,0.537890955473413
14900.0000000367,166.071712429678,1.00000000072265,0.555394008691338
15000.000000037,165.093357779662,1.00000000081437,0.569571497384625
15100.0000000374,164.125048914421,1.00000000075812,0.549617527450307
15200.0000000378,163.162507676325,1.00000000064378,0.530070562875935
15300.0000000381,162.199512509167,1.000000000644,0.537867365532958
15400.0000000385,161.236664855602,1.00000000064987,0.539111463938497
15500.0000000389,160.278356319154,1.00000000070736,0.544619040160286
15600.0000000392,159.327927890463,1.0000000007896,0.558728077983153
15700.0000000396,158.388486563083,1.00000000075394,0.550270146930557
15800.0000000399,157.45651764147,1.0000000006799,0.529675037550159
15900.0000000403,156.528998959475,1.00000000067898,0.535794499295616
16000.0000000407,155.6066923532,1.00000000064582,0.541626474477998
16100.000000041,154.6879011247,1.00000000068883,0.539417147906745
16200.0000000414,153.775842396325,1.00000000071477,0.540280436509416
16300.0000000418,152.872510842223,1.00000000072283,0.546533197321672
16400.0000000418,151.977494587612,1.00000000071518,0.543664869577461
16500.0000000404,151.09123204819,1.00000000069963,0.533509876449719
16600.0000000389,150.211932165427,1.0000000006702,0.534417997943323
16700.0000000375,149.339613553981,1.00000000067287,0.543809830417735
16800.000000036,148.473910078055,1.00000000068047,0.541261297115748
16900.0000000346,147.614734872183,1.00000000065986,0.532695329542606
17000.0000000331,146.763438777539,1.00000000067469,0.533035197609322
17100.0000000317,145.920191635664,1.00000000073604,0.543777516422938
17200.0000000302,145.085331041228,1.00000000071951,0.54208195923256
17300.0000000287,144.259263454335,1.00000000066002,0.533703156648129
17400.0000000273,143.441147381277,1.00000000068215,0.540395744129554
17500.0000000258,142.63161763573,1.00000000069714,0.547159552308111
17600.0000000244,141.82949041533,1.00000000063795,0.538181150847696
17700.0000000229,141.035089769839,1.00000000065305,0.529050880792735
17800.0000000215,140.248872831244,1.00000000068913,0.529740228430398
17900.00000002,139.470587071043,1.00000000068687,0.539061815429916
18000.0000000186,138.700774610358,1.00000000072416,0.546528063800268
18100.0000000171,137.939354817281,1.00000000069353,0.542940292152539
18200.0000000156,137.186341459554,1.00000000068448,0.540077677629936
18300.0000000142,136.442185515514,1.00000000070132,0.549691631145729
18400.0000000127,135.706660968303,1.00000000062232,0.544633954651423
18500.0000000113,134.980313906518,1.00000000061758,0.534387621224221
18600.0000000098,134.262433766241,1.00000000065331,0.528218323953864
18700.0000000084,133.552966269088,1.00000000065505,0.530342544387109
18800.0000000069,132.852329877759,1.00000000067322,0.535055544530878
18900.0000000055,132.159492370348,1.0000000007121,0.547472409557305
19000.000000004,131.474598440559,1.00000000068843,0.54914982405569
19100.0000000026,130.797704376169,1.00000000067971,0.542967043840707
19200.0000000011,130.128615246553,1.00000000072261,0.549506031139469
19299.9999999996,129.467982007156,1.00000000069555,0.550970916142159
19399.9999999982,128.816883760946,1.00000000060879,0.539279429677829
19499.9999999967,128.176041207196,1.00000000060084,0.52449964453703
19599.9999999953,127.544796730063,1.00000000065176,0.52282902093
19699.9999999938,126.921768508494,1.00000000067723,0.529320785694643
19799.9999999924,126.3068159235,1.00000000069362,0.530906189843394
19899.9999999909,125.699090644342,1.00000000073213,0.542069165899531
19999.9999999895,125.09820284938,1.00000000068283,0.550580771255091
20099.999999988,124.504274878088,1.00000000071323,0.549503514863129
20199.9999999865,123.916417544388,1.00000000073557,0.55143717278413
20299.9999999851,123.334594240455,1.00000000073773,0.553679186298049
20399.9999999836,122.761089604241,1.00000000063177,0.542184222395262
20499.9999999822,122.199147777934,1.00000000056319,0.529634626883978
20599.9999999807,121.648859092161,1.00000000058626,0.517644638415879
20699.9999999793,121.108027347442,1.00000000064969,0.518855940410615
20799.9999999778,120.574282312752,1.0000000007264,0.525934882667009
20899.9999999764,120.04692064657,1.00000000069149,0.527823895758251
20999.9999999749,119.526222910585,1.00000000069112,0.531206365227284
21099.9999999734,119.011323034039,1.00000000072277,0.545178973108957
21199.999999972,118.500618844438,1.00000000072335,0.556763763236207
21299.9999999705,117.993523504909,1.00000000072906,0.555554293957458
21399.9999999691,117.490236045949,1.00000000075147,0.552399414546832
21499.9999999676,116.992765797569,1.00000000071579,0.546629732507983
21599.9999999662,116.504734966801,1.00000000062406,0.535421369570444
21699.9999999647,116.028532655118,1.00000000057746,0.527803027962607
21799.9999999633,115.563796873055,1.00000000060963,0.522337389062641
21899.9999999618,115.108722886982,1.0000000006548,0.515122601077857
21999.9999999603,114.660795179333,1.00000000070553,0.518695907856987
22099.9999999589,114.218758639483,1.00000000068478,0.520447093222483
22199.9999999574,113.782338696617,1.00000000066112,0.522845082241089
22299.999999956,113.350205167249,1.00000000072462,0.534843418048289
22399.9999999545,112.919719427373,1.00000000074618,0.549262399906589
22499.9999999531,112.489955629653,1.0000000007444,0.560039250518775
22599.9999999516,112.062159559671,1.00000000071274,0.554438768892793
22699.9999999502,111.63846216533,1.00000000069572,0.545871610033971
22799.9999999487,111.220361210237,1.0000000006774,0.545190801889506
22899.9999999473,110.809988131428,1.00000000063773,0.540070980627168
22999.9999999458,110.410097583461,1.00000000061402,0.53291089907621
23099.9999999443,110.020318372145,1.00000000062839,0.530724308476124
23199.9999999429,109.640627753796,1.0000000006212,0.520113972765052
23299.9999999414,109.270086948043,1.0000000006417,0.512197859623512
23399.99999994,108.908073071991,1.00000000067459,0.511955614233152
23499.9999999385,108.551793287173,1.0000000006915,0.520627341996147
23599.9999999371,108.198803933518,1.0000000007288,0.527040702717231
23699.9999999356,107.847243538407,1.00000000074548,0.535909716495912
23799.9999999342,107.494596783572,1.00000000077325,0.545479717059571
23899.9999999327,107.140885038044,1.00000000077568,0.550862969994923
23999.9999999312,106.787403591872,1.0000000007365,0.552685162059837
24099.9999999298,106.437312017167,1.00000000068158,0.54538021523667
24199.9999999283,106.092379584792,1.00000000069437,0.541022475542017
24299.9999999269,105.753249653146,1.00000000067154,0.546130586696838
24399.9999999254,105.419720181031,1.00000000070258,0.550016289523754
24499.999999924,105.092678026322,1.00000000068355,0.545139553984335
24599.9999999225,104.774222212966,1.00000000062828,0.534923322120868
24699.9999999211,104.466025307773,1.00000000062272,0.52569260099723
24799.9999999196,104.168375255969,1.00000000060181,0.516773255694099
24899.9999999181,103.881528647663,1.00000000062809,0.511790236412345
24999.9999999167,103.602888129899,1.0000000006684,0.520132762506095
25099.9999999152,103.327917886142,1.00000000071832,0.528409659755423
25199.9999999138,103.053712484298,1.00000000075462,0.537827084769953
25299.9999999123,102.778255471851,1.00000000073857,0.545026105696287
25399.9999999109,102.500828952756,1.00000000075037,0.545006333643408
25499.9999999094,102.221604744243,1.00000000074862,0.549520780685857
25599.999999908,101.941344046293,1.00000000072745,0.551619274646874
25699.9999999065,101.664068580575,1.00000000064172,0.545822328363457
25799.9999999051,101.392337358024,1.00000000062794,0.543943304573744
25899.9999999036,101.125602430875,1.00000000067246,0.548372181337876
25999.9999999021,100.86219747232,1.00000000070379,0.552235168863155
26099.9999999007,100.601295508623,1.00000000075622,0.557423223638639
26199.9999998992,100.343383595816,1.00000000072573,0.555746187096705
26299.9999998978,100.091972028075,1.0000000006375,0.542070964617588
26399.9999998963,99.8509104962178,1.00000000057693,0.528697025117272
26499.9999998949,99.6219732607558,1.00000000059035,0.52194025562957
26599.9999998934,99.4035735179292,1.00000000065533,0.522389098134652
26699.999999892,99.1939673841009,1.00000000064997,0.522443865680118
26799.9999998905,98.9912232554829,1.00000000064927,0.527832380103484
26899.999999889,98.79262764227,1.00000000071793,0.534794157039465
26999.9999998876,98.5938796395044,1.00000000074877,0.543667801534855
27099.9999998861,98.3923925739156,1.0000000007698,0.553462032563597
27199.9999998847,98.1879329517523,1.00000000071114,0.552736385994382
27299.9999998832,97.9815144015496,1.00000000073312,0.547562789351314
27399.9999998818,97.7733852955294,1.00000000073734,0.550050756369505
27499.9999998803,97.5654829037129,1.00000000070851,0.54587967366269
27599.9999998789,97.3602342402973,1.00000000066755,0.549203988041696
27699.9999998774,97.1588738654809,1.00000000068562,0.553313677693447
27799.9999998759,96.9607098875685,1.00000000066946,0.555513298443396
27899.9999998745,96.7638894419773,1.00000000073664,0.559342966080838
27999.999999873,96.5670819122986,1.00000000073931,0.556085472982166
28099.9999998716,96.3706149415092,1.00000000073648,0.554497315304942
28199.9999998701,96.1759858400238,1.0000000007229,0.552707207312814
28299.9999998687,95.9874733667871,1.00000000065879,0.539812150393878
28399.9999998672,95.8083665576263,1.00000000059554,0.531261950378453
28499.9999998658,95.6413883085556,1.0000000005885,0.523138968868561
28599.9999998643,95.485250269263,1.00000000062364,0.523721316676495
28699.9999998629,95.3366778319505,1.00000000067311,0.526454594597332
28799.9999998614,95.1930027618029,1.00000000068827,0.531290005994476
28899.9999998599,95.0531178425555,1.00000000067363,0.537272529928138
28999.9999998585,94.9154838607478,1.00000000070727,0.546147022674815
