Time,AGPnorm,Energy,Entropy
0,0,1,-7.07041992627732e-17
99.9999999999986,0.00223248488780894,0.9999999999977,0.00664243563041605
199.999999999993,0.0152222289899114,0.999999999996059,0.019031652612935
300,0.0306789251337235,0.999999999998226,0.0349435907848823
400.000000000022,0.0440801999070137,1.00000000000031,0.0556189749533257
500.000000000045,0.0616768664167447,0.9999999999984,0.0811595992756269
600.000000000068,0.0836396736584048,0.999999999996036,0.11128253897675
700.000000000091,0.10444033821054,0.9999999999985,0.147720874183203
800.000000000113,0.123318058595235,1.00000000002333,0.19541755994933
900.000000000136,0.140784359496498,1.00000000019592,0.258053965285428
1000.00000000016,0.161382159737371,1.00000000064409,0.325366630816534
1100.0000000001,0.258904313560046,1.00000000124911,0.384851106426142
1200,0.502036347001245,1.00000000190778,0.435306112734847
1299.99999999991,0.963697989780592,1.0000000023821,0.477635087672276
1399.99999999982,1.79041263596706,1.0000000026165,0.511487625453187
1499.99999999973,3.06141299597356,1.00000000287091,0.536611486277463
1599.99999999964,4.72615464357979,1.00000000301296,0.557201195475577
1699.99999999955,6.74759292330213,1.0000000029583,0.57351354699687
1799.99999999946,9.1179677486642,1.00000000305356,0.584403476096566
1899.99999999937,11.7462853293064,1.00000000293077,0.590743727543099
1999.99999999928,14.4810687865865,1.00000000295316,0.596055709589977
2099.99999999919,17.2363730115578,1.00000000278103,0.59949687354727
2199.99999999909,19.9719388249672,1.00000000273968,0.60027489700615
2299.999999999,22.6171985315191,1.00000000265571,0.599059043072691
2399.99999999891,25.0844042332365,1.00000000253021,0.597437105753955
2499.99999999882,27.3156192110988,1.0000000023574,0.597045166893908
2599.99999999873,29.3037645980319,1.00000000224078,0.594987206689665
2699.99999999864,31.0460859445842,1.00000000208178,0.591484723648791
2799.99999999855,32.5242374045244,1.00000000207888,0.58774162216532
2899.99999999846,33.7259723888481,1.00000000198752,0.586228694105796
2999.99999999837,34.6584782098262,1.00000000184115,0.584338765582184
3099.99999999828,35.3484515626825,1.00000000180754,0.581263230165411
3199.99999999819,35.8146145690956,1.00000000185905,0.585467858750237
3299.99999999809,36.0668262508882,1.00000000173768,0.581567338896165
3399.999999998,36.1395624323215,1.00000000160777,0.573178808984492
3499.99999999791,36.0506943877971,1.00000000182121,0.586499105607353
3599.99999999782,35.8313308413241,1.00000000151278,0.559717355792541
3699.99999999773,35.5259074920392,1.00000000177363,0.574059906834715
3799.99999999764,35.1258333904681,1.00000000162891,0.554710815888195
3899.99999999755,34.6767420670047,1.0000000019076,0.566841028406639
3999.99999999746,34.1670959747301,1.00000000156951,0.542086214721916
4099.99999999738,33.6367652039185,1.0000000021079,0.568490737832136
4199.99999999775,33.0847061848039,1.00000000151905,0.532324988802012
4299.99999999811,32.5096052552692,1.00000000216921,0.571848977615345
4399.99999999848,31.9440051950694,1.00000000172856,0.536308116482293
4499.99999999884,31.3582228346791,1.00000000162932,0.524914359821579
4599.9999999992,30.7874067746916,1.00000000212898,0.553418478980792
4699.99999999957,30.2258363121097,1.00000000167417,0.525598368720825
4799.99999999993,29.6602080307012,1.00000000186357,0.524309250580716
4900.00000000029,29.1111861815102,1.00000000220383,0.542070230383896
5000.00000000066,28.57528014309,1.00000000170502,0.513117466303449
5100.00000000102,28.0463694441909,1.00000000168778,0.530155891225341
5200.00000000139,27.5315036435924,1.0000000018837,0.528544609099692
5300.00000000175,27.0328343738466,1.00000000183606,0.508925372676684
5400.00000000211,26.5486355704367,1.00000000171147,0.527118052969847
5500.00000000248,26.0767405396676,1.00000000178135,0.53464223183108
5600.00000000284,25.6216339557119,1.00000000182209,0.517615144345041
5700.00000000321,25.1812517060308,1.00000000183562,0.506661888126732
5800.00000000357,24.7587321881428,1.00000000171284,0.523184769358404
5900.00000000393,24.3491592262862,1.00000000189964,0.552225823357465
6000.0000000043,23.9560860211813,1.00000000166303,0.517193172095543
6100.00000000466,23.5803379517781,1.00000000193056,0.510123677779446
6200.00000000502,23.2182583661516,1.00000000176803,0.50996670036786
6300.00000000539,22.8733689871287,1.00000000163088,0.53059467198073
6400.00000000575,22.5383391262784,1.00000000214333,0.556517552695921
6500.00000000612,22.2175411995063,1.00000000176552,0.524914358136239
6600.00000000648,21.9156084227708,1.0000000018248,0.508987017595572
6700.00000000684,21.6259205613443,1.00000000191881,0.508861983344364
6800.00000000721,21.3488863251227,1.00000000175112,0.51281532679054
6900.00000000757,21.0837598575494,1.00000000177772,0.537756526798612
7000.00000000793,20.8236131139634,1.00000000204989,0.545172769954516
7100.0000000083,20.5728585024003,1.00000000167049,0.532457260425097
7200.00000000866,20.3380572814203,1.00000000184335,0.524404110047835
7300.00000000903,20.1177579250441,1.00000000194798,0.526679396682755
7400.00000000939,19.9099865088038,1.000000001858,0.514557151661121
7500.00000000975,19.7115509469754,1.00000000180515,0.522660315979595
7600.00000001012,19.5194431004652,1.0000000018455,0.555811906638804
7700.00000001048,19.3335113678581,1.0000000018709,0.55316239166956
7800.00000001084,19.1526203633896,1.00000000182865,0.542409066458278
7900.00000001121,18.9786753696144,1.00000000189641,0.553517323043496
8000.00000001157,18.8145161548426,1.00000000167469,0.534964443017094
8100.00000001194,18.6672724085052,1.00000000177927,0.532748465660688
8200.0000000123,18.5300835313555,1.00000000185921,0.53236281860278
8300.00000001266,18.4022569512336,1.00000000178959,0.535356541772325
8400.00000001303,18.2805557212624,1.00000000192177,0.55284498022483
8500.00000001339,18.1555378318832,1.00000000193838,0.569841525809364
8600.00000001376,18.0376634327364,1.00000000166637,0.555912941887251
8700.00000001412,17.9266168684351,1.0000000018629,0.558560390136884
8800.00000001448,17.812532634684,1.00000000212122,0.567412154144715
8900.00000001485,17.696754878106,1.00000000187054,0.567673296091499
9000.00000001521,17.5915387925464,1.00000000174202,0.548198169027327
9100.00000001557,17.4977288813246,1.00000000191614,0.548412182724171
9200.00000001594,17.4144134614111,1.00000000183512,0.546730458838761
9300.0000000163,17.3422355118122,1.00000000190053,0.543646621401646
9400.00000001667,17.2745588645488,1.00000000188522,0.561273443828466
9500.00000001703,17.2058578559399,1.0000000019906,0.575220331735215
9600.00000001739,17.1316982181455,1.00000000196256,0.574100292688035
9700.00000001776,17.0633505158605,1.00000000181889,0.563923178939432
9800.00000001812,17.0060853324557,1.00000000181967,0.562006864601454
9900.00000001848,16.9482598026779,1.00000000212281,0.574754118370089
10000.0000000188,16.8846112402571,1.00000000196886,0.565354817240049
10100.0000000192,16.8166152362101,1.00000000204427,0.581532218097172
10200.0000000196,16.7457688415329,1.00000000195973,0.589871908512875
10300.0000000199,16.6819844871798,1.00000000173199,0.565032099126205
10400.0000000203,16.6304689269965,1.00000000179908,0.568506726117075
10500.0000000207,16.5894066084305,1.00000000183401,0.562303767169288
10600.000000021,16.5596785282446,1.000000001799,0.548846034764553
10700.0000000214,16.5352808690056,1.00000000196373,0.558513028061748
10800.0000000218,16.5087930118557,1.00000000191991,0.58934054753252
10900.0000000221,16.4781306704938,1.00000000207843,0.588657693363288
11000.0000000225,16.4503905908763,1.00000000183093,0.574495354472636
11100.0000000229,16.4234076044821,1.00000000203238,0.584149154401951
11200.0000000232,16.3959827318368,1.00000000196871,0.585466655299999
11300.0000000236,16.373210796925,1.00000000199489,0.572917102938208
11400.0000000239,16.3532120904185,1.0000000019485,0.575361056058864
11500.0000000243,16.3303515359709,1.00000000203544,0.594444245849087
11600.0000000247,16.3008297243628,1.00000000209743,0.58883909573922
11700.000000025,16.2648521391148,1.00000000207818,0.586471483477327
11800.0000000254,16.2241025093687,1.00000000212501,0.584316663558177
11900.0000000258,16.1833460957198,1.00000000191396,0.587767219536069
12000.0000000261,16.1456681788811,1.00000000198,0.585088783925009
12100.0000000265,16.1141494215192,1.00000000188749,0.588853330131638
12200.0000000269,16.0922342722478,1.00000000195106,0.582998217509181
12300.0000000272,16.0800023564786,1.00000000179646,0.562041986833895
12400.0000000276,16.077359238521,1.00000000191839,0.551759005793952
12500.0000000279,16.0782747579729,1.00000000199086,0.566942077707201
12600.0000000283,16.0754988878036,1.00000000209445,0.580101606961894
12700.0000000287,16.0720199443711,1.00000000203142,0.592917977573514
12800.000000029,16.0724037925122,1.00000000200436,0.595592030910216
12900.0000000294,16.0690116197656,1.00000000205898,0.598467451314836
13000.0000000298,16.0658629610126,1.00000000195051,0.594414470366695
13100.0000000301,16.0632610389574,1.00000000207733,0.591311313005672
13200.0000000305,16.0584050549964,1.00000000202884,0.595205891222722
13300.0000000309,16.059337210253,1.00000000185909,0.596259514823796
13400.0000000312,16.066042167003,1.00000000211168,0.606611207715926
13500.0000000316,16.0694420627599,1.00000000223851,0.620441468416202
13600.0000000319,16.0627005213896,1.00000000221354,0.624756941060503
13700.0000000323,16.0487983577909,1.0000000021637,0.625927519467628
13800.0000000327,16.0350126533151,1.00000000198457,0.618780302162576
13900.000000033,16.0233310093294,1.00000000200714,0.621821666184046
14000.0000000334,16.0095860668631,1.00000000205525,0.628896849048397
14100.0000000338,15.991123557969,1.0000000022879,0.635631485528477
14200.0000000341,15.9676521326565,1.000000002175,0.63053307223875
14300.0000000345,15.9402682178164,1.00000000222672,0.633037316923962
14400.0000000349,15.9118538808524,1.00000000210231,0.624260555645411
14500.0000000352,15.8866301047306,1.00000000207801,0.620471700136102
14600.0000000356,15.8703447801138,1.00000000210638,0.617050253400984
14700.0000000359,15.8646370330636,1.00000000205002,0.604601037497935
14800.0000000363,15.8703275082852,1.00000000202654,0.600363982323722
14900.0000000367,15.8840690589992,1.00000000208355,0.594579263771715
15000.000000037,15.9008274048164,1.00000000220855,0.603410301207028
15100.0000000374,15.9148633712058,1.00000000222957,0.612503953230998
15200.0000000378,15.9271035804323,1.00000000216856,0.618970524732727
15300.0000000381,15.9410352270028,1.00000000207016,0.618501597656399
15400.0000000385,15.9540889501927,1.0000000021299,0.618755761534974
15500.0000000389,15.9684827841983,1.00000000195547,0.618029661741422
15600.0000000392,15.9823205239752,1.00000000224071,0.622620660500842
15700.0000000396,15.993741305394,1.00000000219666,0.621134661691303
15800.0000000399,16.0043549153232,1.00000000194474,0.627452756212541
15900.0000000403,16.0178911456668,1.0000000021483,0.629214358677577
16000.0000000407,16.0328593967521,1.00000000207927,0.626865487891807
16100.000000041,16.0460772377543,1.00000000216252,0.629121980524141
16200.0000000414,16.0579865723494,1.00000000219591,0.616761194496675
16300.0000000418,16.0677242815422,1.00000000224232,0.611826092190255
16400.0000000418,16.0783378040985,1.00000000226423,0.63743052475591
16500.0000000404,16.0878478995316,1.00000000214178,0.647618390730462
16600.0000000389,16.0954362171148,1.00000000221661,0.651104019663353
16700.0000000375,16.1030943178699,1.00000000211467,0.645805839597152
16800.000000036,16.1091556560092,1.00000000235791,0.649031324802632
16900.0000000346,16.1112725344743,1.00000000224424,0.645172977541066
17000.0000000331,16.1100426861628,1.00000000229023,0.649719625221573
17100.0000000317,16.1069587782812,1.0000000023437,0.65381092746664
17200.0000000302,16.1015849367176,1.0000000023199,0.657738462863581
17300.0000000287,16.0912586632334,1.00000000234256,0.66111682308359
17400.0000000273,16.0765207570075,1.00000000237927,0.674055442316167
17500.0000000258,16.0564108288817,1.00000000232518,0.668744943701158
17600.0000000244,16.0346797751222,1.00000000218876,0.665746349331666
17700.0000000229,16.0114430337544,1.00000000224937,0.662481845501592
17800.0000000215,15.9869021655176,1.00000000226287,0.655507566551449
17900.00000002,15.9607623899733,1.00000000230547,0.660445836667151
18000.0000000186,15.9366333377045,1.00000000222117,0.659835968537123
18100.0000000171,15.9159988854568,1.0000000022427,0.646823328503583
18200.0000000156,15.9002436897609,1.00000000232988,0.640387293460331
18300.0000000142,15.8920623091214,1.00000000211497,0.635364404674647
18400.0000000127,15.8926931719084,1.0000000022048,0.632398490493174
18500.0000000113,15.9004198735655,1.0000000022232,0.633002267250789
18600.0000000098,15.9171660365491,1.00000000220298,0.626778401898983
18700.0000000084,15.9389255284422,1.00000000230244,0.618445587544708
18800.0000000069,15.9646211756286,1.00000000232164,0.624920692791572
18900.0000000055,15.9891356979488,1.00000000246639,0.62905094324404
19000.000000004,16.0121113774136,1.00000000248456,0.633436971747889
19100.0000000026,16.0351014553035,1.00000000231809,0.630563404537971
19200.0000000011,16.0618799472349,1.00000000219044,0.628447692574583
19299.9999999996,16.0893648315174,1.00000000239395,0.634845812540873
19399.9999999982,16.1156095152415,1.00000000231121,0.630742444981388
19499.9999999967,16.1420773206251,1.00000000242278,0.628984844118045
19599.9999999953,16.1672907241711,1.00000000236436,0.627531263069694
19699.9999999938,16.1917606320603,1.00000000224668,0.631539746965602
19799.9999999924,16.2161879338818,1.00000000228276,0.637857240169696
19899.9999999909,16.2398094416957,1.00000000244921,0.632429741262952
19999.9999999895,16.2664370742842,1.00000000222531,0.633875764298153
20099.999999988,16.2982813528944,1.00000000241547,0.649576464234177
20199.9999999865,16.3302911566676,1.00000000252239,0.655583805055518
20299.9999999851,16.3567067744146,1.00000000261606,0.658573717497917
20399.9999999836,16.3759987151321,1.00000000255099,0.660798086600449
20499.9999999822,16.3911785296471,1.00000000261636,0.667892158935846
20599.9999999807,16.4037452804048,1.00000000248878,0.671708481695369
20699.9999999793,16.4206415473845,1.00000000230862,0.663595981208177
20799.9999999778,16.4419592043784,1.00000000245772,0.655735105050935
20899.9999999764,16.465551537476,1.00000000240106,0.651542944455549
20999.9999999749,16.490127979992,1.00000000246136,0.660362516271726
21099.9999999734,16.5142377438857,1.00000000251691,0.676185330074264
21199.999999972,16.5344875703354,1.00000000244596,0.683463263265206
21299.9999999705,16.5547775002796,1.00000000256235,0.677591688217567
21399.9999999691,16.5733134901594,1.00000000253052,0.673215321640554
21499.9999999676,16.5877975860981,1.00000000259812,0.678769502833478
21599.9999999662,16.6007431111696,1.00000000251729,0.68230347552141
21699.9999999647,16.6110427380541,1.00000000267286,0.685226327673567
21799.9999999633,16.6195475258878,1.00000000257001,0.670971839467914
21899.9999999618,16.6296323869436,1.00000000250353,0.675847904691699
21999.9999999603,16.6398967468444,1.00000000250355,0.67668497855494
22099.9999999589,16.6523844392781,1.00000000244296,0.676471161386761
22199.9999999574,16.6649180929634,1.00000000256209,0.680007210862678
22299.999999956,16.677286527281,1.00000000262948,0.68515493612189
22399.9999999545,16.6861312653785,1.00000000254925,0.687318731736027
22499.9999999531,16.6926314020522,1.00000000259868,0.681103888123597
22599.9999999516,16.6984750204145,1.00000000259845,0.674787514737506
22699.9999999502,16.703225352703,1.00000000258625,0.674227142088162
22799.9999999487,16.7029125965043,1.00000000263072,0.684661996795528
22899.9999999473,16.7019360724564,1.00000000243653,0.678451993986139
22999.9999999458,16.6990037039586,1.00000000240122,0.682925166403839
23099.9999999443,16.6938211554623,1.00000000254235,0.675886041184139
23199.9999999429,16.6877684192098,1.00000000249076,0.674618346649313
23299.9999999414,16.6792743706744,1.0000000025835,0.681845429308009
23399.99999994,16.668613373626,1.00000000262707,0.684268858716259
23499.9999999385,16.6566598705499,1.00000000254044,0.680285386023894
23599.9999999371,16.6440518922777,1.00000000263768,0.6804514500283
23699.9999999356,16.6306623391296,1.00000000269608,0.679897434251664
23799.9999999342,16.6177324531202,1.00000000257112,0.672017742957922
23899.9999999327,16.606691479043,1.00000000254684,0.677786983890963
23999.9999999312,16.5983469267936,1.00000000245082,0.67839511244536
24099.9999999298,16.5935700312446,1.00000000248149,0.67983933107838
24199.9999999283,16.5923898909818,1.00000000260048,0.670222072972179
24299.9999999269,16.5950275622182,1.00000000251903,0.667019796054758
24399.9999999254,16.6019647110612,1.00000000262571,0.662138427114029
24499.999999924,16.614510707689,1.00000000248819,0.662348722143734
24599.9999999225,16.6357220733728,1.00000000254478,0.660710483060089
24699.9999999211,16.6653519453319,1.0000000025057,0.664932256389833
24799.9999999196,16.7021818277367,1.00000000263309,0.660782179427578
24899.9999999181,16.7453332480791,1.00000000251224,0.657909731596777
24999.9999999167,16.7910875320154,1.00000000265832,0.657120494432613
25099.9999999152,16.8407119740977,1.00000000257345,0.646412127878593
25199.9999999138,16.8881287549841,1.0000000028959,0.652517461985094
25299.9999999123,16.9356675789347,1.00000000252546,0.643828018544039
25399.9999999109,16.9832750521797,1.00000000279734,0.654279828831126
25499.9999999094,17.0290160025724,1.00000000262426,0.652305682806679
25599.999999908,17.080460788488,1.0000000024447,0.63909118720237
25699.9999999065,17.1342895346691,1.00000000291297,0.652490222823982
25799.9999999051,17.1878904935191,1.00000000250241,0.646563127676346
25899.9999999036,17.2433045258781,1.00000000274998,0.653982141119635
25999.9999999021,17.2972877155083,1.00000000276112,0.656749659036612
26099.9999999007,17.350696241581,1.0000000028116,0.64629583481415
26199.9999998992,17.4030069480483,1.00000000264382,0.638278235969436
26299.9999998978,17.4562147518255,1.00000000255482,0.643769938919291
26399.9999998963,17.5109227709916,1.00000000268659,0.651178749898396
26499.9999998949,17.5655919215662,1.00000000257876,0.645236681053351
26599.9999998934,17.6275293361914,1.00000000256842,0.648125143791393
26699.999999892,17.6920970418028,1.00000000284499,0.657217824195838
26799.9999998905,17.7563301337784,1.00000000287303,0.663098555812071
26899.999999889,17.8175280212408,1.00000000288549,0.66466328606889
26999.9999998876,17.8792712306295,1.00000000279255,0.65180558710553
27099.9999998861,17.9373358918382,1.00000000298828,0.675653485883952
27199.9999998847,17.9895366772157,1.00000000294961,0.682707158282461
27299.9999998832,18.0392903750312,1.0000000030024,0.678999095372526
27399.9999998818,18.0851120329022,1.00000000292554,0.673274378105207
27499.9999998803,18.1302453400014,1.00000000272908,0.673579550535817
27599.9999998789,18.1755588150152,1.00000000278254,0.678971816864398
27699.9999998774,18.2232766824408,1.00000000279051,0.68107514169811
27799.9999998759,18.2724325087058,1.00000000293618,0.679489519834226
27899.9999998745,18.3228755905346,1.00000000263076,0.683096288493127
27999.999999873,18.3750801912198,1.00000000284671,0.696686913477283
28099.9999998716,18.4273882293248,1.00000000301512,0.696871401029415
28199.9999998701,18.4802922209224,1.00000000274231,0.685029386804626
28299.9999998687,18.5360295603658,1.00000000288255,0.701557858901266
28399.9999998672,18.5859515107006,1.00000000308351,0.699521005922727
28499.9999998658,18.6317920503399,1.00000000302612,0.701731168271346
28599.9999998643,18.6766563481902,1.00000000290535,0.698876483047464
28699.9999998629,18.7198030795475,1.00000000292651,0.687285675542916
28799.9999998614,18.7615735797962,1.00000000282957,0.687886514941532
28899.9999998599,18.8010628576528,1.00000000321544,0.694897721603631
28999.9999998585,18.8409872992533,1.00000000286148,0.705753380077208
