Time,AGPnorm,Energy,Entropy
0,0,1,-2.66952208651444e-20
99.9999999999986,0.00238727589310238,0.999999999999443,0.00852579863222296
199.999999999993,0.00717573549538758,0.999999999999459,0.0245731394736342
300,0.0148720870983199,1.00000000000011,0.0482097264091863
400.000000000022,0.0240942091249507,0.999999999999244,0.0767400081498429
500.000000000045,0.0346263293332888,1.00000000000076,0.112182664351654
600.000000000068,0.0459123576840538,1.00000000000168,0.154971355779995
700.000000000091,0.0564157989176141,1.00000000001831,0.208974975952957
800.000000000113,0.0784818012149381,1.00000000008577,0.275131027622326
900.000000000136,0.125243044585342,1.00000000023898,0.34725390272162
1000.00000000016,0.342537975647846,1.00000000044036,0.412621376039616
1100.0000000001,0.880628238584756,1.00000000067476,0.46400919993449
1200,2.03370053293598,1.00000000072682,0.500676490536944
1299.99999999991,3.93021575548534,1.0000000009245,0.524745077501883
1399.99999999982,6.69133500003332,1.00000000096903,0.538871132343512
1499.99999999973,10.2423693092983,1.00000000096793,0.546769447636404
1599.99999999964,14.474280621196,1.00000000102912,0.548675544479618
1699.99999999955,19.1860598051716,1.0000000009576,0.548169694164573
1799.99999999946,24.1762825588274,1.00000000092735,0.543799319640665
1899.99999999937,29.2324425900352,1.00000000090776,0.538372290698107
1999.99999999928,34.1739535631273,1.00000000083507,0.532855059264011
2099.99999999919,38.8390217717,1.00000000085345,0.524134825740055
2199.99999999909,43.1110793481402,1.00000000083788,0.516598161924427
2299.999999999,46.9094076465015,1.00000000081583,0.51533782804515
2399.99999999891,50.1794445090765,1.00000000071584,0.498092670208751
2499.99999999882,52.8838155977,1.00000000070613,0.496028954196534
2599.99999999873,55.066359286948,1.00000000068711,0.510394264571021
2699.99999999864,56.7273119771822,1.0000000006014,0.478513142827531
2799.99999999855,57.8130263107839,1.00000000052781,0.459826943311867
2899.99999999846,58.4653041676558,1.00000000061674,0.513294578557635
2999.99999999837,58.8504521199813,1.00000000066754,0.515504434004179
3099.99999999828,58.8693274784884,1.00000000039814,0.430141486583924
3199.99999999819,58.4239581320887,1.00000000038448,0.419819295151583
3299.99999999809,57.7685325829922,1.00000000064056,0.517387461985813
3399.999999998,57.1471364509612,1.00000000081624,0.553982282115357
3499.99999999791,56.5018773299939,1.00000000056497,0.472646033737016
3599.99999999782,55.6051980767635,1.00000000021819,0.338039117479303
3699.99999999773,54.4656917414239,1.0000000003496,0.380094121149742
3799.99999999764,53.2986624512131,1.00000000072628,0.501655464442174
3899.99999999755,52.2534715795705,1.00000000087971,0.554511120678642
3999.99999999746,51.3550508378199,1.00000000076987,0.543207290917182
4099.99999999738,50.4785244655523,1.00000000056046,0.439070826577134
4199.99999999775,49.4868015514478,1.00000000023882,0.29510982155561
4299.99999999811,48.4133071571236,1.00000000022605,0.291517637732175
4399.99999999848,47.3456036796274,1.00000000053124,0.425131385999224
4499.99999999884,46.3107630371698,1.00000000074031,0.503734747006438
4599.9999999992,45.3367845749999,1.00000000083904,0.511635194345035
4699.99999999957,44.45528779058,1.00000000083451,0.539200098908998
4799.99999999993,43.6567494217279,1.0000000006777,0.542659413422195
4900.00000000029,42.876509662594,1.00000000049941,0.455144401443008
5000.00000000066,42.0712033348709,1.00000000027183,0.321916767011428
5100.00000000102,41.292132729869,1.0000000002251,0.256431655117868
5200.00000000139,40.6067342385698,1.00000000032977,0.310467054012213
5300.00000000175,39.9887867560658,1.00000000054913,0.415781681147142
5400.00000000211,39.3600317538242,1.00000000072731,0.509795975542259
5500.00000000248,38.7069260235911,1.00000000066162,0.529336235418102
5600.00000000284,38.0590345325199,1.00000000059563,0.470938996435141
5700.00000000321,37.422002665779,1.00000000061608,0.44868926867734
5800.00000000357,36.7865502559316,1.00000000081571,0.509568161575623
5900.00000000393,36.1681366704881,1.00000000083131,0.560019120136836
6000.0000000043,35.5844680711636,1.00000000074354,0.554369142026394
6100.00000000466,35.0215274717572,1.00000000054515,0.487317880395138
6200.00000000502,34.477457597792,1.00000000029965,0.377778462998995
6300.00000000539,34.0128139370787,1.00000000017957,0.279139940829239
6400.00000000575,33.7045914113837,1.00000000022229,0.251251239737875
6500.00000000612,33.5605901304231,1.00000000038028,0.306697529444627
6600.00000000648,33.5167345251596,1.00000000051206,0.392503310574434
6700.00000000684,33.4751421792831,1.00000000065242,0.468431256610197
6800.00000000721,33.3567919456751,1.00000000067492,0.503751336841435
6900.00000000757,33.137142200634,1.00000000075001,0.513853754135406
7000.00000000793,32.8351554315126,1.00000000073842,0.533660781811585
7100.0000000083,32.4952737038475,1.00000000057781,0.534547671055209
7200.00000000866,32.1647707261265,1.00000000043612,0.486325050888479
7300.00000000903,31.8708387410155,1.00000000036582,0.449826559830658
7400.00000000939,31.5921696090967,1.00000000049871,0.470290419849474
7500.00000000975,31.2900253918226,1.00000000067558,0.494187852872055
7600.00000001012,30.9547511137329,1.0000000006851,0.49789079979815
7700.00000001048,30.5910604259691,1.00000000074557,0.504847853138426
7800.00000001084,30.2103147808364,1.00000000087811,0.536357947403946
7900.00000001121,29.8324746801833,1.00000000086153,0.564638952877435
8000.00000001157,29.4684089378354,1.00000000073591,0.559086006811057
8100.00000001194,29.1128338227042,1.00000000052663,0.515479428330896
8200.0000000123,28.7693294791661,1.00000000037864,0.441125148461938
8300.00000001266,28.4788377278677,1.00000000023625,0.355774950306611
8400.00000001303,28.314945070524,1.00000000017173,0.291532529558158
8500.00000001339,28.342781251831,1.00000000020303,0.259458752837327
8600.00000001376,28.5850003567843,1.000000000275,0.277761522084317
8700.00000001412,29.0095977640005,1.00000000039763,0.327345014315919
8800.00000001448,29.5245919115413,1.00000000054312,0.387687749102614
8900.00000001485,30.020844351498,1.00000000066461,0.450093361554119
9000.00000001521,30.4339107712417,1.00000000069959,0.493500884098434
9100.00000001557,30.7360646492986,1.00000000069294,0.517398042990411
9200.00000001594,30.9286435624121,1.00000000070367,0.536771216150488
9300.0000000163,31.0225286119417,1.00000000068524,0.554493430781978
9400.00000001667,31.0443429717443,1.00000000061479,0.546167228316619
9500.00000001703,31.0255800539057,1.00000000057204,0.51729609932485
9600.00000001739,30.9785810067183,1.0000000005486,0.498067966995962
9700.00000001776,30.8884562546689,1.0000000006684,0.508526258825299
9800.00000001812,30.7458802452651,1.00000000070437,0.527775308642946
9900.00000001848,30.5723185956699,1.00000000059307,0.53462403799575
10000.0000000188,30.4004114673072,1.00000000051017,0.51341275868551
10100.0000000192,30.2497591478752,1.0000000004442,0.487894626483189
10200.0000000196,30.1155335826571,1.00000000051791,0.479617524760198
10300.0000000199,29.9889142229263,1.00000000057545,0.482708060028805
10400.0000000203,29.8653586682598,1.0000000005455,0.491578554386625
10500.0000000207,29.7404174653213,1.00000000057337,0.500441861231412
10600.000000021,29.6089563649864,1.00000000057057,0.513749582495874
10700.0000000214,29.4645886629568,1.00000000065214,0.530476820955112
10800.0000000218,29.3054112113101,1.0000000005738,0.541217082491606
10900.0000000221,29.139162806762,1.00000000049724,0.53763842417491
11000.0000000225,28.9731479501451,1.00000000046112,0.534751309890814
11100.0000000229,28.8046735878328,1.0000000005039,0.534901580410854
11200.0000000232,28.6250054334801,1.00000000054493,0.535672968157733
11300.0000000236,28.4283482582202,1.0000000006475,0.538977471492906
11400.0000000239,28.2138872519848,1.00000000066983,0.540853830214039
11500.0000000243,27.9853593925325,1.00000000074584,0.548445787354977
11600.0000000247,27.7519288555934,1.00000000084218,0.552502106978215
11700.000000025,27.5262318482902,1.00000000084851,0.558858145685858
11800.0000000254,27.3192566424616,1.00000000088523,0.569327617162886
11900.0000000258,27.134567234209,1.00000000078926,0.572496267563241
12000.0000000261,26.9635716146455,1.00000000072783,0.568517295745743
12100.0000000265,26.7882308183661,1.00000000060106,0.544786466158946
12200.0000000269,26.5945771045279,1.00000000046296,0.502754927217118
12300.0000000272,26.3860944499536,1.00000000033668,0.450825325697065
12400.0000000276,26.1900193899985,1.0000000002587,0.393441283739962
12500.0000000279,26.0539877267683,1.00000000019737,0.338663684417704
12600.0000000283,26.0360631240068,1.00000000017637,0.30040631679995
12700.0000000287,26.1885100179708,1.00000000019419,0.280612109727964
12800.000000029,26.5528823398797,1.00000000019676,0.271957443172545
12900.0000000294,27.1419714737899,1.00000000027209,0.28372111527134
13000.0000000298,27.9222484451126,1.00000000036254,0.317647699342902
13100.0000000301,28.8377489011677,1.00000000049787,0.356612813051214
13200.0000000305,29.8218386527114,1.00000000052761,0.39824391467301
13300.0000000309,30.7933172753835,1.00000000070061,0.436665189467354
13400.0000000312,31.6951049892501,1.00000000066199,0.471494693035328
13500.0000000316,32.5055598824197,1.00000000068523,0.494235340856052
13600.0000000319,33.2122537271547,1.00000000068242,0.513613219601579
13700.0000000323,33.813628514586,1.00000000070609,0.537661848240806
13800.0000000327,34.3121736710541,1.00000000061188,0.554838020217859
13900.000000033,34.7163737018639,1.00000000064929,0.559139359402536
14000.0000000334,35.0437813798051,1.00000000062407,0.548369081558386
14100.0000000338,35.3094621588981,1.0000000006067,0.544626907685282
14200.0000000341,35.5200589304664,1.00000000062557,0.559209589936354
14300.0000000345,35.6716168340445,1.00000000062273,0.573686797245272
14400.0000000349,35.7689917133293,1.00000000061234,0.572963036671795
14500.0000000352,35.8215961092269,1.00000000061797,0.562609183539105
14600.0000000356,35.8350027646919,1.0000000006613,0.54516488941818
14700.0000000359,35.8180559727796,1.00000000057029,0.534862545681644
14800.0000000363,35.7849519882587,1.00000000053757,0.526312869008239
14900.0000000367,35.7381389391672,1.00000000060452,0.536279036910426
15000.000000037,35.6690069271186,1.00000000063593,0.543757749635579
15100.0000000374,35.5814943544087,1.00000000056726,0.546455134817507
15200.0000000378,35.4835683058958,1.00000000056869,0.553479549708376
15300.0000000381,35.3745349973532,1.00000000058413,0.55471505487396
15400.0000000385,35.2513618568916,1.00000000063344,0.553651771814652
15500.0000000389,35.117453608762,1.00000000057145,0.550383310743689
15600.0000000392,34.9785448291505,1.00000000055756,0.546272856818509
15700.0000000396,34.8411699766239,1.00000000048911,0.533500633157435
15800.0000000399,34.7115923129467,1.00000000047942,0.528211489026061
15900.0000000403,34.5871275653218,1.00000000054344,0.528977104719404
16000.0000000407,34.4590894034376,1.00000000059383,0.531112161670186
16100.000000041,34.3218841251766,1.00000000063879,0.5352465806377
16200.0000000414,34.176881718578,1.00000000062319,0.539137163200811
16300.0000000418,34.0232316399929,1.00000000072318,0.549547744663282
16400.0000000418,33.8591088378436,1.00000000066269,0.559643086185666
16500.0000000404,33.6893373590622,1.00000000058573,0.560712513641068
16600.0000000389,33.5209981139547,1.00000000058375,0.552032091387938
16700.0000000375,33.3604007782698,1.00000000048633,0.548722043013293
16800.000000036,33.2153501400137,1.00000000046507,0.531454559125996
16900.0000000346,33.0927741130149,1.00000000042625,0.517475016101434
17000.0000000331,32.9942373130984,1.00000000044623,0.498956194795945
17100.0000000317,32.9146365972775,1.00000000049593,0.489486847511179
17200.0000000302,32.8433533718722,1.00000000058878,0.48592635235308
17300.0000000287,32.7749831622361,1.00000000057765,0.497770437027868
17400.0000000273,32.713223598934,1.00000000051667,0.501377994386211
17500.0000000258,32.6597838425946,1.00000000052904,0.508245269964651
17600.0000000244,32.6105307751811,1.00000000055944,0.525826882641399
17700.0000000229,32.5626343927208,1.00000000054189,0.53881453019757
17800.0000000215,32.5108687019601,1.00000000059252,0.547339085228886
17900.00000002,32.4480374479392,1.0000000006248,0.546084015879121
18000.0000000186,32.3754844555266,1.00000000059313,0.537057143532395
18100.0000000171,32.2986027482731,1.00000000056259,0.536071442042476
18200.0000000156,32.2196594222387,1.0000000005894,0.542915926993552
18300.0000000142,32.1376450665425,1.00000000060421,0.551630527642001
18400.0000000127,32.0499131869457,1.00000000056544,0.565167062698701
18500.0000000113,31.9593781837744,1.00000000055515,0.575547966308624
18600.0000000098,31.8684011528322,1.00000000057919,0.577722264914536
18700.0000000084,31.7726426779573,1.00000000055792,0.58189004726506
18800.0000000069,31.6695203638511,1.00000000063996,0.583147481129889
18900.0000000055,31.5586066536344,1.00000000066371,0.586518515257223
19000.000000004,31.4399850529032,1.00000000060443,0.585357546084245
19100.0000000026,31.3174544496676,1.00000000057314,0.587965590461638
19200.0000000011,31.1975557486697,1.0000000004871,0.583169184253517
19299.9999999996,31.0827632863773,1.0000000004947,0.571944074324376
19399.9999999982,30.969422329868,1.00000000056529,0.569372982857789
19499.9999999967,30.8520790352488,1.00000000064372,0.563746702248842
19599.9999999953,30.7321499285959,1.00000000057283,0.552032369694886
19699.9999999938,30.6148815916299,1.00000000050602,0.549348990528106
19799.9999999924,30.5020005601861,1.00000000053471,0.556523692975523
19899.9999999909,30.3909577136786,1.00000000056305,0.559235110578662
19999.9999999895,30.2794007704077,1.00000000053675,0.56324987569956
20099.999999988,30.1691967404726,1.00000000055745,0.566702196307675
20199.9999999865,30.0606220889358,1.00000000053719,0.571699426486892
20299.9999999851,29.9515804441247,1.00000000058878,0.56210154626083
20399.9999999836,29.8384085847533,1.00000000061649,0.566455593483814
20499.9999999822,29.7190397021223,1.00000000066044,0.572837908840127
20599.9999999807,29.5955899026251,1.00000000058292,0.563191299506344
20699.9999999793,29.4702949504887,1.00000000057897,0.555475086814151
20799.9999999778,29.3434118815551,1.00000000059128,0.564459570072898
20899.9999999764,29.2134532232299,1.00000000066359,0.584514241384561
20999.9999999749,29.0816234209299,1.0000000005875,0.594813812128731
21099.9999999734,28.9497247556138,1.00000000059156,0.590114167472871
21199.999999972,28.8189651346623,1.00000000050744,0.577338216785782
21299.9999999705,28.6903823326859,1.00000000055209,0.578501878258773
21399.9999999691,28.5613243881692,1.00000000059745,0.584361120118296
21499.9999999676,28.4309487645979,1.00000000064001,0.592003482784375
21599.9999999662,28.300622005251,1.00000000059161,0.598958064088754
21699.9999999647,28.1712785584344,1.00000000051392,0.581469471193119
21799.9999999633,28.0430537551382,1.00000000047469,0.569254025511306
21899.9999999618,27.9160567062821,1.00000000052167,0.575671930595422
21999.9999999603,27.7899087851136,1.00000000051045,0.587821509438227
22099.9999999589,27.6649075894823,1.0000000004719,0.583214687274238
22199.9999999574,27.5412054772476,1.00000000050165,0.578210741452008
22299.999999956,27.4193871263707,1.000000000565,0.581701277465713
22399.9999999545,27.3000730256163,1.00000000059728,0.593523142553659
22499.9999999531,27.1853234444306,1.00000000056799,0.585469284733286
22599.9999999516,27.0770669071837,1.00000000059657,0.578710712292231
22699.9999999502,26.9783563120168,1.00000000066873,0.5918694817856
22799.9999999487,26.8944100321415,1.00000000071371,0.598350287410146
22899.9999999473,26.8285393228813,1.00000000066675,0.595245801156628
22999.9999999458,26.7892111623799,1.00000000070081,0.596042796727802
23099.9999999443,26.7773075037056,1.00000000076597,0.604900116307395
23199.9999999429,26.8056269378721,1.00000000079732,0.609857438349411
23299.9999999414,26.8739533457502,1.00000000085476,0.614574217385583
23399.99999994,26.9933443152623,1.00000000081441,0.618535187176011
23499.9999999385,27.1591638312016,1.00000000081565,0.616871579465513
23599.9999999371,27.3749644860982,1.00000000084223,0.612786902658285
23699.9999999356,27.6410826961924,1.00000000087479,0.607600975056302
23799.9999999342,27.9476280959471,1.00000000087576,0.599553670274042
23899.9999999327,28.2890536753323,1.00000000077058,0.590401573357517
23999.9999999312,28.6340648117953,1.00000000075056,0.583578079745087
24099.9999999298,28.9723486115041,1.00000000073172,0.573853902710307
24199.9999999283,29.267526886454,1.0000000005634,0.559662161733237
24299.9999999269,29.5116704632271,1.00000000054319,0.538248872286646
24399.9999999254,29.6846720727033,1.00000000048423,0.514527783454063
24499.999999924,29.782964787509,1.00000000040507,0.487264111912622
24599.9999999225,29.8107410413775,1.00000000033967,0.457718676609913
24699.9999999211,29.771154533598,1.00000000029149,0.427630970780726
24799.9999999196,29.6917490024889,1.0000000002609,0.3981654549494
24899.9999999181,29.5852916717235,1.00000000021376,0.370363349148709
24999.9999999167,29.4896104089944,1.00000000020397,0.345070600333813
25099.9999999152,29.4304551011071,1.00000000018194,0.322847335502583
25199.9999999138,29.4451074618887,1.00000000016113,0.301912677937646
25299.9999999123,29.5659423403846,1.0000000001611,0.28848506029657
25399.9999999109,29.8273392908992,1.00000000015227,0.27901959884441
25499.9999999094,30.2496425333882,1.00000000014981,0.27092527717462
25599.999999908,30.8671714930311,1.00000000020815,0.278440317545021
25699.9999999065,31.6667622211101,1.00000000022113,0.283214328448497
25799.9999999051,32.6882144606262,1.00000000026196,0.293203744222951
25899.9999999036,33.8728642650737,1.00000000032311,0.307192859970342
25999.9999999021,35.2572993407443,1.00000000035639,0.323645067022618
26099.9999999007,36.7623434930242,1.0000000004306,0.34321561871246
26199.9999998992,38.3885089448411,1.00000000052249,0.362186575139129
26299.9999998978,40.0747092478901,1.00000000051099,0.38106781688353
26399.9999998963,41.7991435214897,1.00000000067075,0.39696049183874
26499.9999998949,43.5270250923419,1.00000000059135,0.417310709494559
26599.9999998934,45.217035240161,1.00000000067787,0.434255070891897
26699.999999892,46.8783019083389,1.00000000067405,0.445154962670322
26799.9999998905,48.4549839912044,1.00000000071191,0.457451735428123
26899.999999889,49.9646054196172,1.00000000074088,0.475182672721387
26999.9999998876,51.380163236499,1.00000000066911,0.494250072519759
27099.9999998861,52.7166694478603,1.00000000072255,0.501391052725011
27199.9999998847,53.9637123876114,1.00000000070799,0.507012577257944
27299.9999998832,55.1126870974063,1.00000000070326,0.515493538633498
27399.9999998818,56.177852411668,1.00000000070303,0.529977943971586
27499.9999998803,57.1495616918016,1.00000000068484,0.544317622538767
27599.9999998789,58.054235119841,1.00000000069224,0.54701448973964
27699.9999998774,58.8785159141652,1.00000000067404,0.548888608233055
27799.9999998759,59.6356816500614,1.00000000067337,0.55183056432492
27899.9999998745,60.319774868522,1.00000000067515,0.56248491865897
27999.999999873,60.9362727072936,1.00000000055928,0.572012671026246
28099.9999998716,61.497112232561,1.00000000068085,0.579465082360366
28199.9999998701,62.0008172570927,1.00000000058604,0.576971851517056
28299.9999998687,62.4651511959905,1.0000000005814,0.578084586967878
28399.9999998672,62.874717728796,1.00000000060345,0.574289224922892
28499.9999998658,63.2418377870818,1.00000000063369,0.584855628248971
28599.9999998643,63.5479198161217,1.00000000065403,0.595497252156438
28699.9999998629,63.8073317944994,1.00000000063882,0.601928668967504
28799.9999998614,64.0255447386343,1.00000000059964,0.602807018539603
28899.9999998599,64.2161229398171,1.00000000059262,0.591781869008734
28999.9999998585,64.3851904923572,1.00000000061585,0.585920026748324
