Time,AGPnorm,Energy,Entropy
0,0,1,-2.2801204982222e-32
99.9999999999986,0.00321715190877094,0.999999999998114,0.0107480991851088
199.999999999993,0.00906380846004988,0.999999999999594,0.0310330227853788
300,0.0189786299968966,0.999999999998651,0.0608448390971692
400.000000000022,0.03034914548438,0.999999999999506,0.0974958373510911
500.000000000045,0.0433916961246051,1.00000000000074,0.144484176536133
600.000000000068,0.0581437800209855,1.00000000001688,0.204378674540451
700.000000000091,0.0720979136046407,1.00000000011409,0.281886240202919
800.000000000113,0.14868837228396,1.00000000035912,0.36557382300302
900.000000000136,0.389294285865646,1.00000000069345,0.437629710228281
1000.00000000016,1.11810326014619,1.00000000103287,0.489078232859164
1100.0000000001,2.50897529452912,1.00000000112168,0.523613228223376
1200,4.76973589120256,1.0000000013168,0.542582982750094
1299.99999999991,7.81143644769595,1.00000000137345,0.554065480964164
1399.99999999982,11.5464261111449,1.00000000128191,0.556678580979198
1499.99999999973,15.6986190576531,1.00000000132927,0.556224490251546
1599.99999999964,20.0709062001853,1.00000000122398,0.553061503533263
1699.99999999955,24.4022558578293,1.00000000125404,0.547139494447085
1799.99999999946,28.5333323307382,1.00000000116601,0.538005656266823
1899.99999999937,32.2897493146745,1.00000000109719,0.533432647747391
1999.99999999928,35.596833308024,1.00000000106666,0.522703460750422
2099.99999999919,38.3634349760909,1.00000000097309,0.516442129145596
2199.99999999909,40.6028774665651,1.0000000008955,0.519502861274805
2299.999999999,42.2813525300214,1.00000000085796,0.488008563406876
2399.99999999891,43.4302926692703,1.00000000085412,0.515142553778865
2499.99999999882,44.1926043975592,1.00000000083839,0.515455117043369
2599.99999999873,44.475117032138,1.00000000055594,0.447562395656822
2699.99999999864,44.354644799938,1.00000000075822,0.513748920419713
2799.99999999855,44.1260761623105,1.00000000091719,0.548930338247422
2899.99999999846,43.7015015675946,1.00000000052954,0.431087070464965
2999.99999999837,42.927539616813,1.00000000049634,0.413174500687091
3099.99999999828,42.0688506166207,1.00000000095429,0.54108940276079
3199.99999999819,41.3284685149577,1.00000000110575,0.563467883191903
3299.99999999809,40.5856566901902,1.00000000059598,0.433666322124756
3399.999999998,39.6570758765879,1.00000000027412,0.31316316517192
3499.99999999791,38.6399339203694,1.00000000071959,0.444512429135832
3599.99999999782,37.6787362771133,1.00000000117948,0.539392973716889
3699.99999999773,36.8485137980159,1.00000000114972,0.563036354336451
3799.99999999764,36.0961070733164,1.00000000083112,0.495655414450793
3899.99999999755,35.3000416840813,1.00000000046021,0.335339274407096
3999.99999999746,34.4694323948006,1.00000000034177,0.297638858070056
4099.99999999738,33.6648047345071,1.00000000070503,0.427155042061594
4199.99999999775,32.8773042028717,1.00000000103038,0.51958906050572
4299.99999999811,32.1198901312243,1.00000000100502,0.503684266341658
4399.99999999848,31.414140548175,1.00000000106926,0.544113104134325
4499.99999999884,30.7668498559266,1.000000000994,0.55498589542565
4599.9999999992,30.1401494056794,1.0000000005876,0.446087603523931
4699.99999999957,29.5347080937359,1.00000000031724,0.309069808960931
4799.99999999993,29.0179030418333,1.00000000039891,0.294609118776798
4900.00000000029,28.5936511351902,1.00000000062799,0.392201467233259
5000.00000000066,28.1756960948951,1.00000000090978,0.490442201809291
5100.00000000102,27.7124455789575,1.00000000105601,0.545639885195955
5200.00000000139,27.2425439237499,1.00000000065167,0.503824143033605
5300.00000000175,26.7905590103551,1.00000000064612,0.452515518902526
5400.00000000211,26.3287076041646,1.00000000100333,0.496001028093603
5500.00000000248,25.8545341326489,1.00000000116728,0.554573758472553
5600.00000000284,25.3979360886519,1.00000000101603,0.567819918761722
5700.00000000321,24.9622876576045,1.00000000067646,0.506310539148761
5800.00000000357,24.5610303623497,1.00000000046279,0.389458270238593
5900.00000000393,24.2621305502856,1.0000000002855,0.299973769174526
6000.0000000043,24.1242933202501,1.00000000039908,0.290264348304579
6100.00000000466,24.111308262812,1.00000000063728,0.36721523150813
6200.00000000502,24.1246586123804,1.00000000080551,0.459009720462007
6300.00000000539,24.0930039986914,1.0000000008678,0.513269471364615
6400.00000000575,23.9928377212599,1.00000000090532,0.51740057107463
6500.00000000612,23.8261318526095,1.00000000087637,0.523962736453648
6600.00000000648,23.6061433570627,1.00000000096201,0.544550137763451
6700.00000000684,23.3700552375592,1.00000000073651,0.527192316338313
6800.00000000721,23.1541473296342,1.00000000059126,0.492198593750147
6900.00000000757,22.9557343077563,1.00000000065565,0.4957862217409
7000.00000000793,22.7461181116319,1.00000000080201,0.513682224619783
7100.0000000083,22.5132539916457,1.0000000008326,0.511257307790365
7200.00000000866,22.2542277656635,1.00000000094252,0.516851911423687
7300.00000000903,21.9691937750444,1.00000000115558,0.54388891488589
7400.00000000939,21.6776607401966,1.00000000109614,0.570675218807898
7500.00000000975,21.3934233817087,1.00000000093463,0.566330711335661
7600.00000001012,21.1176643601553,1.00000000071951,0.515434393614975
7700.00000001048,20.8700108121644,1.00000000045308,0.429124601114812
7800.00000001084,20.7077513864649,1.00000000032281,0.349445446284997
7900.00000001121,20.7001008099551,1.00000000030418,0.303706203927899
8000.00000001157,20.8815065811939,1.00000000040422,0.302849337092092
8100.00000001194,21.2139748861281,1.00000000056902,0.354232747777683
8200.0000000123,21.6111291352457,1.00000000072652,0.415262463929044
8300.00000001266,21.9835181090313,1.00000000085394,0.47303825450146
8400.00000001303,22.2729806294001,1.00000000092925,0.515266549840298
8500.00000001339,22.4864989340065,1.00000000077843,0.527749336559122
8600.00000001376,22.6340229966255,1.00000000088724,0.540350198135415
8700.00000001412,22.7114473335142,1.00000000088136,0.566521550796311
8800.00000001448,22.7309087072067,1.00000000078851,0.560099214037079
8900.00000001485,22.7164085868703,1.00000000074556,0.540248921551874
9000.00000001521,22.6744684303725,1.00000000075218,0.528204500058606
9100.00000001557,22.6002187130509,1.00000000093695,0.52890898317794
9200.00000001594,22.4888075601914,1.00000000089913,0.539052000417305
9300.0000000163,22.3621855670077,1.00000000073327,0.538413995710524
9400.00000001667,22.2505660413824,1.00000000062638,0.517555790762542
9500.00000001703,22.159236441935,1.00000000070935,0.50703410330907
9600.00000001739,22.0688909979206,1.00000000083972,0.510269966048365
9700.00000001776,21.9738152096013,1.00000000078832,0.51641584784995
9800.00000001812,21.8774352370957,1.00000000074334,0.516485249613334
9900.00000001848,21.7805847432977,1.00000000075066,0.525010855138866
10000.0000000188,21.6769168766436,1.00000000078639,0.534249024729185
10100.0000000192,21.5566110467353,1.00000000084706,0.55071428185308
10200.0000000196,21.425269222975,1.00000000077404,0.558137529211352
10300.0000000199,21.2911743439346,1.00000000063652,0.558659723806598
10400.0000000203,21.1598310988814,1.00000000064,0.551290136271479
10500.0000000207,21.0241931454027,1.00000000073776,0.553556086394791
10600.000000021,20.8755783942133,1.00000000080338,0.559419644555001
10700.0000000214,20.7120838502281,1.00000000090761,0.557135733371499
10800.0000000218,20.5366844897659,1.00000000098082,0.56592287604723
10900.0000000221,20.3577141426105,1.00000000102865,0.565942243024945
11000.0000000225,20.1853005497509,1.00000000111756,0.572085691475179
11100.0000000229,20.0273722499476,1.00000000122317,0.579180576278313
11200.0000000232,19.8824094788528,1.00000000099087,0.578586759411174
11300.0000000236,19.7372629212607,1.00000000090205,0.564530694559624
11400.0000000239,19.5802304831009,1.00000000063496,0.523787367528972
11500.0000000243,19.4152249013205,1.00000000047917,0.469073879805753
11600.0000000247,19.27050031086,1.0000000003964,0.410371177698174
11700.000000025,19.1925502556891,1.00000000032252,0.360265440359803
11800.0000000254,19.2358067375443,1.00000000026818,0.322138691103139
11900.0000000258,19.4439531531113,1.00000000035794,0.315574553447478
12000.0000000261,19.8306008059779,1.00000000038476,0.31960724576157
12100.0000000265,20.3851927407862,1.00000000049134,0.340880271808941
12200.0000000269,21.0430405088334,1.00000000072499,0.381419482635136
12300.0000000272,21.7376809157383,1.00000000077316,0.420228280487849
12400.0000000276,22.4192368890213,1.00000000083852,0.456955998129744
12500.0000000279,23.0397485498862,1.00000000096678,0.490952001804886
12600.0000000283,23.5838851686497,1.00000000090227,0.517407662496449
12700.0000000287,24.0585175039662,1.0000000008887,0.52753065958569
12800.000000029,24.4637028908818,1.00000000087322,0.541696819059626
12900.0000000294,24.804936191955,1.00000000083086,0.567376794757891
13000.0000000298,25.0861490246006,1.00000000079788,0.575086572823607
13100.0000000301,25.3120612631586,1.00000000089127,0.573773874006904
13200.0000000305,25.4885323046395,1.00000000079686,0.568772740004009
13300.0000000309,25.6241830270339,1.00000000077853,0.578154335292463
13400.0000000312,25.7156774113432,1.00000000087269,0.59534206435476
13500.0000000316,25.7621236974885,1.00000000086273,0.591719339369141
13600.0000000319,25.7794317916271,1.00000000076878,0.578172163730084
13700.0000000323,25.7733860374802,1.00000000084064,0.564518657273669
13800.0000000327,25.7456217990956,1.00000000081552,0.555252367477669
13900.000000033,25.7095492669928,1.00000000069992,0.545331432956762
14000.0000000334,25.6661695834259,1.00000000081952,0.554269515017938
14100.0000000338,25.6065154677022,1.00000000083188,0.559484192033294
14200.0000000341,25.5324916797758,1.00000000079044,0.565102684984223
14300.0000000345,25.4487372577245,1.00000000081508,0.577693765454148
14400.0000000349,25.3536493584051,1.00000000084124,0.574780446925566
14500.0000000352,25.2492919245127,1.00000000081201,0.573326312944293
14600.0000000356,25.1391801902912,1.00000000079443,0.573130961099485
14700.0000000359,25.0272870467029,1.00000000076619,0.568107593399598
14800.0000000363,24.9197038503846,1.00000000069921,0.555817703040913
14900.0000000367,24.820188380092,1.00000000065845,0.547010212830635
15000.000000037,24.7243321162648,1.0000000008093,0.547766646799328
15100.0000000374,24.6247750956889,1.00000000078838,0.551628319250715
15200.0000000378,24.5219681306484,1.00000000090255,0.557261338021657
15300.0000000381,24.4133911879765,1.00000000090602,0.564310194443195
15400.0000000385,24.2967331116291,1.00000000086218,0.570266470199935
15500.0000000389,24.179809805521,1.00000000080908,0.56829513563072
15600.0000000392,24.0697827516272,1.0000000006804,0.561347109509449
15700.0000000396,23.9714800134212,1.00000000072274,0.555875966388348
15800.0000000399,23.8846305830029,1.00000000070286,0.546320008682862
15900.0000000403,23.808831592155,1.00000000068695,0.543972681594281
16000.0000000407,23.7466776910374,1.00000000070208,0.525103901728223
16100.000000041,23.6902860586949,1.00000000082626,0.514523080971984
16200.0000000414,23.6308748380223,1.00000000082977,0.515581069003096
16300.0000000418,23.5741658322082,1.00000000072861,0.517759556757843
16400.0000000418,23.5276048568167,1.00000000069725,0.524582465389868
16500.0000000404,23.48541451425,1.00000000077272,0.547314208077711
16600.0000000389,23.4431568009026,1.00000000077169,0.566523228596995
16700.0000000375,23.3990876415007,1.00000000080904,0.575995773138431
16800.000000036,23.3454914031355,1.00000000090939,0.569702580200456
16900.0000000346,23.2818825450567,1.00000000085704,0.558147021147746
17000.0000000331,23.2169067099828,1.00000000072095,0.555207159392385
17100.0000000317,23.158007439253,1.00000000070095,0.561010765758637
17200.0000000302,23.0988618535556,1.0000000008417,0.573041828243345
17300.0000000287,23.0348685907771,1.00000000074674,0.584199851756352
17400.0000000273,22.9703406548925,1.00000000074184,0.589161778597059
17500.0000000258,22.9060905837763,1.00000000079331,0.592427121693762
17600.0000000244,22.8342268270868,1.00000000085439,0.59800208513094
17700.0000000229,22.7542861652496,1.00000000082547,0.593888950352621
17800.0000000215,22.6696154354516,1.00000000084087,0.592697572622122
17900.00000002,22.5793143302271,1.00000000083884,0.599883213600985
18000.0000000186,22.4862496622124,1.00000000081103,0.603249207155206
18100.0000000171,22.3968950233856,1.00000000065664,0.589494709803644
18200.0000000156,22.3132503778592,1.00000000077098,0.584062705040679
18300.0000000142,22.2279359484522,1.00000000086408,0.584514073317918
18400.0000000127,22.1396102363491,1.00000000079062,0.573111853515796
18500.0000000113,22.052256591707,1.0000000007802,0.572570824995252
18600.0000000098,21.9678743572351,1.00000000073612,0.584932318427317
18700.0000000084,21.8837683938561,1.00000000079473,0.588935837028355
18800.0000000069,21.7987304702147,1.00000000081475,0.587798791591835
18900.0000000055,21.7156199502527,1.00000000070666,0.585132190575455
19000.000000004,21.6345954974964,1.00000000080854,0.587201135916434
19100.0000000026,21.5525406359702,1.00000000082175,0.574965674696387
19200.0000000011,21.4664329894096,1.0000000008904,0.586979244229698
19299.9999999996,21.3762465106031,1.00000000081829,0.587283737418694
19399.9999999982,21.2836421109764,1.00000000081785,0.582521727330444
19499.9999999967,21.1888848970091,1.00000000082352,0.583286521034105
19599.9999999953,21.0922006962619,1.00000000076922,0.593383237492034
19699.9999999938,20.9927471272856,1.00000000089489,0.610862294563747
19799.9999999924,20.8916135791923,1.00000000082116,0.612098947165731
19899.9999999909,20.7910659378521,1.00000000073758,0.602750089957017
19999.9999999895,20.6927577705067,1.00000000067002,0.591447382940264
20099.999999988,20.5948610018915,1.00000000083605,0.606443672545537
20199.9999999865,20.4944653934899,1.00000000088219,0.613180990713922
20299.9999999851,20.3941551253324,1.00000000084226,0.616544741432695
20399.9999999836,20.294872769222,1.00000000070573,0.59033631882424
20499.9999999822,20.1965995852038,1.00000000072163,0.589970216393336
20599.9999999807,20.0990995606306,1.00000000076321,0.603511192212001
20699.9999999793,20.0025410461153,1.00000000070921,0.60284363980787
20799.9999999778,19.9071247459654,1.00000000065298,0.598462494806476
20899.9999999764,19.8133601027255,1.00000000073342,0.597323608811887
20999.9999999749,19.7213998498084,1.00000000074755,0.602583428202922
21099.9999999734,19.6328088778042,1.00000000085344,0.606560668187841
21199.999999972,19.5488881557823,1.00000000083508,0.600009621174069
21299.9999999705,19.4723243910002,1.00000000086481,0.60485198635101
21399.9999999691,19.4065738367927,1.00000000091559,0.614634058741781
21499.9999999676,19.3546075290506,1.00000000096009,0.612159444644818
21599.9999999662,19.3246421023841,1.0000000010098,0.615201478994688
21699.9999999647,19.3155291181529,1.00000000104265,0.622540454784193
21799.9999999633,19.3415382567852,1.00000000108574,0.624940575173914
21899.9999999618,19.3960750206711,1.00000000117418,0.630442262270639
21999.9999999603,19.4959114801325,1.00000000120257,0.633314719706727
22099.9999999589,19.6240999308283,1.00000000108769,0.625221492408547
22199.9999999574,19.7962356005314,1.00000000117635,0.620761933377622
22299.999999956,19.993414740285,1.00000000116427,0.610955186711158
22399.9999999545,20.2153614572113,1.00000000107068,0.600550051202884
22499.9999999531,20.4362939149613,1.00000000101991,0.593247521486035
22599.9999999516,20.6392824827856,1.00000000087035,0.582596303376643
22699.9999999502,20.8047872891284,1.00000000072057,0.563892343882589
22799.9999999487,20.91750166207,1.00000000070697,0.539531198281819
22899.9999999473,20.9732883815278,1.00000000057527,0.508826341311108
22999.9999999458,20.9734041401356,1.00000000052047,0.480521329538409
23099.9999999443,20.9261921891102,1.00000000046102,0.450352348344781
23199.9999999429,20.8559364952157,1.00000000041815,0.418451808284899
23299.9999999414,20.7772176953576,1.00000000035812,0.392664015855429
23399.99999994,20.7276237122786,1.00000000030129,0.36663562132587
23499.9999999385,20.7319158747351,1.00000000030193,0.346301935655886
23599.9999999371,20.8222740879017,1.00000000027912,0.330200250088855
23699.9999999356,21.031550611656,1.0000000003077,0.32236725166547
23799.9999999342,21.3712908527861,1.00000000033448,0.322456726150602
23899.9999999327,21.8683668351135,1.00000000036852,0.32168395548097
23999.9999999312,22.5192326600293,1.00000000041758,0.334107735713196
24099.9999999298,23.3169226001659,1.00000000045955,0.342913284244164
24199.9999999283,24.258011011276,1.00000000058755,0.357392126633778
24299.9999999269,25.2865602738355,1.00000000071906,0.372938395709812
24399.9999999254,26.4102010977551,1.00000000074647,0.391716127216797
24499.999999924,27.5561223492337,1.0000000008339,0.408278395035416
24599.9999999225,28.7408183629846,1.00000000090423,0.428027895307408
24699.9999999211,29.899432201112,1.00000000091364,0.445166076064962
24799.9999999196,31.0493454894203,1.00000000092864,0.450664286836027
24899.9999999181,32.1454041299973,1.00000000102175,0.47080172601378
24999.9999999167,33.1927926762867,1.0000000009641,0.486559052561966
25099.9999999152,34.1921036884024,1.00000000099401,0.497113670900428
25199.9999999138,35.1195228934251,1.00000000099601,0.504017201241061
25299.9999999123,35.997350473316,1.00000000085766,0.517857367767052
25399.9999999109,36.8084323366956,1.00000000093718,0.531194023251094
25499.9999999094,37.5765042115572,1.0000000008539,0.535942467112048
25599.999999908,38.2834760997236,1.00000000091646,0.54611195257096
25699.9999999065,38.9354385288847,1.00000000090987,0.550059346865036
25799.9999999051,39.5407089081879,1.00000000088214,0.562673345797069
25899.9999999036,40.0923671443307,1.00000000083197,0.574318870222804
25999.9999999021,40.6105749116515,1.00000000085631,0.583096804959019
26099.9999999007,41.0796586107732,1.00000000082237,0.577856026474589
26199.9999998992,41.5190803038892,1.000000000823,0.584047206470214
26299.9999998978,41.9029175518478,1.00000000087991,0.603071466532093
26399.9999998963,42.2429036455206,1.00000000084561,0.611654322883769
26499.9999998949,42.5423901173195,1.00000000085863,0.610983383123572
26599.9999998934,42.8108148133281,1.00000000080838,0.600011457432946
26699.999999892,43.0520355332802,1.00000000088365,0.601857539314714
26799.9999998905,43.2501446957186,1.00000000086172,0.610544159082147
26899.999999889,43.4130761114073,1.00000000093988,0.626310269821455
26999.9999998876,43.5332482819956,1.00000000087289,0.631013074599044
27099.9999998861,43.6364614420717,1.00000000079622,0.620684153826903
27199.9999998847,43.7233309275871,1.00000000077305,0.600865788412857
27299.9999998832,43.7992542396399,1.00000000080376,0.598950296228901
27399.9999998818,43.849858667518,1.0000000009195,0.609146744018143
27499.9999998803,43.8703892322205,1.00000000090186,0.616378419694603
27599.9999998789,43.8696658318248,1.00000000084159,0.612944276411738
27699.9999998774,43.8548180892609,1.00000000079738,0.608663470487423
27799.9999998759,43.8377528100429,1.00000000075737,0.603099099038287
27899.9999998745,43.8129452644426,1.00000000078467,0.598712396608482
27999.999999873,43.78199933796,1.0000000008465,0.598301896482042
28099.9999998716,43.7360459892646,1.00000000086305,0.582800175688032
28199.9999998701,43.6816763901496,1.0000000008317,0.580433028599839
28299.9999998687,43.618722988929,1.00000000085893,0.593266479366205
28399.9999998672,43.547406633581,1.00000000085643,0.607471647320358
28499.9999998658,43.4704493838721,1.00000000084807,0.611101032789789
28599.9999998643,43.3906098165074,1.00000000070628,0.585886949016623
28699.9999998629,43.316809197047,1.00000000069607,0.572599199424786
28799.9999998614,43.2418905433488,1.00000000083326,0.587560255058477
28899.9999998599,43.156427390251,1.00000000098526,0.587935533478264
28999.9999998585,43.0578543270332,1.00000000083156,0.582942171237601
