Time,AGPnorm,Energy,Entropy
0,0,1,-1.36145626412133e-17
99.9999999999986,2.22465508163543e-05,0.999999999998122,0.000925730131340343
199.999999999993,0.00204279754816448,0.999999999997476,0.00152841184609965
300,0.00481857666431181,1.00000000000039,0.00266905828736509
400.000000000022,0.00664025946399646,0.999999999996606,0.00458537990475726
500.000000000045,0.00834709655218204,0.999999999999447,0.00621190139611586
600.000000000068,0.0119625357386757,0.999999999998861,0.0085415533823921
700.000000000091,0.0145095315385493,0.999999999996863,0.011084580384516
800.000000000113,0.0182498008737514,1.00000000000056,0.0136262754154998
900.000000000136,0.0234076413370889,0.999999999997017,0.0167064212018002
1000.00000000016,0.0276490966597898,0.999999999998706,0.0197626060058254
1100.0000000001,0.0326932003597724,0.999999999999534,0.0230432192867361
1200,0.0380218340141127,0.999999999996502,0.0267181591404985
1299.99999999991,0.043822406866662,1.00000000000046,0.0303308310797137
1399.99999999982,0.0508270687638371,0.999999999997649,0.0342842456812985
1499.99999999973,0.05697083626655,0.999999999997869,0.038445497827035
1599.99999999964,0.0634297881085599,1.00000000000004,0.0426002595259409
1699.99999999955,0.0711383440904297,0.999999999996495,0.0471857705053348
1799.99999999946,0.0789322025092436,1.00000000000008,0.0518335284340155
1899.99999999937,0.086967654347711,0.999999999998348,0.0566416421720765
1999.99999999928,0.0943759205702264,0.999999999997099,0.0618242327795911
2099.99999999919,0.102047153040662,1.00000000000037,0.0669493996784699
2199.99999999909,0.11151124249961,0.999999999996837,0.0725006511521796
2299.999999999,0.120684921467191,0.999999999999415,0.0783025548648039
2399.99999999891,0.129183784582563,0.999999999998936,0.0841311737075709
2499.99999999882,0.13755533350488,0.999999999996589,0.0904613606531968
2599.99999999873,0.146328477552705,1.00000000000054,0.0968466859025472
2699.99999999864,0.156602748648454,0.99999999999745,0.103682977843606
2799.99999999855,0.166176120475803,0.999999999998568,0.110986048072322
2899.99999999846,0.174755124834659,0.999999999999369,0.118309275894017
2999.99999999837,0.183886506706816,0.99999999999652,0.126329885076257
3099.99999999828,0.193606252328086,1.00000000000054,0.134748989754462
3199.99999999819,0.203793146061915,0.999999999998407,0.143746429337909
3299.99999999809,0.212902574810586,0.999999999998332,0.153622670518625
3399.999999998,0.221491325301522,1.00000000000121,0.163870025678528
3499.99999999791,0.230969497233099,1.00000000000026,0.175333967189752
3599.99999999782,0.241015857092353,1.00000000000777,0.187758755339711
3699.99999999773,0.251308726002094,1.00000000001297,0.200896817371901
3799.99999999764,0.258938424372079,1.00000000002117,0.214982214308382
3899.99999999755,0.270073729840291,1.00000000003873,0.229150393955668
3999.99999999746,0.282490501913104,1.00000000005699,0.243873035293107
4099.99999999738,0.296345032775825,1.00000000007828,0.258821525349687
4199.99999999775,0.320997952275168,1.00000000010516,0.273189157816656
4299.99999999811,0.346612043860133,1.00000000013232,0.287578604953682
4399.99999999848,0.392305456317536,1.00000000016356,0.301451683540422
4499.99999999884,0.462182581475598,1.00000000018773,0.315126208716643
4599.9999999992,0.551009130994405,1.00000000021939,0.328826480333342
4699.99999999957,0.690460763105261,1.00000000026019,0.341396957564449
4799.99999999993,0.872485243346598,1.00000000030539,0.354003498520335
4900.00000000029,1.11394306906054,1.00000000033177,0.366287808646908
5000.00000000066,1.4451294537072,1.00000000035776,0.37783280009768
5100.00000000102,1.85031507304707,1.00000000037739,0.389501042545121
5200.00000000139,2.36793548107721,1.00000000041375,0.400012239280554
5300.00000000175,3.01102567591177,1.00000000044556,0.410422661635335
5400.00000000211,3.77028673953303,1.00000000049022,0.420755690917421
5500.00000000248,4.69889087525191,1.00000000050151,0.430064645687346
5600.00000000284,5.78110738446009,1.00000000050412,0.439512813426015
5700.00000000321,7.02881345725142,1.00000000053661,0.448161916967399
5800.00000000357,8.48718578888451,1.0000000005565,0.456331113205083
5900.00000000393,10.117809738873,1.00000000058605,0.46469474004625
6000.0000000043,11.969544940545,1.00000000060513,0.471849356977484
6100.00000000466,14.0456207663151,1.00000000059732,0.47916825752574
6200.00000000502,16.3122114973089,1.00000000060638,0.486255523569221
6300.00000000539,18.837932764362,1.00000000066804,0.492261399490486
6400.00000000575,21.5753281385951,1.00000000063056,0.498783310057664
6500.00000000612,24.5381668478865,1.00000000067733,0.504129020961304
6600.00000000648,27.7615618141264,1.00000000066373,0.509488611577445
6700.00000000684,31.1730115272199,1.00000000069207,0.515093588945609
6800.00000000721,34.8399707294741,1.00000000068297,0.519570367884227
6900.00000000757,38.7318877362935,1.00000000068942,0.524178694562542
7000.00000000793,42.814389736357,1.00000000067519,0.528512143536633
7100.0000000083,47.1496429369916,1.000000000682,0.532211912794365
7200.00000000866,51.6514825044391,1.00000000071304,0.536373108294202
7300.00000000903,56.3616094071636,1.000000000675,0.539600781571724
7400.00000000939,61.2815076981318,1.000000000685,0.542729200257016
7500.00000000975,66.3361265151181,1.00000000069065,0.546276963543105
7600.00000001012,71.5982124365329,1.00000000068461,0.548743578480827
7700.00000001048,76.9941729012724,1.00000000069127,0.551476352277524
7800.00000001084,82.5263248112954,1.00000000069755,0.553754065302241
7900.00000001121,88.2290214083686,1.00000000069454,0.555933885271188
8000.00000001157,94.0065883102444,1.00000000068671,0.558590371993188
8100.00000001194,99.9229523148284,1.00000000068147,0.560023287579705
8200.0000000123,105.93361398512,1.00000000069614,0.561828683785687
8300.00000001266,112.00378504746,1.00000000070469,0.563608461678676
8400.00000001303,118.187910921854,1.00000000068469,0.564816010607485
8500.00000001339,124.393120957714,1.00000000066345,0.566771209292209
8600.00000001376,130.661035402964,1.00000000069652,0.567542535156535
8700.00000001412,136.9793286274,1.00000000066248,0.568695493747933
8800.00000001448,143.28915040677,1.0000000006451,0.570062095840851
8900.00000001485,149.64980873246,1.00000000066307,0.570555200756164
9000.00000001521,155.986217883478,1.0000000006466,0.571567399169025
9100.00000001557,162.313985010063,1.00000000063857,0.572370375661776
9200.00000001594,168.647530467847,1.00000000065654,0.572370671350335
9300.0000000163,174.917658341058,1.0000000006274,0.573642472543684
9400.00000001667,181.177667633735,1.00000000061241,0.573615296106604
9500.00000001703,187.376757330599,1.00000000060148,0.574269518035873
9600.00000001739,193.509261261618,1.00000000061149,0.574564808905114
9700.00000001776,199.60422857937,1.00000000059564,0.574466669595359
9800.00000001812,205.597986412754,1.00000000062273,0.575209359545557
9900.00000001848,211.527643381066,1.00000000060372,0.574626695306977
10000.0000000188,217.369142272246,1.00000000059658,0.575411707527789
10100.0000000192,223.099812178366,1.00000000057908,0.574955556983752
10200.0000000196,228.756523660149,1.00000000057196,0.575186975918513
10300.0000000199,234.285945855721,1.00000000059992,0.575203955802737
10400.0000000203,239.710926418901,1.00000000056033,0.574652975951041
10500.0000000207,245.027195296989,1.00000000056304,0.575435629858059
10600.000000021,250.205407109029,1.00000000055198,0.574540171520034
10700.0000000214,255.280078730845,1.00000000054158,0.574771931372505
10800.0000000218,260.213377349969,1.00000000054022,0.574972106742076
10900.0000000221,265.014712482058,1.00000000052157,0.573719988723057
11000.0000000225,269.692387834487,1.0000000005324,0.574451015463771
11100.0000000229,274.21726182666,1.00000000052623,0.573750451342595
11200.0000000232,278.618317700387,1.00000000052223,0.5725912254131
11300.0000000236,282.868306493633,1.00000000052746,0.573596808611296
11400.0000000239,286.973581982854,1.00000000050461,0.572502107076755
11500.0000000243,290.944878968701,1.00000000050882,0.571874562012927
11600.0000000247,294.756598198978,1.00000000050689,0.57260505887046
11700.000000025,298.434731704425,1.00000000048676,0.570829642814071
11800.0000000254,301.959273711468,1.00000000049054,0.571128261571709
11900.0000000258,305.332502443541,1.0000000004741,0.57138220008761
12000.0000000261,308.572367952637,1.00000000046167,0.569784727167383
12100.0000000265,311.650893774749,1.00000000046976,0.57043266349884
12200.0000000269,314.592738938693,1.0000000004614,0.569734555582875
12300.0000000272,317.38669434906,1.00000000045455,0.568753267299087
12400.0000000276,320.028363705774,1.00000000045564,0.569483231613205
12500.0000000279,322.539979772566,1.00000000045819,0.567903336660201
12600.0000000283,324.897603966926,1.00000000045199,0.567468959835905
12700.0000000287,327.118541406765,1.00000000044427,0.568450621464983
12800.000000029,329.203219374641,1.00000000043188,0.567464243563251
12900.0000000294,331.140743317481,1.00000000043066,0.566945554896251
13000.0000000298,332.953337898358,1.00000000042353,0.565985971079284
13100.0000000301,334.624396582919,1.00000000042059,0.565669579649155
13200.0000000305,336.164182569319,1.00000000041967,0.56712628329106
13300.0000000309,337.580211366261,1.00000000040657,0.567206736537806
13400.0000000312,338.86295070473,1.00000000040076,0.564258233534279
13500.0000000316,340.026328253198,1.00000000039033,0.562445891850892
13600.0000000319,341.060367488537,1.00000000039061,0.565738053226661
13700.0000000323,341.978105423869,1.00000000040531,0.568449515550379
13800.0000000327,342.788428107611,1.00000000038952,0.565269731100122
13900.000000033,343.478258935321,1.00000000037796,0.560790142945679
14000.0000000334,344.057612053523,1.00000000037276,0.560060368066531
14100.0000000338,344.52349284526,1.00000000038517,0.565621797152076
14200.0000000341,344.890599530859,1.0000000003968,0.569948979807313
14300.0000000345,345.171804722927,1.00000000039068,0.565442201954492
14400.0000000349,345.350775211195,1.0000000003547,0.556670809820165
14500.0000000352,345.429031126758,1.00000000033743,0.554811445432654
14600.0000000356,345.406574640202,1.00000000037382,0.563265195744374
14700.0000000359,345.306131618455,1.00000000040556,0.571923756629273
14800.0000000363,345.143955597198,1.0000000004044,0.567716277073661
14900.0000000367,344.903768334376,1.00000000034893,0.554552960725644
15000.000000037,344.577212597637,1.00000000033307,0.54732636260397
15100.0000000374,344.159087672266,1.00000000034683,0.554799796157066
15200.0000000378,343.674253257903,1.00000000039365,0.569775208214506
15300.0000000381,343.150089241129,1.00000000043385,0.574708714456516
15400.0000000385,342.581994979798,1.00000000038118,0.559787924120405
15500.0000000389,341.950778374393,1.00000000034625,0.544859179223146
15600.0000000392,341.241363892277,1.00000000029234,0.537586288501612
15700.0000000396,340.459375680556,1.0000000003451,0.554368753644639
15800.0000000399,339.641932410309,1.0000000004281,0.573437657727315
15900.0000000403,338.805730256526,1.00000000047283,0.575511893325521
16000.0000000407,337.949045366535,1.00000000039133,0.556400372206778
16100.000000041,337.043002312708,1.00000000031713,0.534332906276073
16200.0000000414,336.067103782428,1.00000000027153,0.524995284336233
16300.0000000418,335.034897593168,1.00000000034536,0.544462260818934
16400.0000000418,333.974755272412,1.00000000044005,0.573623931428694
16500.0000000404,332.917476640027,1.00000000047752,0.579114706387299
16600.0000000389,331.860129992122,1.00000000043719,0.560533521010497
16700.0000000375,330.775233823826,1.00000000034925,0.533253255797778
16800.000000036,329.641249033407,1.00000000026002,0.511807124026175
16900.0000000346,328.448079060082,1.00000000029015,0.520075406011979
17000.0000000331,327.224982846141,1.00000000040469,0.555842733363455
17100.0000000317,326.006431310084,1.00000000052374,0.57965934776345
17200.0000000302,324.803139109604,1.00000000050516,0.574960130932741
17300.0000000287,323.608035468915,1.00000000043691,0.550220022181372
17400.0000000273,322.390659736334,1.00000000030117,0.517742411140486
17500.0000000258,321.130023362102,1.00000000025721,0.499343341686177
17600.0000000244,319.827266215883,1.00000000028374,0.509741398787449
17700.0000000229,318.502209347338,1.0000000004095,0.550008239464347
17800.0000000215,317.189227885708,1.00000000051244,0.579118791627867
17900.00000002,315.900494031077,1.00000000053734,0.577977670320818
18000.0000000186,314.628366801875,1.00000000045765,0.553640849703342
18100.0000000171,313.352629068285,1.0000000003433,0.518645510887902
18200.0000000156,312.047867969087,1.00000000027272,0.494778246092457
18300.0000000142,310.710521569211,1.00000000025642,0.492201052807477
18400.0000000127,309.348272169483,1.0000000003419,0.519229977698546
18500.0000000113,307.985312303686,1.00000000046731,0.56014089820094
18600.0000000098,306.644560128159,1.00000000053878,0.580187485699401
18700.0000000084,305.329412831911,1.00000000052806,0.571603101046036
18800.0000000069,304.030705493715,1.00000000043105,0.542859412591959
18900.0000000055,302.729881306645,1.00000000034815,0.510140469918242
19000.000000004,301.41063362203,1.00000000028169,0.489030951649178
19100.0000000026,300.070472402299,1.00000000026436,0.48727489294652
19200.0000000011,298.712398017327,1.00000000032437,0.507560202554157
19299.9999999996,297.355202431025,1.00000000045061,0.544383142549554
19399.9999999982,296.014616456865,1.00000000052759,0.570171064594522
19499.9999999967,294.697015945217,1.00000000052644,0.571661734905894
19599.9999999953,293.400739466899,1.00000000048438,0.551726566047962
19699.9999999938,292.113682372694,1.00000000041313,0.523227930776996
19799.9999999924,290.824116185906,1.00000000032018,0.496551540150679
19899.9999999909,289.524439082937,1.00000000028952,0.485682359090005
19999.9999999895,288.212130177416,1.00000000029354,0.490505675840286
20099.999999988,286.89562264021,1.00000000034575,0.508299330785484
20199.9999999865,285.582308432755,1.0000000004096,0.53384463136693
20299.9999999851,284.282241031745,1.00000000051157,0.55651744835929
20399.9999999836,283.001518816591,1.00000000050344,0.562110986044068
20499.9999999822,281.738064191876,1.00000000050783,0.550593110635447
20599.9999999807,280.488031717913,1.00000000043369,0.528306289699902
20699.9999999793,279.242651445495,1.0000000003705,0.505704305836214
20799.9999999778,277.996588054046,1.00000000032544,0.492678031791092
20899.9999999764,276.748679690497,1.00000000031298,0.491739183027204
20999.9999999749,275.498398461853,1.00000000033516,0.498595077690718
21099.9999999734,274.251034071581,1.00000000036033,0.509546900522863
21199.999999972,273.009573970619,1.00000000041944,0.523738042597727
21299.9999999705,271.77869345405,1.00000000045895,0.540624503846233
21399.9999999691,270.562263073033,1.00000000047799,0.54803799786543
21499.9999999676,269.35951853177,1.00000000047447,0.54344730561836
21599.9999999662,268.168550469938,1.00000000043661,0.529510308926424
21699.9999999647,266.986155772422,1.00000000039904,0.514434017496008
21799.9999999633,265.808756634966,1.00000000035379,0.503738485599133
21899.9999999618,264.636321813737,1.00000000034297,0.500765570048722
21999.9999999603,263.467112952954,1.00000000033449,0.501051581554542
22099.9999999589,262.302990850038,1.000000000363,0.5033133309805
22199.9999999574,261.144077672091,1.00000000035605,0.507401843980339
22299.999999956,259.991927932452,1.00000000041486,0.514731252965538
22399.9999999545,258.849114073849,1.00000000042441,0.522237420989215
22499.9999999531,257.71640696713,1.00000000043716,0.530486126752347
22599.9999999516,256.594013761043,1.00000000045228,0.534412524106121
22699.9999999502,255.481904858688,1.00000000043389,0.530288635666284
22799.9999999487,254.378431283433,1.00000000041457,0.523426337242371
22899.9999999473,253.283382398951,1.00000000039687,0.517037379104076
22999.9999999458,252.195938035455,1.00000000037301,0.513811594682166
23099.9999999443,251.116273547692,1.00000000036481,0.511879707591632
23199.9999999429,250.044328512377,1.00000000034224,0.510641280218553
23299.9999999414,248.979562889111,1.00000000034924,0.507046438762762
23399.99999994,247.922613879524,1.00000000034298,0.504966134869155
23499.9999999385,246.873168015988,1.00000000035204,0.503680630534167
23599.9999999371,245.832054212568,1.00000000038842,0.507674957033025
23699.9999999356,244.799952234432,1.00000000043143,0.51276625687402
23799.9999999342,243.77649200088,1.00000000045621,0.521955698273259
23899.9999999327,242.761454185784,1.00000000042945,0.528451959957664
23999.9999999312,241.754879260902,1.00000000041253,0.530349006592942
24099.9999999298,240.756327984049,1.00000000039428,0.5261991639506
24199.9999999283,239.766256774863,1.00000000038058,0.520706910189197
24299.9999999269,238.784389351083,1.00000000039345,0.522794676303813
24399.9999999254,237.811210517395,1.00000000039355,0.527507551353819
24499.999999924,236.846776063507,1.00000000038397,0.523972266509647
24599.9999999225,235.891554217798,1.00000000035718,0.51671986685788
24699.9999999211,234.945767087315,1.00000000033925,0.505743957085891
24799.9999999196,234.009537411027,1.00000000031033,0.494820588555185
24899.9999999181,233.083439129484,1.00000000032664,0.491752541739498
24999.9999999167,232.167210777289,1.00000000037202,0.496610470146335
25099.9999999152,231.2598651718,1.00000000039662,0.507047336114777
25199.9999999138,230.360338290148,1.00000000044866,0.515464954095216
25299.9999999123,229.467459245615,1.00000000044643,0.523357858739033
25399.9999999109,228.580850721762,1.00000000040055,0.528200411161689
25499.9999999094,227.701587942931,1.0000000003845,0.52855532800536
25599.999999908,226.830207758867,1.00000000036764,0.52316564679033
25699.9999999065,225.96686126475,1.0000000003797,0.52253506716359
25799.9999999051,225.110719040677,1.00000000040839,0.533128353848412
25899.9999999036,224.261342555563,1.00000000041401,0.538994616456984
25999.9999999021,223.41917645955,1.00000000042393,0.533399727755012
26099.9999999007,222.585615472116,1.00000000038007,0.520791423087143
26199.9999998992,221.762457658506,1.00000000033239,0.505730897544929
26299.9999998978,220.951468462412,1.00000000029278,0.487545721519868
26399.9999998963,220.154104422149,1.00000000027997,0.477479120387569
26499.9999998949,219.369579303951,1.00000000032553,0.481084013049864
26599.9999998934,218.595489328777,1.0000000003866,0.493004193627927
26699.999999892,217.828902488042,1.00000000043002,0.504687362444215
26799.9999998905,217.067981837587,1.00000000046484,0.513562443148614
26899.999999889,216.310182471948,1.00000000045192,0.51870091257705
26999.9999998876,215.55660331054,1.00000000040383,0.517357340147013
27099.9999998861,214.808832595224,1.00000000038501,0.522768002593328
27199.9999998847,214.067763070409,1.00000000036435,0.524520591299227
27299.9999998832,213.333873837788,1.00000000036908,0.521963904229884
27399.9999998818,212.605505890466,1.00000000042371,0.52900839415809
27499.9999998803,211.880987704853,1.0000000004653,0.541638313592852
27599.9999998789,211.159924699776,1.0000000004598,0.544279314735968
27699.9999998774,210.443350008648,1.00000000044116,0.533853377162629
27799.9999998759,209.734217053466,1.00000000038191,0.517330441811112
27899.9999998745,209.036140676,1.0000000003393,0.502275849877861
27999.999999873,208.351618655986,1.00000000029138,0.487205558887877
28099.9999998716,207.683104807383,1.00000000027205,0.473470932010518
28199.9999998701,207.03027903724,1.00000000030108,0.47219345517656
28299.9999998687,206.39042277218,1.00000000036292,0.480242254349446
28399.9999998672,205.759417166616,1.00000000040354,0.492011913569498
28499.9999998658,205.133782968022,1.00000000042958,0.502838039883546
28599.9999998643,204.511136630153,1.00000000047694,0.511764578671708
28699.9999998629,203.889287465269,1.00000000044954,0.511480434357765
28799.9999998614,203.269449306395,1.00000000042519,0.509252775827061
28899.9999998599,202.652667036413,1.00000000040129,0.514915593735135
