Time,AGPnorm,Energy,Entropy
0,0,1,3.33690260814052e-18
99.9999999999986,0.00762237126869421,1.00000000000433,0.0218667786190199
199.999999999993,0.0203187097133522,1.00000000000137,0.0646795185136551
300,0.0407537131835967,1.00000000000361,0.128323527586536
400.000000000022,0.0610002677880918,1.00000000005744,0.223492010205408
500.000000000045,0.0866587725563778,1.00000000064934,0.355768791486349
600.000000000068,0.328122091644045,1.00000000188297,0.469308837777154
700.000000000091,1.13743587490676,1.00000000269328,0.534871308350344
800.000000000113,2.73859041511345,1.00000000287587,0.569896024900999
900.000000000136,5.09971096626794,1.00000000308658,0.581990220752751
1000.00000000016,7.7981078298042,1.0000000029833,0.585035102234514
1100.0000000001,10.6102612602164,1.00000000272366,0.579369168343066
1200,13.1308788946233,1.00000000257339,0.571479063048611
1299.99999999991,15.256039169075,1.00000000235113,0.562719780647242
1399.99999999982,16.8479783008032,1.00000000218402,0.554106435637955
1499.99999999973,17.9152655132782,1.00000000202377,0.555130020693088
1599.99999999964,18.4819032600464,1.00000000184512,0.547081177657376
1699.99999999955,18.6737782535129,1.00000000162104,0.516476080528108
1799.99999999946,18.5533679432937,1.0000000021056,0.578216911831453
1899.99999999937,18.2327273394901,1.00000000115625,0.459188577159064
1999.99999999928,17.7765266039637,1.00000000246722,0.584025883971325
2099.99999999919,17.2899882496742,1.00000000110586,0.42249254373309
2199.99999999909,16.6863575980187,1.00000000232783,0.541827456954863
2299.999999999,16.1674532608339,1.00000000213329,0.537416590339751
2399.99999999891,15.6101305417535,1.0000000009836,0.380128189160193
2499.99999999882,15.0314609650538,1.00000000232681,0.539054138781594
2599.99999999873,14.5202993310313,1.00000000219516,0.561397453234863
2699.99999999864,14.03937911148,1.00000000109205,0.389043162974298
2799.99999999855,13.5727988478607,1.00000000161584,0.453079623548473
2899.99999999846,13.1139512204443,1.00000000205069,0.530910686359999
2999.99999999837,12.6833224858186,1.00000000234129,0.561273592493551
3099.99999999828,12.2917602398741,1.00000000141973,0.476653273896211
3199.99999999819,11.9656962492688,1.00000000114312,0.381657792843175
3299.99999999809,11.6667877372474,1.00000000209352,0.499077971961013
3399.999999998,11.361263267969,1.00000000182308,0.528390814575074
3499.99999999791,11.069974218181,1.00000000197694,0.525130563555593
3599.99999999782,10.7703443551294,1.00000000263528,0.564866927468158
3699.99999999773,10.4911105722399,1.00000000161906,0.512382739314004
3799.99999999764,10.2898824846772,1.00000000109615,0.394893199267645
3899.99999999755,10.1712993683694,1.00000000162809,0.435571787781247
3999.99999999746,10.0418918390136,1.00000000205523,0.523470663209717
4099.99999999738,9.89742572727094,1.00000000192688,0.546483010184352
4199.99999999775,9.73916586938238,1.00000000183344,0.546227454507544
4299.99999999811,9.58025308503891,1.00000000167331,0.551907794787428
4399.99999999848,9.4135709976238,1.00000000203826,0.536874740382397
4499.99999999884,9.2285755557126,1.00000000250095,0.572751360859933
4599.9999999992,9.04383003409559,1.0000000019665,0.550251966586337
4699.99999999957,8.91791447354667,1.0000000011249,0.435851988187121
4799.99999999993,8.90543577599357,1.00000000119133,0.408351891960234
4900.00000000029,8.94632419234997,1.00000000185164,0.464768531350787
5000.00000000066,8.96710853072133,1.00000000203725,0.523376012255915
5100.00000000102,8.95387803388081,1.00000000190327,0.551710734652253
5200.00000000139,8.92574422943738,1.0000000018676,0.561805468615751
5300.00000000175,8.88136827311441,1.00000000196057,0.572892440814813
5400.00000000211,8.8233072477878,1.00000000192078,0.558401805798503
5500.00000000248,8.75056879180977,1.00000000209333,0.563247018605467
5600.00000000284,8.66398110310296,1.00000000182326,0.57738361004812
5700.00000000321,8.57960080394481,1.00000000172956,0.576127080031801
5800.00000000357,8.48770512470061,1.00000000192991,0.576905317588888
5900.00000000393,8.38268162031324,1.00000000239634,0.584821452963965
6000.0000000043,8.26599124164575,1.00000000251434,0.578714720401907
6100.00000000466,8.14213330053395,1.00000000219024,0.573139545212947
6200.00000000502,8.03891550592192,1.00000000141079,0.5065745331622
6300.00000000539,8.01130655795487,1.00000000111342,0.435673808578927
6400.00000000575,8.09356046090333,1.00000000120477,0.425544766953969
6500.00000000612,8.24103179879934,1.00000000180811,0.465673450084812
6600.00000000648,8.38434169417627,1.00000000217987,0.510324548347409
6700.00000000684,8.4973719736031,1.0000000020654,0.537302072489851
6800.00000000721,8.58939721739097,1.00000000192117,0.5653210363968
6900.00000000757,8.65700893221927,1.00000000206562,0.584125766659665
7000.00000000793,8.69589824436564,1.00000000217539,0.599479669843787
7100.0000000083,8.71039607962164,1.00000000191243,0.607028865755807
7200.00000000866,8.70150449550049,1.00000000204767,0.610208147236971
7300.00000000903,8.67866793712987,1.00000000203749,0.599721861741119
7400.00000000939,8.65120763503841,1.00000000204005,0.593807583536253
7500.00000000975,8.62486678687907,1.00000000194076,0.575323932636641
7600.00000001012,8.59546475112113,1.0000000019404,0.564793288779569
7700.00000001048,8.55602669701585,1.00000000197396,0.583393275946804
7800.00000001084,8.51666303653329,1.00000000176132,0.58690507627434
7900.00000001121,8.4824673277116,1.00000000197103,0.598282653119807
8000.00000001157,8.44492118178644,1.00000000190827,0.60790200072992
8100.00000001194,8.40347073931524,1.00000000221592,0.596388339564054
8200.0000000123,8.35496546168602,1.00000000207069,0.59213927378
8300.00000001266,8.29995987197143,1.00000000206091,0.603427052736103
8400.00000001303,8.23517833578952,1.0000000022392,0.625537979233661
8500.00000001339,8.16546052354775,1.00000000197129,0.630682301843101
8600.00000001376,8.09702242568098,1.00000000180972,0.628696450859245
8700.00000001412,8.02646321658927,1.00000000210929,0.629036000385168
8800.00000001448,7.95382445915071,1.00000000238082,0.624356336697167
8900.00000001485,7.8808704895088,1.00000000255448,0.628158857074887
9000.00000001521,7.8093048663271,1.00000000261366,0.613800803285069
9100.00000001557,7.73512621134405,1.00000000242526,0.593013451046431
9200.00000001594,7.65478515089499,1.00000000212167,0.574159482243696
9300.0000000163,7.58229670551565,1.00000000152423,0.521712114210177
9400.00000001667,7.55122312664373,1.00000000133038,0.470614403490397
9500.00000001703,7.6011110556854,1.00000000134663,0.442394538193976
9600.00000001739,7.74481209414578,1.00000000128446,0.438013304287831
9700.00000001776,7.95453365480263,1.00000000204203,0.466912980050607
9800.00000001812,8.18848151334267,1.00000000222184,0.488773945125404
9900.00000001848,8.40885962710345,1.0000000021746,0.514370045638841
10000.0000000188,8.61633802561235,1.00000000217199,0.5405682749959
10100.0000000192,8.79944037581025,1.00000000211513,0.554850981589448
10200.0000000196,8.96714145461327,1.00000000210703,0.566770358413576
10300.0000000199,9.11216973294609,1.00000000224338,0.591541842125564
10400.0000000203,9.23632163516351,1.00000000231341,0.620639300533568
10500.0000000207,9.33633003582832,1.00000000245032,0.619475020122216
10600.000000021,9.41757302644201,1.00000000211919,0.624781628568417
10700.0000000214,9.47847595815854,1.00000000231853,0.642839840365838
10800.0000000218,9.51766088759828,1.00000000232991,0.638007158457131
10900.0000000221,9.53838969369276,1.00000000218597,0.638082343465975
11000.0000000225,9.55631496103778,1.00000000205147,0.62977522569714
11100.0000000229,9.5654669736315,1.00000000231583,0.633790488841677
11200.0000000232,9.56667006212635,1.00000000213226,0.629057508495459
11300.0000000236,9.5611288814017,1.0000000021922,0.627647671342674
11400.0000000239,9.54472812152692,1.00000000224696,0.627236649703261
11500.0000000243,9.52594373966606,1.00000000207116,0.622509804372209
11600.0000000247,9.50050204607897,1.000000002375,0.638468207725857
11700.000000025,9.46725807600097,1.00000000233745,0.629792110839773
11800.0000000254,9.43130172912904,1.00000000224245,0.643688457434862
11900.0000000258,9.39351739110203,1.00000000219006,0.652025120514986
12000.0000000261,9.35608500832437,1.0000000023202,0.643409340243115
12100.0000000265,9.31870148764665,1.00000000225296,0.622763594738171
12200.0000000269,9.28696723789157,1.00000000216991,0.614903290646691
12300.0000000272,9.26154543501697,1.00000000232144,0.611273139545259
12400.0000000276,9.24003289053007,1.00000000233584,0.621665755139474
12500.0000000279,9.22488290372547,1.00000000204173,0.62144236276575
12600.0000000283,9.21703922348446,1.00000000228352,0.624562566653806
12700.0000000287,9.20528476074405,1.00000000234239,0.637336563323055
12800.000000029,9.18883103474571,1.00000000216534,0.624240244651491
12900.0000000294,9.17479347158466,1.00000000225826,0.61985903021654
13000.0000000298,9.15843879506353,1.00000000232979,0.609309792554233
13100.0000000301,9.14462833226374,1.00000000221814,0.615477419915187
13200.0000000305,9.135638168635,1.00000000221698,0.604740515996984
13300.0000000309,9.12988358683064,1.00000000223862,0.60220238006817
13400.0000000312,9.11953510407223,1.00000000240129,0.622598539728229
13500.0000000316,9.10738753389496,1.00000000231095,0.615413558940625
13600.0000000319,9.09811472444901,1.00000000234826,0.624010943991661
13700.0000000323,9.08815117798685,1.00000000226606,0.640445221897942
13800.0000000327,9.08214532305363,1.00000000211372,0.636782836597
13900.000000033,9.08061146654972,1.0000000025612,0.624678392678391
14000.0000000334,9.07470104285861,1.00000000240576,0.627379394818578
14100.0000000338,9.06556346516581,1.00000000242457,0.637033007362229
14200.0000000341,9.05458387999834,1.00000000235918,0.642774581981985
14300.0000000345,9.0355232953862,1.00000000242409,0.660587495118677
14400.0000000349,9.01512101037312,1.00000000218843,0.655688155316638
14500.0000000352,8.99874126621443,1.00000000231329,0.663806303845646
14600.0000000356,8.97864321226093,1.00000000245368,0.654357318001624
14700.0000000359,8.95562530099745,1.00000000237055,0.647418142433026
14800.0000000363,8.93094746885944,1.0000000023677,0.646086830990263
14900.0000000367,8.90961642161978,1.00000000219926,0.647551417060568
15000.000000037,8.89464223404434,1.00000000209366,0.650774197010839
15100.0000000374,8.87771435336549,1.00000000247198,0.654900059936748
15200.0000000378,8.85623220642846,1.00000000241366,0.652162282557441
15300.0000000381,8.83049911924782,1.00000000232922,0.650957722994549
15400.0000000385,8.80380673189728,1.00000000269545,0.651009970293181
15500.0000000389,8.77199577860264,1.00000000231839,0.645529090231353
15600.0000000392,8.73998484498132,1.00000000239355,0.65122681252674
15700.0000000396,8.71148143427987,1.00000000198705,0.646391025230894
15800.0000000399,8.68405630301917,1.00000000255412,0.656186116173893
15900.0000000403,8.65483879556711,1.00000000224855,0.660140417467258
16000.0000000407,8.62680183390351,1.00000000246183,0.645743621231683
16100.000000041,8.59536874102719,1.00000000249063,0.660585642765733
16200.0000000414,8.55857870236973,1.00000000229125,0.636977950080643
16300.0000000418,8.52130521354715,1.00000000230444,0.658976600386109
16400.0000000418,8.48107895027258,1.00000000228211,0.666377265109138
16500.0000000404,8.44061341557066,1.00000000224728,0.664344864133283
16600.0000000389,8.39959033883612,1.00000000261524,0.666432829839684
16700.0000000375,8.35407321735361,1.00000000242416,0.650082071947172
16800.000000036,8.30791437840175,1.00000000224425,0.665183952787551
16900.0000000346,8.26152028181968,1.00000000254344,0.665882807461032
17000.0000000331,8.21540300594014,1.00000000241196,0.678431105995455
17100.0000000317,8.16861612408971,1.00000000221379,0.668283535541162
17200.0000000302,8.12222961530489,1.00000000212233,0.659123606965234
17300.0000000287,8.07737357204796,1.00000000224129,0.667461011561115
17400.0000000273,8.03458593976627,1.00000000222838,0.667218759615141
17500.0000000258,7.99618215699337,1.00000000240386,0.667474604977121
17600.0000000244,7.96323439504646,1.00000000257424,0.672117474005449
17700.0000000229,7.93734402167401,1.00000000275703,0.670185304633454
17800.0000000215,7.92298517647655,1.00000000274503,0.661442796060234
17900.00000002,7.91463049901815,1.00000000308633,0.658434669420398
18000.0000000186,7.92173154971184,1.00000000315767,0.661903542729427
18100.0000000171,7.9276010672065,1.0000000028509,0.660894541270261
18200.0000000156,7.94232963434201,1.00000000300544,0.657668689961944
18300.0000000142,7.94233095030117,1.00000000269599,0.643451710620667
18400.0000000127,7.93338627523195,1.00000000244881,0.625749300602118
18500.0000000113,7.90639624054907,1.00000000187879,0.603134466178692
18600.0000000098,7.86962371353234,1.00000000199912,0.572378909057955
18700.0000000084,7.83782532031594,1.00000000249444,0.53993008049264
18800.0000000069,7.82768375464132,1.00000000165248,0.517822159468791
18900.0000000055,7.8639122786823,1.00000000145766,0.495053380489373
19000.000000004,7.96316526900731,1.00000000176377,0.476981266280284
19100.0000000026,8.14503231654659,1.00000000177152,0.47653430193287
19200.0000000011,8.3952322092354,1.00000000182762,0.47466954691821
19299.9999999996,8.73140651793559,1.00000000199924,0.486210373310952
19399.9999999982,9.09327470418325,1.00000000248453,0.487599819229696
19499.9999999967,9.50971179043704,1.00000000252319,0.495478512439733
19599.9999999953,9.90887369267039,1.00000000251036,0.507828339249014
19699.9999999938,10.3319906729272,1.00000000261949,0.513223128593389
19799.9999999924,10.7328962122163,1.00000000256903,0.528255864660805
19899.9999999909,11.1302951260621,1.00000000268894,0.532862345456154
19999.9999999895,11.5177613077659,1.0000000024295,0.548038477621488
20099.999999988,11.8857056224743,1.00000000278532,0.551932796149666
20199.9999999865,12.2577779838975,1.00000000250854,0.559320978396071
20299.9999999851,12.6050221963913,1.00000000265427,0.576184190297368
20399.9999999836,12.9549383880677,1.00000000266849,0.585077924812682
20499.9999999822,13.2892124720769,1.00000000256878,0.599466671424278
20599.9999999807,13.6073226654761,1.00000000270083,0.613473042812284
20699.9999999793,13.9147559965712,1.00000000261623,0.626414482417593
20799.9999999778,14.2009004862649,1.0000000027587,0.638407820760866
20899.9999999764,14.4715518078272,1.00000000293392,0.646608394508241
20999.9999999749,14.7102918793824,1.00000000277247,0.654025062829352
21099.9999999734,14.9399972577228,1.00000000278814,0.664331901088552
21199.999999972,15.1387127742001,1.00000000273023,0.658986534483602
21299.9999999705,15.3213226638132,1.00000000298105,0.660566164383615
21399.9999999691,15.4859737290953,1.0000000028399,0.663034162510513
21499.9999999676,15.6361510364324,1.00000000276142,0.665566769080234
21599.9999999662,15.774026851241,1.00000000291146,0.675920781794732
21699.9999999647,15.893462140937,1.00000000270935,0.667214859100632
21799.9999999633,16.0047018195539,1.00000000281916,0.670262774705009
21899.9999999618,16.0983693477284,1.00000000256493,0.669403050338172
21999.9999999603,16.1874760531502,1.00000000230901,0.665077197804762
22099.9999999589,16.2718364782943,1.0000000028038,0.675439505767552
22199.9999999574,16.343870787594,1.00000000268182,0.672812699065426
22299.999999956,16.4017523788625,1.00000000296936,0.684427320218932
22399.9999999545,16.4521198420664,1.00000000295002,0.683732150481664
22499.9999999531,16.5067627071098,1.00000000283984,0.668645833442263
22599.9999999516,16.5588737999473,1.00000000273632,0.689724829075236
22699.9999999502,16.6059301143645,1.00000000259867,0.670596224317929
22799.9999999487,16.6442017033615,1.00000000310722,0.679635591518435
22899.9999999473,16.6762589933799,1.00000000306025,0.670783230953277
22999.9999999458,16.7165871272718,1.0000000026754,0.66668695787901
23099.9999999443,16.7570246501233,1.00000000288615,0.679154819666824
23199.9999999429,16.7996032849837,1.00000000269515,0.682564700558155
23299.9999999414,16.8329980336388,1.00000000310951,0.674233363284061
23399.99999994,16.8564958556346,1.00000000314858,0.673432603420085
23499.9999999385,16.8738022752642,1.00000000269139,0.666100573257476
23599.9999999371,16.8937063258774,1.00000000253429,0.657095890596182
23699.9999999356,16.9227355304129,1.00000000266768,0.650370503210198
23799.9999999342,16.9547777549589,1.00000000309818,0.649127794025395
23899.9999999327,16.9839557837232,1.00000000308798,0.669260768626169
23999.9999999312,17.0095703153675,1.00000000306065,0.670747126763319
24099.9999999298,17.0394914772458,1.00000000265367,0.679317800494956
24199.9999999283,17.0717060081325,1.00000000279835,0.664856183393481
24299.9999999269,17.1043738227079,1.00000000297865,0.662404718983529
24399.9999999254,17.1263234851052,1.00000000321569,0.677985863945754
24499.999999924,17.1461105133082,1.00000000286309,0.670141846897769
24599.9999999225,17.1709584982905,1.00000000315787,0.66173604052289
24699.9999999211,17.2045005556636,1.00000000275803,0.655821356929005
24799.9999999196,17.2395328259489,1.00000000322631,0.670037634347821
24899.9999999181,17.2669257098062,1.00000000318076,0.661734123436477
24999.9999999167,17.2973721547111,1.00000000267733,0.653178887719671
25099.9999999152,17.3356620668898,1.00000000326008,0.653646964140863
25199.9999999138,17.3759969528723,1.00000000311466,0.678339391254826
25299.9999999123,17.411874716475,1.00000000312904,0.685363787134174
25399.9999999109,17.4438028165843,1.00000000284376,0.68162789428765
25499.9999999094,17.4814876581969,1.00000000260837,0.674680642879701
25599.999999908,17.5188831303223,1.00000000299631,0.686988047122681
25699.9999999065,17.5469516721239,1.00000000312164,0.674473925783957
25799.9999999051,17.5725344056449,1.00000000286495,0.665317300012808
25899.9999999036,17.6004918256916,1.00000000262716,0.670951489176628
25999.9999999021,17.6337619885787,1.0000000027024,0.668611527224635
26099.9999999007,17.6631139663252,1.00000000317771,0.67323287164079
26199.9999998992,17.6856228378421,1.00000000301437,0.668926638171443
26299.9999998978,17.7074371947857,1.0000000031945,0.657594770858721
26399.9999998963,17.7323643131068,1.00000000306708,0.664145770086606
26499.9999998949,17.7667942161781,1.00000000298979,0.661249958010944
26599.9999998934,17.8074880951442,1.00000000276452,0.678396808979159
26699.999999892,17.8484803394463,1.00000000291086,0.681680135117338
26799.9999998905,17.886968558499,1.00000000320518,0.676112709719708
26899.999999889,17.9196082998677,1.00000000313638,0.680801924949476
26999.9999998876,17.9522650087632,1.00000000327541,0.669130872951744
27099.9999998861,17.9836615444812,1.00000000309969,0.66224422760154
27199.9999998847,18.0164790438691,1.00000000356069,0.668977014482891
27299.9999998832,18.051486209338,1.00000000295631,0.653802162039476
27399.9999998818,18.090232698776,1.00000000287156,0.657183827793873
27499.9999998803,18.1365281272422,1.0000000028423,0.666940545521334
27599.9999998789,18.1925098572858,1.00000000296699,0.668076233553081
27699.9999998774,18.2581142271187,1.00000000279726,0.673421500998409
27799.9999998759,18.3261580824196,1.00000000290092,0.677599425990178
27899.9999998745,18.3943711983393,1.0000000031928,0.681193981602059
27999.999999873,18.467152279453,1.00000000260948,0.661988367893992
28099.9999998716,18.5462842273439,1.00000000322604,0.677502702329477
28199.9999998701,18.6218482293698,1.00000000316173,0.677986386282072
28299.9999998687,18.6973698060981,1.00000000289739,0.675294816068697
28399.9999998672,18.7666198464367,1.0000000033635,0.690034841799313
28499.9999998658,18.8278212927241,1.00000000298961,0.681270259454648
28599.9999998643,18.893078846865,1.00000000346233,0.683188077202236
28699.9999998629,18.9539604664185,1.00000000313524,0.679145991494816
28799.9999998614,19.0159085099801,1.00000000252561,0.674368255248268
28899.9999998599,19.0892251056505,1.00000000293125,0.658599309722337
28999.9999998585,19.1757923266553,1.00000000291002,0.658642639678134
