Time,AGPnorm,Energy,Entropy
0,0,1,-1.34543913160226e-17
99.9999999999986,4.56320325871835e-05,0.999999999999275,0.0017618944143939
199.999999999993,0.00410039815002158,0.999999999999799,0.0028493606643583
300,0.00987675741668941,0.999999999999839,0.00496229457786221
400.000000000022,0.0138078277663276,0.999999999999322,0.00841564461641753
500.000000000045,0.0170539416811693,0.999999999999939,0.0112861292157276
600.000000000068,0.0239735130492349,0.999999999999459,0.0155703600860373
700.000000000091,0.0292237602167642,0.999999999999504,0.019972255275222
800.000000000113,0.0373409940835651,1.00000000000012,0.0245174397328697
900.000000000136,0.0471389415393426,0.999999999999317,0.0300570321643983
1000.00000000016,0.0546032227091789,0.999999999999661,0.035376828698184
1100.0000000001,0.0640958092215774,0.999999999999723,0.0413694184429223
1200,0.0747928982767002,0.999999999999352,0.0478430202807845
1299.99999999991,0.0861660656470366,1.00000000000025,0.0543861643651299
1399.99999999982,0.0982903694339257,0.999999999999399,0.061731816381341
1499.99999999973,0.108864286997459,0.999999999999278,0.0691712890056347
1599.99999999964,0.120705053288335,1.00000000000003,0.0770733412991296
1699.99999999955,0.134667153615581,0.999999999999374,0.0857502021934353
1799.99999999946,0.147969611593553,1.0000000000001,0.0946924211915213
1899.99999999937,0.160635947336309,0.99999999999954,0.104399964262226
1999.99999999928,0.173112080911255,0.999999999998988,0.114673200239242
2099.99999999919,0.186429360421127,1.00000000000038,0.125679739143282
2199.99999999909,0.201343889628481,0.999999999999669,0.13808210619716
2299.999999999,0.214733439885604,1.00000000000053,0.151447869180968
2399.99999999891,0.227126242959492,1.00000000000284,0.166417284636606
2499.99999999882,0.239608237639047,1.00000000001022,0.183380119557706
2599.99999999873,0.254232082281095,1.00000000002949,0.202087041722727
2699.99999999864,0.268441952744017,1.00000000005932,0.222654082555531
2799.99999999855,0.279554379963281,1.00000000011423,0.243538450607111
2899.99999999846,0.301790477926437,1.00000000017342,0.264505505704544
2999.99999999837,0.319997198158727,1.00000000024712,0.285448672982173
3099.99999999828,0.360576954667679,1.00000000033518,0.305789278663751
3199.99999999819,0.42673410899636,1.00000000042773,0.32567211012084
3299.99999999809,0.510084918429056,1.00000000052237,0.344813572391376
3399.999999998,0.666856615898708,1.00000000061851,0.362919349850188
3499.99999999791,0.874940609158201,1.00000000069696,0.380782721268468
3599.99999999782,1.17035909983137,1.00000000081531,0.397579232590051
3699.99999999773,1.59012229079162,1.00000000085084,0.413365099370851
3799.99999999764,2.11170248842373,1.00000000092439,0.428590348266188
3899.99999999755,2.79732198767024,1.00000000094302,0.442807998632503
3999.99999999746,3.64717500068318,1.0000000010752,0.456004275999774
4099.99999999738,4.66500134315197,1.0000000011024,0.468748685502218
4199.99999999775,5.89816763432401,1.00000000115391,0.480001699168508
4299.99999999811,7.32474306941897,1.00000000118891,0.490962239853778
4399.99999999848,8.96367952895618,1.00000000124018,0.501111682875148
4499.99999999884,10.8373615818916,1.00000000126947,0.510203138538215
4599.9999999992,12.9210714418104,1.00000000129402,0.519064422200647
4699.99999999957,15.2320747662332,1.00000000135815,0.526794179010253
4799.99999999993,17.7690413609793,1.00000000134045,0.534149041614354
4900.00000000029,20.5044695072797,1.00000000129387,0.541381497356577
5000.00000000066,23.4587023466596,1.00000000142041,0.547047137289756
5100.00000000102,26.6099378861639,1.0000000013447,0.552925232706967
5200.00000000139,29.931858458345,1.00000000139817,0.558334483128226
5300.00000000175,33.4417659464866,1.00000000132976,0.562870414592354
5400.00000000211,37.0958925793539,1.00000000135212,0.567617527869624
5500.00000000248,40.8912301313922,1.00000000135655,0.571385028575424
5600.00000000284,44.8273638371604,1.00000000136754,0.574802269331183
5700.00000000321,48.8502685290255,1.00000000132532,0.578510730807482
5800.00000000357,52.9800686775538,1.00000000134598,0.580949428498759
5900.00000000393,57.1839925430194,1.00000000134807,0.583709894582508
6000.0000000043,61.4340229908222,1.0000000013276,0.586150293844495
6100.00000000466,65.7481403047682,1.00000000129463,0.587819790775757
6200.00000000502,70.0686440207754,1.00000000130759,0.590158924446156
6300.00000000539,74.4059115889417,1.00000000128252,0.591631999300844
6400.00000000575,78.7480363383635,1.00000000127868,0.592641887731703
6500.00000000612,83.0535962816068,1.00000000125269,0.594211888464436
6600.00000000648,87.3474511585214,1.00000000127627,0.594793376923319
6700.00000000684,91.5837692292787,1.00000000125436,0.596033821508183
6800.00000000721,95.760742941095,1.00000000122676,0.596699067361784
6900.00000000757,99.884764373725,1.00000000120097,0.596684240040172
7000.00000000793,103.91229004202,1.00000000119111,0.59765320194577
7100.0000000083,107.866578072769,1.00000000118836,0.597793330478282
7200.00000000866,111.718737639803,1.00000000110311,0.598068674330864
7300.00000000903,115.460421043315,1.00000000106871,0.598462345889704
7400.00000000939,119.106225233313,1.00000000109523,0.597759268577323
7500.00000000975,122.620353199072,1.00000000110372,0.598228020113686
7600.00000001012,126.019299972583,1.00000000108858,0.597867232510271
7700.00000001048,129.292211377905,1.00000000109102,0.597126570958995
7800.00000001084,132.423900043036,1.00000000103288,0.598221827294116
7900.00000001121,135.435902550964,1.00000000103211,0.596280427974481
8000.00000001157,138.299065923386,1.00000000104017,0.597542692812769
8100.00000001194,141.028577812443,1.00000000098454,0.595860033417739
8200.0000000123,143.620268270718,1.00000000097487,0.596712829312125
8300.00000001266,146.062748637486,1.00000000096961,0.595151656360926
8400.00000001303,148.37472574115,1.00000000095413,0.595743474862229
8500.00000001339,150.538032281994,1.00000000093157,0.593989888805203
8600.00000001376,152.560769432873,1.00000000094828,0.59521698482863
8700.00000001412,154.449093060789,1.00000000085583,0.59284957101962
8800.00000001448,156.188774539333,1.00000000088883,0.594387782640386
8900.00000001485,157.802013204839,1.0000000008393,0.592020076154413
9000.00000001521,159.272732540839,1.00000000086186,0.592820213337273
9100.00000001557,160.611173970867,1.00000000085603,0.591807014627295
9200.00000001594,161.822691133705,1.00000000084011,0.591746307931699
9300.0000000163,162.900503988889,1.00000000082845,0.591210509490192
9400.00000001667,163.858396792126,1.00000000079772,0.590841169259718
9500.00000001703,164.692801731047,1.00000000079933,0.591312194652872
9600.00000001739,165.406049798,1.0000000007695,0.589032732911732
9700.00000001776,166.009038949101,1.00000000078751,0.591099872475262
9800.00000001812,166.497242180722,1.00000000075208,0.58949000428975
9900.00000001848,166.881559455592,1.00000000073136,0.587582075798454
10000.0000000188,167.162288405769,1.00000000075594,0.590432836963435
10100.0000000192,167.346338184117,1.00000000074901,0.588693132220025
10200.0000000196,167.439202882554,1.00000000071329,0.58510286161737
10300.0000000199,167.440018765415,1.00000000074473,0.58918170518838
10400.0000000203,167.365635338988,1.00000000074111,0.587203171821477
10500.0000000207,167.210166665851,1.00000000071744,0.581623614948515
10600.000000021,166.978916583447,1.00000000074572,0.586377318031579
10700.0000000214,166.689370576881,1.00000000076586,0.586324873850683
10800.0000000218,166.333446939605,1.00000000070369,0.577752310873459
10900.0000000221,165.915630764195,1.00000000072129,0.581146299194202
11000.0000000225,165.448093462201,1.00000000081108,0.585401001982096
11100.0000000229,164.934770267543,1.00000000074145,0.579014224319908
11200.0000000232,164.368381228549,1.00000000070471,0.569554975171581
11300.0000000236,163.75557648817,1.00000000081063,0.583847141791106
11400.0000000239,163.117116830925,1.00000000079316,0.582351290841541
11500.0000000243,162.440535930696,1.00000000066001,0.564089785340643
11600.0000000247,161.719892915946,1.00000000073845,0.572300488128593
11700.000000025,160.981389656677,1.000000000842,0.583033785905304
11800.0000000254,160.224493824111,1.00000000073537,0.573487731325952
11900.0000000258,159.437330714763,1.00000000065685,0.555639130996272
12000.0000000261,158.619652365044,1.00000000080612,0.575108156261792
12100.0000000265,157.793785302223,1.0000000008648,0.578816964628228
12200.0000000269,156.960617341725,1.00000000076086,0.567028274262905
12300.0000000272,156.101717528717,1.00000000067193,0.551752461381405
12400.0000000276,155.224506682379,1.00000000076602,0.569814776474133
12500.0000000279,154.345944281715,1.00000000087735,0.576746727824021
12600.0000000283,153.465138057798,1.00000000079236,0.562230992291542
12700.0000000287,152.572969579079,1.00000000069181,0.55271383730706
12800.000000029,151.663885090429,1.00000000077282,0.555071051854051
12900.0000000294,150.754328693146,1.00000000087859,0.575951578255168
13000.0000000298,149.850533197443,1.00000000085443,0.560752467492744
13100.0000000301,148.942731730402,1.00000000071621,0.552014982409668
13200.0000000305,148.028611921434,1.00000000075347,0.550395623218868
13300.0000000309,147.108649928657,1.00000000079587,0.55649201239235
13400.0000000312,146.194217631739,1.0000000009102,0.572212554097968
13500.0000000316,145.287312861735,1.00000000079224,0.547693824925899
13600.0000000319,144.378518483317,1.0000000007578,0.547187182519757
13700.0000000323,143.470004182396,1.00000000079745,0.553219953569124
13800.0000000327,142.560648745229,1.00000000076466,0.550710648125507
13900.000000033,141.657861776808,1.0000000009019,0.566576108586733
14000.0000000334,140.763929276647,1.00000000081449,0.545162194959294
14100.0000000338,139.871901728217,1.00000000071642,0.538081822322516
14200.0000000341,138.983773913622,1.00000000080763,0.555552013781284
14300.0000000345,138.098427804617,1.00000000077227,0.548896832803807
14400.0000000349,137.218671453898,1.00000000081454,0.552321211065342
14500.0000000352,136.347239708048,1.00000000089559,0.551439431569796
14600.0000000356,135.481969794831,1.00000000076299,0.533099380192097
14700.0000000359,134.622192463756,1.00000000078463,0.540158550582337
14800.0000000363,133.768088744885,1.00000000084638,0.556913548796651
14900.0000000367,132.920547725562,1.00000000079908,0.548515059962479
15000.000000037,132.079753336387,1.00000000079939,0.540707977758728
15100.0000000374,131.245137555687,1.00000000084711,0.544544507269045
15200.0000000378,130.418591489875,1.00000000076455,0.532952373642324
15300.0000000381,129.598783856642,1.00000000077863,0.537404017038461
15400.0000000385,128.786703365028,1.00000000081472,0.552742291085116
15500.0000000389,127.982620057077,1.00000000083421,0.552271503754687
15600.0000000392,127.184800088623,1.00000000080015,0.538472373489006
15700.0000000396,126.394280090432,1.00000000074778,0.534936142266305
15800.0000000399,125.611121665108,1.00000000079455,0.537656727622115
15900.0000000403,124.835494405095,1.00000000078839,0.53855947669463
16000.0000000407,124.068905116768,1.00000000078226,0.540084076584932
16100.000000041,123.310154371832,1.0000000007759,0.551874557371979
16200.0000000414,122.559656147618,1.00000000080049,0.550433448605584
16300.0000000418,121.816526038873,1.00000000076616,0.536560615240759
16400.0000000418,121.080802453815,1.00000000073752,0.531503146499349
16500.0000000404,120.353226488574,1.0000000007805,0.539691221849895
16600.0000000389,119.633518294717,1.00000000083464,0.545780057311072
16700.0000000375,118.922476468755,1.00000000077809,0.538530526442228
16800.000000036,118.220064742842,1.00000000084429,0.54701927776484
16900.0000000346,117.526065108344,1.00000000079429,0.552715732163225
17000.0000000331,116.840657678215,1.00000000073474,0.540756486734732
17100.0000000317,116.163194823937,1.00000000075297,0.531812176352919
17200.0000000302,115.494023813984,1.00000000079906,0.537418494737167
17300.0000000287,114.83329412721,1.00000000076575,0.539750304119717
17400.0000000273,114.180619050088,1.00000000079565,0.547979934840134
17500.0000000258,113.536197205001,1.00000000079764,0.544592792385647
17600.0000000244,112.899716025094,1.00000000079219,0.54516556918305
17700.0000000229,112.271888909489,1.0000000007936,0.551145865928068
17800.0000000215,111.653306807886,1.00000000070651,0.540525561056854
17900.00000002,111.043955207902,1.00000000070695,0.531104347572303
18000.0000000186,110.443054373431,1.0000000007859,0.535868629925588
18100.0000000171,109.850000217935,1.00000000077179,0.535392095508979
18200.0000000156,109.265558736836,1.00000000077604,0.540878404396408
18300.0000000142,108.688530683608,1.0000000008352,0.552172782576549
18400.0000000127,108.118042986745,1.00000000079024,0.552903103561326
18500.0000000113,107.554724534733,1.00000000082734,0.546158438229438
18600.0000000098,106.999078139317,1.00000000080915,0.547255866121541
18700.0000000084,106.453622779197,1.00000000068273,0.538165851947979
18800.0000000069,105.918429985339,1.0000000007277,0.532289812988759
18900.0000000055,105.392309520983,1.00000000075119,0.529243171630706
19000.000000004,104.873476772107,1.00000000080078,0.532754371302238
19100.0000000026,104.362561138342,1.00000000078422,0.533867593907935
19200.0000000011,103.858496433876,1.00000000079227,0.542232024775953
19299.9999999996,103.359762375334,1.00000000085554,0.553752810663702
19399.9999999982,102.865874454305,1.00000000084241,0.555657988989693
19499.9999999967,102.377457506053,1.00000000082961,0.547288148973949
19599.9999999953,101.895808925434,1.00000000081446,0.542791983899244
19699.9999999938,101.424358224818,1.00000000067701,0.533446061431493
19799.9999999924,100.963593955681,1.00000000072302,0.532491271671775
19899.9999999909,100.512731846576,1.0000000007084,0.524012738703064
19999.9999999895,100.069732396205,1.00000000078044,0.525910787277945
20099.999999988,99.633281679878,1.00000000080366,0.530551273884635
20199.9999999865,99.2026899562021,1.0000000007684,0.53107450961244
20299.9999999851,98.7773717805965,1.00000000081511,0.536394716660083
20399.9999999836,98.3545960122454,1.00000000086625,0.551421608910985
20499.9999999822,97.9339103506839,1.00000000084252,0.558997554926292
20599.9999999807,97.517183295557,1.00000000085426,0.548110992688839
20699.9999999793,97.1065966931792,1.00000000080946,0.537793891846476
20799.9999999778,96.7043877544007,1.00000000077684,0.537323633307679
20899.9999999764,96.3126995524012,1.00000000069957,0.530862370372725
20999.9999999749,95.9314988074481,1.00000000070999,0.531912955588569
21099.9999999734,95.5590168283644,1.00000000075497,0.524683693625521
21199.999999972,95.1938095976828,1.00000000079009,0.523914662826272
21299.9999999705,94.8334987444845,1.00000000083471,0.526501423205378
21399.9999999691,94.4777133559419,1.00000000082305,0.530976139349658
21499.9999999676,94.1252373314556,1.00000000082608,0.536788400327617
21599.9999999662,93.7741902467489,1.00000000087141,0.541566408554224
21699.9999999647,93.4228685078763,1.00000000088934,0.55399135656767
21799.9999999633,93.0722108900051,1.00000000083982,0.554215673370147
21899.9999999618,92.7261743773635,1.00000000078379,0.543454436050091
21999.9999999603,92.3867760080442,1.00000000079915,0.538265213548208
22099.9999999589,92.0556859211142,1.00000000073984,0.538764193990626
22199.9999999574,91.7342514990723,1.00000000073496,0.539235704677424
22299.999999956,91.4220367846853,1.00000000075162,0.532896495430196
22399.9999999545,91.1186906627648,1.0000000007702,0.533465181134229
22499.9999999531,90.8225349427351,1.00000000079162,0.528425151044771
22599.9999999516,90.5325047272901,1.00000000077543,0.528152124701713
22699.9999999502,90.2464182129349,1.00000000081525,0.536801693706939
22799.9999999487,89.9622346503794,1.00000000080537,0.538953523923992
22899.9999999473,89.6802196937055,1.00000000080292,0.542587367348734
22999.9999999458,89.3975567892507,1.0000000008792,0.544700223335209
23099.9999999443,89.1137035642822,1.00000000088295,0.547242628278866
23199.9999999429,88.8305507439815,1.00000000080719,0.553887382446873
23299.9999999414,88.550470712049,1.00000000079732,0.552504274235463
23399.99999994,88.275928691799,1.00000000078768,0.545355082701381
23499.9999999385,88.0081799271782,1.00000000079977,0.545476010988981
23599.9999999371,87.7470799439449,1.00000000075589,0.548801879801766
23699.9999999356,87.4944877267818,1.00000000072858,0.545797414432735
23799.9999999342,87.251588861323,1.00000000069326,0.537155304449987
23899.9999999327,87.0178292281351,1.00000000076035,0.53641684300082
23999.9999999312,86.7908114979499,1.00000000079199,0.540618695266789
24099.9999999298,86.5685560061875,1.00000000079563,0.537611294147898
24199.9999999283,86.350654017966,1.00000000076946,0.541872083704222
24299.9999999269,86.1346906396761,1.00000000080737,0.544791994040798
24399.9999999254,85.919416768537,1.00000000081915,0.549295524574096
24499.999999924,85.7044628320451,1.00000000085193,0.547565202637458
24599.9999999225,85.4883429424848,1.00000000081812,0.547416041412937
24699.9999999211,85.2713050599705,1.00000000086242,0.546134182998562
24799.9999999196,85.0547968812143,1.00000000083186,0.551855292693698
24899.9999999181,84.8409735881634,1.00000000079396,0.557195912176232
24999.9999999167,84.6294055209011,1.00000000081512,0.561609706320717
25099.9999999152,84.4202408273188,1.00000000079745,0.558269314079185
25199.9999999138,84.2161189179929,1.00000000082122,0.551869797793689
25299.9999999123,84.0182246738087,1.00000000079613,0.552253704001971
25399.9999999109,83.827962830887,1.00000000073996,0.547205711686451
25499.9999999094,83.648063018971,1.0000000006976,0.536719461200133
25599.999999908,83.4774392828325,1.0000000007695,0.539745815285842
25699.9999999065,83.3133832625175,1.00000000080821,0.544653300209942
25799.9999999051,83.1525177512112,1.00000000079319,0.547554003519392
25899.9999999036,82.9944287913667,1.0000000008194,0.546633657583854
25999.9999999021,82.8377366817859,1.00000000083605,0.55264435198768
26099.9999999007,82.6808316009935,1.0000000008005,0.553285229645167
26199.9999998992,82.5231972854869,1.00000000081801,0.556900949755166
26299.9999998978,82.3649853738447,1.00000000082219,0.554282021623189
26399.9999998963,82.2079852581597,1.00000000077907,0.546618234577392
26499.9999998949,82.051349400188,1.00000000082082,0.548290523106939
26599.9999998934,81.8944136021914,1.00000000078523,0.549985880124492
26699.999999892,81.7377674016361,1.00000000086195,0.560404323362307
26799.9999998905,81.5798465113703,1.00000000086687,0.572371842719278
26899.999999889,81.4212546604038,1.00000000085547,0.572257195676242
26999.9999998876,81.263174970518,1.00000000084179,0.568664477857623
27099.9999998861,81.1073663296184,1.00000000079903,0.556860168473339
27199.9999998847,80.9580445972338,1.00000000074453,0.547371730994566
27299.9999998832,80.8158169777489,1.00000000080416,0.545958820747342
27399.9999998818,80.6820723711416,1.00000000071902,0.540843597494344
27499.9999998803,80.5580204303849,1.00000000074722,0.538766916842683
27599.9999998789,80.4405263739948,1.00000000079229,0.545716381519412
27699.9999998774,80.3278850436972,1.00000000078289,0.550898474957525
27799.9999998759,80.2174703795413,1.00000000086458,0.556840852558021
27899.9999998745,80.1071005953465,1.0000000008215,0.556720591459223
27999.999999873,79.9966399998663,1.00000000082369,0.559001961701213
28099.9999998716,79.8852401733513,1.00000000081204,0.562236591915526
28199.9999998701,79.7731986769392,1.00000000086274,0.562289299507909
28299.9999998687,79.6594117002842,1.00000000083689,0.565318955972795
28399.9999998672,79.5458674834382,1.00000000081921,0.560026344396673
28499.9999998658,79.4349522498005,1.00000000077031,0.552570858524562
28599.9999998643,79.3257572866601,1.00000000082357,0.557221346353773
28699.9999998629,79.2160008473373,1.0000000008032,0.561374548943398
28799.9999998614,79.1050174167089,1.0000000008276,0.565923614763751
28899.9999998599,78.9909362052742,1.00000000087534,0.575704187930847
