Time,AGPnorm,Energy,Entropy
0,0,1,4.45810188447574e-18
99.9999999999986,0.00480318297096586,0.999999999998703,0.0150464918036315
199.999999999993,0.0132219719198786,1.00000000000064,0.0441627761027126
300,0.0275415911181159,0.999999999998311,0.08644119679471
400.000000000022,0.0422877469333955,1.00000000000275,0.142071732892581
500.000000000045,0.0578035586334722,1.00000000003487,0.219267269424582
600.000000000068,0.0892032835439256,1.00000000031791,0.321485401830966
700.000000000091,0.210523318841998,1.00000000084014,0.421263264617731
800.000000000113,0.732952223440219,1.00000000136437,0.491972525030466
900.000000000136,1.93926171019413,1.00000000174796,0.534971443724218
1000.00000000016,3.97048249120777,1.00000000196716,0.557695968852433
1100.0000000001,6.77106824861183,1.00000000198428,0.568315557066614
1200,10.0669730785932,1.00000000207229,0.569806308057177
1299.99999999991,13.5983840724771,1.00000000194085,0.567921944921404
1399.99999999982,17.0680223835104,1.00000000164913,0.561662066179636
1499.99999999973,20.2504503764693,1.00000000159914,0.552111181192534
1599.99999999964,23.0091152973902,1.00000000149297,0.546901166398786
1699.99999999955,25.2410695795819,1.00000000153055,0.535167577605287
1799.99999999946,26.9587076376088,1.00000000131277,0.540504166488031
1899.99999999937,28.1287624949373,1.00000000117063,0.511169493072719
1999.99999999928,28.8452608094728,1.00000000123509,0.546972877896828
2099.99999999919,29.135283593732,1.00000000091672,0.479763764205704
2199.99999999909,29.0526470581525,1.00000000130951,0.550962236882589
2299.999999999,28.8378245694423,1.00000000107492,0.502617815986848
2399.99999999891,28.2931591676654,1.00000000081726,0.45240742434059
2499.99999999882,27.6978604385825,1.00000000165204,0.581318842198489
2599.99999999873,27.1318918028572,1.00000000100536,0.471312785039412
2699.99999999864,26.3811915943693,1.00000000061853,0.380327273780949
2799.99999999855,25.598437215934,1.00000000166643,0.551646881390837
2899.99999999846,24.9366090305045,1.00000000155207,0.563673493777856
2999.99999999837,24.2878440203827,1.00000000078257,0.393502302119006
3099.99999999828,23.5740958317959,1.00000000069023,0.359123018434436
3199.99999999819,22.8618908555307,1.00000000147053,0.515315037071724
3299.99999999809,22.20201895489,1.00000000166786,0.548468850228528
3399.999999998,21.6178345863527,1.00000000150888,0.551636292572844
3499.99999999791,21.0491992238452,1.00000000071582,0.389092854828021
3599.99999999782,20.5116756542208,1.00000000067905,0.340820864372899
3699.99999999773,20.0114950077744,1.00000000129171,0.466390451805686
3799.99999999764,19.5111598318939,1.00000000126314,0.535752292072746
3899.99999999755,19.0262594844533,1.00000000129912,0.500061961616355
3999.99999999746,18.553352766244,1.00000000168988,0.565251698507471
4099.99999999738,18.1104326771742,1.00000000133352,0.542956448983171
4199.99999999775,17.7087329318655,1.00000000062305,0.396171017238648
4299.99999999811,17.4041102002059,1.00000000065702,0.333738000138673
4399.99999999848,17.1780309295768,1.00000000117128,0.428570201369363
4499.99999999884,16.9446438320111,1.00000000149724,0.512143806115398
4599.9999999992,16.6683944566095,1.00000000147619,0.551083783136736
4699.99999999957,16.3883896466532,1.00000000091418,0.521815286380014
4799.99999999993,16.1247563878578,1.00000000103865,0.507420710460972
4900.00000000029,15.8411692526423,1.00000000160994,0.524588986929622
5000.00000000066,15.5384885647419,1.00000000169139,0.567805783460937
5100.00000000102,15.2401640732608,1.0000000013324,0.570484732286394
5200.00000000139,14.973274345258,1.00000000082943,0.46665893692661
5300.00000000175,14.8012030845493,1.00000000058547,0.365814656398571
5400.00000000211,14.7662588796135,1.00000000073851,0.358119677325868
5500.00000000248,14.8128299064619,1.00000000112408,0.427683570997037
5600.00000000284,14.8326800297408,1.00000000145225,0.508136010143431
5700.00000000321,14.8052962800738,1.00000000127513,0.54143985154417
5800.00000000357,14.7576854990168,1.0000000011925,0.533656270223376
5900.00000000393,14.6785066209832,1.00000000134063,0.551270576169457
6000.0000000043,14.5622025436819,1.00000000130069,0.549576559821634
6100.00000000466,14.4338786219824,1.00000000109743,0.540269975311048
6200.00000000502,14.3050190205273,1.00000000115866,0.546760201114232
6300.00000000539,14.1797619583198,1.00000000105017,0.543892298125208
6400.00000000575,14.048870456459,1.00000000125977,0.544160148341281
6500.00000000612,13.896281604776,1.00000000136447,0.557378145332831
6600.00000000648,13.7210756762715,1.00000000161782,0.559821428523103
6700.00000000684,13.5306056639493,1.0000000017363,0.58282584111816
6800.00000000721,13.3391465888348,1.00000000139286,0.577257211785218
6900.00000000757,13.1630547887468,1.00000000100795,0.510922027094396
7000.00000000793,13.0489345642426,1.00000000064321,0.425297547777353
7100.0000000083,13.0567947046587,1.00000000062179,0.371804645520021
7200.00000000866,13.2058089754517,1.00000000078584,0.378218124343545
7300.00000000903,13.44752176956,1.00000000113532,0.417143755042419
7400.00000000939,13.6929400453462,1.00000000142026,0.477428768485347
7500.00000000975,13.899298198526,1.00000000134825,0.519358716179937
7600.00000001012,14.0526249017326,1.00000000133158,0.549099992068196
7700.00000001048,14.1682262406395,1.00000000123697,0.552131347912306
7800.00000001084,14.2508598990838,1.00000000121567,0.570715114240467
7900.00000001121,14.2925413927575,1.00000000141701,0.589134978345735
8000.00000001157,14.2962418832088,1.00000000122263,0.582638042629767
8100.00000001194,14.2764537593716,1.00000000127048,0.56887799728646
8200.0000000123,14.2425043303574,1.00000000113798,0.559872481836097
8300.00000001266,14.1991231007097,1.00000000137795,0.557082096394302
8400.00000001303,14.1406666408342,1.00000000126295,0.547614578616997
8500.00000001339,14.0813238097025,1.00000000109632,0.551726325980971
8600.00000001376,14.0270288485191,1.00000000119023,0.553956511316153
8700.00000001412,13.9731799807999,1.00000000120113,0.553681660546754
8800.00000001448,13.9145647611485,1.00000000126138,0.55875218206794
8900.00000001485,13.8570390563208,1.00000000120111,0.560411339110753
9000.00000001521,13.7956568710192,1.00000000124946,0.560355550526188
9100.00000001557,13.7263204529367,1.00000000137871,0.558202492895719
9200.00000001594,13.643578752867,1.00000000124151,0.571659489028086
9300.0000000163,13.5511789450081,1.0000000012628,0.597016229294276
9400.00000001667,13.4550184541976,1.00000000107204,0.588006738056518
9500.00000001703,13.3611027001239,1.00000000108786,0.587039903254403
9600.00000001739,13.2627280229539,1.00000000127157,0.588172984999944
9700.00000001776,13.1565619969629,1.00000000133791,0.589797405816654
9800.00000001812,13.0422546234029,1.00000000142655,0.595637397040895
9900.00000001848,12.9248091772674,1.00000000152691,0.597373617787462
10000.0000000188,12.8105057488524,1.0000000016966,0.595423307277194
10100.0000000192,12.6997657154539,1.0000000016582,0.594446547846168
10200.0000000196,12.5875181981986,1.00000000140438,0.584915149304644
10300.0000000199,12.4691874061183,1.00000000107488,0.549729944801003
10400.0000000203,12.3574149474748,1.00000000080696,0.490257784324835
10500.0000000207,12.2863009024242,1.00000000067598,0.440137591367273
10600.000000021,12.3007376869769,1.00000000055721,0.393577104449751
10700.0000000214,12.4325897891398,1.00000000072873,0.382211532359846
10800.0000000218,12.6937553387256,1.00000000077472,0.390126516515444
10900.0000000221,13.0436600971824,1.00000000106131,0.415659583802271
11000.0000000225,13.4371867844778,1.00000000120134,0.447006478408577
11100.0000000229,13.8231472926365,1.00000000141069,0.479531098000983
11200.0000000232,14.1731534438921,1.00000000131195,0.502929058807581
11300.0000000236,14.4903701794576,1.00000000145833,0.528718047075464
11400.0000000239,14.7646941090454,1.00000000131909,0.553542553223056
11500.0000000243,15.0038000769765,1.00000000133037,0.564586501571287
11600.0000000247,15.2076233758304,1.00000000133627,0.566063263599854
11700.000000025,15.3768990803036,1.00000000132428,0.587071623289741
11800.0000000254,15.5150916592327,1.00000000130015,0.597851819879633
11900.0000000258,15.6234579745774,1.00000000126836,0.602264372359746
12000.0000000261,15.6987398625094,1.00000000151703,0.60576993352171
12100.0000000265,15.7469518378348,1.00000000126475,0.611541042959876
12200.0000000269,15.7753516270013,1.00000000129924,0.611678504448298
12300.0000000272,15.7850268501895,1.00000000132941,0.605336723564805
12400.0000000276,15.7871113585856,1.00000000126234,0.589679159834528
12500.0000000279,15.7768537690829,1.00000000146203,0.593513219613829
12600.0000000283,15.7495777734129,1.00000000122515,0.590239108078013
12700.0000000287,15.7195355291993,1.00000000123816,0.582371960407023
12800.000000029,15.6782788580821,1.00000000131609,0.592579269850848
12900.0000000294,15.6246602709188,1.00000000132425,0.593495064811286
13000.0000000298,15.5646549626739,1.00000000128904,0.603370192124398
13100.0000000301,15.4989615315149,1.00000000132005,0.600886945403626
13200.0000000305,15.4263216298956,1.00000000136773,0.613129432475859
13300.0000000309,15.3491718261218,1.0000000013092,0.609956966409425
13400.0000000312,15.2746668220031,1.00000000115687,0.596514286062015
13500.0000000316,15.2051185608847,1.00000000118301,0.578643209851175
13600.0000000319,15.1441666931171,1.00000000122598,0.563960354154426
13700.0000000323,15.0871404335895,1.00000000140461,0.57345100482145
13800.0000000327,15.0302293996096,1.0000000012539,0.583838506577957
13900.000000033,14.9747568301064,1.00000000130264,0.580101599848881
14000.0000000334,14.9190710468923,1.00000000127195,0.587760503533226
14100.0000000338,14.8646816878466,1.00000000120456,0.590870686387683
14200.0000000341,14.8171116322084,1.00000000113217,0.585694133688126
14300.0000000345,14.7720336426827,1.00000000139379,0.584393781247424
14400.0000000349,14.7232689789062,1.0000000013012,0.586630401365931
14500.0000000352,14.6780940123346,1.00000000122409,0.582158135130044
14600.0000000356,14.6392992415503,1.00000000119645,0.564737020994529
14700.0000000359,14.6011546540419,1.00000000141747,0.55661750791
14800.0000000363,14.5597605330347,1.00000000131531,0.557298741709568
14900.0000000367,14.5227098487405,1.00000000123812,0.564664859236513
15000.000000037,14.4898117477156,1.00000000136159,0.582133916437637
15100.0000000374,14.4529400927199,1.00000000124086,0.606386991752848
15200.0000000378,14.416050702872,1.00000000128849,0.609676887164386
15300.0000000381,14.3803976292975,1.00000000131586,0.594393156023928
15400.0000000385,14.3405327728708,1.00000000139603,0.579510916784021
15500.0000000389,14.3001344290396,1.00000000121251,0.587795926958951
15600.0000000392,14.2650809463785,1.00000000120155,0.592798433848882
15700.0000000396,14.2286610722878,1.00000000136457,0.607010132059091
15800.0000000399,14.1870092847158,1.00000000131289,0.61701225963831
15900.0000000403,14.1457416098551,1.00000000114571,0.61377637839124
16000.0000000407,14.1020199728219,1.00000000136794,0.628211923182268
16100.000000041,14.052764062359,1.0000000013648,0.628928947328944
16200.0000000414,13.9997371778784,1.00000000135638,0.612931087520035
16300.0000000418,13.9421114673863,1.00000000139641,0.611718261834817
16400.0000000418,13.8827131276953,1.0000000013309,0.619097409300141
16500.0000000404,13.8276827229931,1.00000000111043,0.615437076192435
16600.0000000389,13.7800973055518,1.00000000131289,0.611207708784031
16700.0000000375,13.7306411115015,1.00000000148299,0.618696360126198
16800.000000036,13.6750690314199,1.00000000136474,0.60916204731681
16900.0000000346,13.6184403391864,1.00000000126094,0.613556728143451
17000.0000000331,13.5648290122012,1.00000000128939,0.621714769090921
17100.0000000317,13.5079922223557,1.00000000142,0.625514374453174
17200.0000000302,13.4500155024264,1.00000000120584,0.607434641073583
17300.0000000287,13.3957500128466,1.00000000118748,0.613593440820326
17400.0000000273,13.3412394507337,1.00000000137997,0.605507129742246
17500.0000000258,13.2847415789706,1.00000000130779,0.615518667908113
17600.0000000244,13.2270251494566,1.00000000134401,0.620021812299013
17700.0000000229,13.1661681596404,1.00000000137125,0.624678138463725
17800.0000000215,13.1037274814386,1.00000000131312,0.615514424525417
17900.00000002,13.0395240316358,1.00000000143226,0.624427511142072
18000.0000000186,12.9731615937195,1.00000000134774,0.629948661917722
18100.0000000171,12.9063765975912,1.00000000130862,0.629924799772407
18200.0000000156,12.8406216583299,1.00000000121032,0.618434158002602
18300.0000000142,12.7740963352374,1.00000000152487,0.646010382288856
18400.0000000127,12.7057563869585,1.00000000142831,0.631401840421476
18500.0000000113,12.6383046432986,1.00000000144324,0.63725559108494
18600.0000000098,12.5715170157583,1.00000000141457,0.62549171895078
18700.0000000084,12.5050197342612,1.00000000116723,0.622653411562574
18800.0000000069,12.4393834696986,1.00000000137698,0.642898896144251
18900.0000000055,12.3745926952256,1.00000000111643,0.631823152524019
19000.000000004,12.310398165271,1.00000000117806,0.6303465852992
19100.0000000026,12.2475122777937,1.00000000119948,0.630385683591576
19200.0000000011,12.1867606222393,1.00000000128769,0.6359747498763
19299.9999999996,12.1296941232749,1.00000000154996,0.628930662332222
19399.9999999982,12.0786504622604,1.00000000141036,0.629689767819092
19499.9999999967,12.0354296119531,1.00000000150498,0.639622254806379
19599.9999999953,12.0057735607735,1.00000000153941,0.635565315844965
19699.9999999938,11.9878347118404,1.00000000159397,0.644825966502575
19799.9999999924,11.9933662930778,1.00000000161528,0.642828822334603
19899.9999999909,12.0130538405556,1.00000000178204,0.639235137513621
19999.9999999895,12.063863457769,1.00000000183175,0.642267916559858
20099.999999988,12.123432431075,1.00000000163863,0.629850965250038
20199.9999999865,12.2084990347352,1.00000000179691,0.625505107711197
20299.9999999851,12.2904801811753,1.0000000016183,0.614190718263979
20399.9999999836,12.3734018555853,1.0000000015755,0.602739269353754
20499.9999999822,12.4307127198755,1.00000000140268,0.5937702087734
20599.9999999807,12.4586045793055,1.00000000112692,0.56998080454033
20699.9999999793,12.4525620162039,1.00000000100509,0.540790698496492
20799.9999999778,12.4163458689522,1.00000000097136,0.511031382125457
20899.9999999764,12.3671143597465,1.00000000074032,0.481716147683339
20999.9999999749,12.3238560209146,1.00000000081887,0.453670108242778
21099.9999999734,12.3105825257847,1.00000000078444,0.429141309310225
21199.999999972,12.353732698093,1.00000000076813,0.411929267521924
21299.9999999705,12.4790248766723,1.00000000069043,0.400797572122407
21399.9999999691,12.6958502639562,1.00000000071822,0.395516036586014
21499.9999999676,13.0319385514946,1.00000000084635,0.401469581464
21599.9999999662,13.4515468441381,1.00000000091114,0.40872864284783
21699.9999999647,13.9823040457849,1.00000000114435,0.418783397655889
21799.9999999633,14.5538964284632,1.000000001265,0.436667699504633
21899.9999999618,15.1846600923658,1.00000000138872,0.441779519713557
21999.9999999603,15.8206392554218,1.00000000133676,0.456975784432737
22099.9999999589,16.4643232255626,1.00000000155176,0.464147847171381
22199.9999999574,17.0984223426214,1.0000000014894,0.487949148444972
22299.999999956,17.7040023347541,1.00000000146347,0.494015083951248
22399.9999999545,18.2973715683284,1.00000000163442,0.507955033900153
22499.9999999531,18.8495665102128,1.00000000155124,0.52214961524052
22599.9999999516,19.3969853132814,1.00000000164463,0.5272704571877
22699.9999999502,19.9026244372556,1.00000000144868,0.537460008125089
22799.9999999487,20.3910293622339,1.00000000140539,0.545079159260249
22899.9999999473,20.8604642686081,1.00000000143976,0.560913887449591
22999.9999999458,21.2927765856612,1.0000000015349,0.564940152675191
23099.9999999443,21.7065289064786,1.0000000015798,0.577770509843139
23199.9999999429,22.0831096847293,1.00000000139167,0.590920188085027
23299.9999999414,22.447489100558,1.00000000150787,0.597013998781785
23399.99999994,22.7746739136979,1.00000000145886,0.601635817992367
23499.9999999385,23.079261345332,1.0000000016383,0.613785129608126
23599.9999999371,23.3530832310491,1.00000000142369,0.625730055037705
23699.9999999356,23.5981573578583,1.00000000164116,0.624401112173085
23799.9999999342,23.8241320661493,1.00000000145408,0.620051968338757
23899.9999999327,24.0169968012062,1.00000000149194,0.633979808129332
23999.9999999312,24.1915936360265,1.00000000148235,0.640802983181492
24099.9999999298,24.3373427791918,1.00000000139497,0.637669849690497
24199.9999999283,24.4704711613221,1.0000000016586,0.630705142374829
24299.9999999269,24.5812907542734,1.00000000142826,0.638089730660841
24399.9999999254,24.6735146280741,1.00000000139015,0.640772872199456
24499.999999924,24.7472776987514,1.00000000144106,0.649063881665706
24599.9999999225,24.8032852944035,1.00000000151458,0.639426304736522
24699.9999999211,24.8561317220269,1.00000000127567,0.63471399854151
24799.9999999196,24.8983899764129,1.00000000142438,0.627469553591456
24899.9999999181,24.9361319208573,1.00000000137124,0.624808218168759
24999.9999999167,24.9560409776045,1.00000000148016,0.637804569127545
25099.9999999152,24.9568746691542,1.00000000149357,0.650734931744654
25199.9999999138,24.9445056109937,1.0000000012719,0.641122764320139
25299.9999999123,24.9325018107294,1.00000000123502,0.630996230613701
25399.9999999109,24.923194158656,1.00000000122485,0.620757912643391
25499.9999999094,24.9091243063138,1.00000000143426,0.613707970866794
25599.999999908,24.8903447408951,1.00000000139786,0.601612166947315
25699.9999999065,24.8630465706705,1.00000000148794,0.618302965111105
25799.9999999051,24.8294585949323,1.00000000141303,0.632025412286505
25899.9999999036,24.789970468185,1.00000000141484,0.644626289240802
25999.9999999021,24.7477658043268,1.00000000123808,0.636334498374504
26099.9999999007,24.7093969211293,1.00000000122444,0.596008053130378
26199.9999998992,24.6724963100554,1.00000000162888,0.59839772287174
26299.9999998978,24.6308741076911,1.00000000154026,0.605500072032441
26399.9999998963,24.5791821242102,1.00000000150128,0.600899162763946
26499.9999998949,24.5227235201295,1.00000000141996,0.601561028557714
26599.9999998934,24.4652747435564,1.00000000126818,0.592175935585969
26699.999999892,24.4124132860609,1.0000000014189,0.605488888257033
26799.9999998905,24.357993629684,1.00000000144805,0.634704298723074
26899.999999889,24.2965089525055,1.00000000148409,0.643754871360094
26999.9999998876,24.2319098982701,1.00000000135828,0.63795516995133
27099.9999998861,24.1682869661119,1.00000000137609,0.621047259667969
27199.9999998847,24.1072874236341,1.00000000137414,0.61955325338027
27299.9999998832,24.0459209364715,1.00000000136578,0.623430072075733
27399.9999998818,23.9844514328955,1.00000000131837,0.620803649878138
27499.9999998803,23.9274374208771,1.00000000108411,0.592212924792769
27599.9999998789,23.8788599699198,1.00000000118346,0.578058834086885
27699.9999998774,23.83301742809,1.00000000140758,0.606263040025416
27799.9999998759,23.7818753013434,1.00000000169162,0.619755970901068
27899.9999998745,23.7259339604075,1.00000000152693,0.616565735307715
27999.999999873,23.6689369132618,1.00000000124135,0.600772746695335
28099.9999998716,23.6162430020731,1.00000000119109,0.608863123419483
28199.9999998701,23.5630737156685,1.00000000148973,0.636280638634276
28299.9999998687,23.504491072008,1.00000000139685,0.627570560096564
28399.9999998672,23.4430444263759,1.0000000013762,0.619575884388668
28499.9999998658,23.3825516502482,1.00000000118303,0.611471076121173
28599.9999998643,23.3242832395923,1.00000000171764,0.612141746394015
28699.9999998629,23.266664925196,1.00000000160887,0.60145885176424
28799.9999998614,23.2088849024505,1.0000000015647,0.613867632704942
28899.9999998599,23.1489418354509,1.00000000147374,0.626879172560641
28999.9999998585,23.0892917960758,1.00000000125895,0.611640799462383
