Time,AGPnorm,Energy,Entropy
0,0,1,-1.25133847805269e-17
99.9999999999986,6.08960149496615e-06,0.999999999997659,0.000297374357016528
199.999999999993,0.000546348943364284,0.999999999998053,0.000486858668468641
300,0.00129009911319559,0.999999999999804,0.000851765161430615
400.000000000022,0.00178521284728711,0.999999999996736,0.00148981021776504
500.000000000045,0.00223728762121895,0.999999999999676,0.00200469968090905
600.000000000068,0.00321310669418146,0.999999999998227,0.0028029434544342
700.000000000091,0.00391312421634045,0.999999999997495,0.0036569943684849
800.000000000113,0.00499962210398337,1.00000000000009,0.00449796145216537
900.000000000136,0.00642222118217471,0.999999999996879,0.0055693337243052
1000.00000000016,0.00751795465359352,0.999999999999182,0.00658369974194137
1100.0000000001,0.00892495265496498,0.99999999999882,0.00772633060083789
1200,0.0104466378436128,0.999999999997064,0.00900182011307385
1299.99999999991,0.0121939174854984,1.00000000000017,0.0102054552708108
1399.99999999982,0.0142411947645203,0.999999999997215,0.0115876889133454
1499.99999999973,0.0159316985721979,0.999999999998576,0.0129914455238864
1599.99999999964,0.0178643550376105,0.999999999999366,0.0144176519316366
1699.99999999955,0.0201606855736847,0.999999999996831,0.0160089796627494
1799.99999999946,0.0225362313544703,1.00000000000003,0.0175328588283983
1899.99999999937,0.0250525693892038,0.999999999997679,0.019170562431024
1999.99999999928,0.0273183767884179,0.999999999997947,0.0208994902827223
2099.99999999919,0.0298562924062755,0.999999999999813,0.0225830985075873
2199.99999999909,0.0328789678663611,0.999999999996823,0.0244330559236255
2299.999999999,0.0357528857066973,0.999999999999676,0.026257426490244
2399.99999999891,0.0386119264923406,0.999999999998209,0.0281259400564858
2499.99999999882,0.0414761293031537,0.9999999999974,0.0301349592938806
2599.99999999873,0.0446664395641321,1.00000000000011,0.0320729318137005
2699.99999999864,0.0482828806505368,0.999999999997015,0.0341539590427507
2799.99999999855,0.0515232010039664,0.999999999999124,0.0362658456654184
2899.99999999846,0.0546884979791227,0.99999999999875,0.0383586194642914
2999.99999999837,0.0581812542102178,0.999999999997042,0.0406202994955432
3099.99999999828,0.0619761258818147,1.00000000000022,0.0428260218258933
3199.99999999819,0.0659726559952468,0.999999999997344,0.0451293213604492
3299.99999999809,0.0695094868171337,0.999999999998455,0.047519680494712
3399.999999998,0.0730393132591662,0.999999999999274,0.049844611428436
3499.99999999791,0.0771587914582682,0.999999999996917,0.0523533030235695
3599.99999999782,0.0813958373322909,1.00000000000008,0.0548463767728835
3699.99999999773,0.0855566774010918,0.99999999999774,0.057377925280697
3799.99999999764,0.0893873033227543,0.999999999997799,0.0600439906045852
3899.99999999755,0.0933857705553062,0.999999999999733,0.062628977222496
3999.99999999746,0.0980385126129873,0.999999999997011,0.0653973666751302
4099.99999999738,0.102507780084434,0.999999999999693,0.068198197977379
4199.99999999775,0.106699045271517,0.999999999998172,0.070980748198094
4299.99999999811,0.11086960878115,0.999999999997302,0.0739320246519684
4399.99999999848,0.115385419060333,1.00000000000007,0.0768283971592905
4499.99999999884,0.12036623714926,0.999999999997249,0.0798838362885025
4599.9999999992,0.124899998357494,0.999999999999075,0.0830189058578716
4699.99999999957,0.129109915603286,0.999999999998645,0.0860936029668509
4799.99999999993,0.133688961746328,0.999999999997045,0.0893687791315479
4900.00000000029,0.13862972359035,1.0000000000002,0.0926436749451712
5000.00000000066,0.143685862241991,0.999999999997547,0.0960323272128858
5100.00000000102,0.148195957224485,0.999999999998345,0.0995500646778357
5200.00000000139,0.152535729179521,0.999999999999146,0.102989002646799
5300.00000000175,0.157536531102107,0.999999999997045,0.106668608458939
5400.00000000211,0.162686257270447,1.00000000000009,0.110409516711685
5500.00000000248,0.167613699463301,0.999999999997845,0.114211205320185
5600.00000000284,0.172095524504264,0.999999999997701,0.118197170854429
5700.00000000321,0.176721111856886,0.999999999999609,0.12213908547782
5800.00000000357,0.182035400808214,0.999999999997256,0.126347697246669
5900.00000000393,0.18714548355485,0.999999999999742,0.130691702444542
6000.0000000043,0.191856490185228,0.999999999998216,0.13505810844787
6100.00000000466,0.196389859833168,0.999999999997383,0.139683420930753
6200.00000000502,0.201365620520251,1.0000000000001,0.144352801820012
6300.00000000539,0.206805394054099,0.999999999997739,0.149308517090387
6400.00000000575,0.211676259911091,0.999999999999396,0.154479799815129
6500.00000000612,0.216297001043025,0.999999999999092,0.159668225263463
6600.00000000648,0.221028658164802,0.999999999997869,0.165216390153676
6700.00000000684,0.22633845095939,1.00000000000119,0.170911894632801
6800.00000000721,0.231908016856844,0.99999999999936,0.176883489948708
6900.00000000757,0.236503959104752,1.00000000000046,0.183123635858303
7000.00000000793,0.241711852750397,1.0000000000021,0.189373974603928
7100.0000000083,0.247202143040988,1.00000000000118,0.196012549384453
7200.00000000866,0.253272963171838,1.00000000000528,0.20282468012976
7300.00000000903,0.260414710715046,1.00000000000477,0.209772247773653
7400.00000000939,0.266293392701343,1.00000000000623,0.216926690390267
7500.00000000975,0.275061301376963,1.00000000001016,0.224013472996394
7600.00000001012,0.2854649112334,1.0000000000111,0.231356959515504
7700.00000001048,0.296973487818216,1.00000000001591,0.23878544111925
7800.00000001084,0.313826927195726,1.00000000001724,0.246078136415099
7900.00000001121,0.331485413473269,1.00000000001929,0.253504169245918
8000.00000001157,0.357013080117574,1.00000000002555,0.260748624771677
8100.00000001194,0.390980439711399,1.00000000002706,0.268085642718191
8200.0000000123,0.430000339476922,1.00000000003137,0.275429985124474
8300.00000001266,0.485340426510629,1.00000000003566,0.282395008370442
8400.00000001303,0.55124770990063,1.00000000003965,0.28949094067253
8500.00000001339,0.634957947993916,1.00000000004569,0.29639707339477
8600.00000001376,0.744340811284392,1.00000000004748,0.303239580994969
8700.00000001412,0.871250267832324,1.00000000005419,0.310021426389112
8800.00000001448,1.03367644877345,1.00000000005715,0.316432296696311
8900.00000001485,1.2291574638114,1.00000000006135,0.322922113184817
9000.00000001521,1.45982813796803,1.00000000006623,0.329305252039803
9100.00000001557,1.74518828748414,1.00000000007158,0.33543302093047
9200.00000001594,2.07299656472681,1.00000000007685,0.341588209830801
9300.0000000163,2.46233198090216,1.00000000008127,0.347396335598016
9400.00000001667,2.92070970585321,1.00000000008323,0.353269359598604
9500.00000001703,3.44047102973831,1.00000000008947,0.359096222789679
9600.00000001739,4.05187365317598,1.00000000009536,0.364494728803615
9700.00000001776,4.74309522406524,1.0000000000972,0.37004927798538
9800.00000001812,5.52563200625349,1.00000000010563,0.375282624842249
9900.00000001848,6.42240915253847,1.00000000010957,0.380471738080969
10000.0000000188,7.41501023851988,1.00000000011211,0.385734129642234
10100.0000000192,8.53706323449465,1.00000000011995,0.390466706910489
10200.0000000196,9.78500954692429,1.00000000011624,0.395429232437767
10300.0000000199,11.1550085465462,1.00000000013303,0.400113012919976
10400.0000000203,12.6860933073348,1.00000000013083,0.404666101491215
10500.0000000207,14.3528825500611,1.00000000013276,0.40934586742502
10600.000000021,16.1814449911124,1.00000000013704,0.41350339837748
10700.0000000214,18.1840854332348,1.00000000013739,0.417843362446404
10800.0000000218,20.3387531921207,1.00000000014952,0.422060534051333
10900.0000000221,22.6945735355934,1.0000000001439,0.425979765292696
11000.0000000225,25.2270643709381,1.00000000015016,0.43006024733942
11100.0000000229,27.9448567390829,1.00000000014961,0.433809579899149
11200.0000000232,30.879869279429,1.00000000015161,0.437513163453694
11300.0000000236,33.9950926462135,1.0000000001623,0.441286981589684
11400.0000000239,37.3381863623502,1.00000000015792,0.444619047076994
11500.0000000243,40.8954469543815,1.00000000016143,0.448137897862456
11600.0000000247,44.6521430637598,1.00000000016369,0.451538949125563
11700.000000025,48.6580275859388,1.00000000016484,0.454623711388641
11800.0000000254,52.8690038416428,1.00000000017128,0.457956200498192
11900.0000000258,57.3181702760203,1.00000000016329,0.46087564640557
12000.0000000261,62.0113448208015,1.00000000017077,0.463773036102431
12100.0000000265,66.9104324029336,1.00000000016669,0.46691267736393
12200.0000000269,72.0757617827613,1.00000000017583,0.469373168784557
12300.0000000272,77.4657571245661,1.00000000017936,0.472239599666175
12400.0000000276,83.0889766127222,1.00000000017214,0.474880609490227
12500.0000000279,88.9749485285763,1.00000000018418,0.477204185522984
12600.0000000283,95.0678465507619,1.00000000017863,0.480019859582164
12700.0000000287,101.426646812815,1.00000000018297,0.482118314450997
12800.000000029,108.022562169283,1.00000000018494,0.484399846311847
12900.0000000294,114.835841641645,1.00000000018009,0.486843836831462
13000.0000000298,121.917214268254,1.00000000019265,0.48874122441192
13100.0000000301,129.203254039267,1.00000000018686,0.490971911283883
13200.0000000305,136.737754671695,1.0000000001882,0.492921470000977
13300.0000000309,144.513612916929,1.00000000019481,0.494736239378
13400.0000000312,152.48469475307,1.0000000001871,0.496835552675748
13500.0000000316,160.714039312957,1.00000000018542,0.498573075579599
13600.0000000319,169.143272990487,1.00000000018931,0.500278479663304
13700.0000000323,177.790993054332,1.00000000018484,0.501991513690746
13800.0000000327,186.674145868279,1.00000000019453,0.503476120831876
13900.000000033,195.728562640436,1.00000000019572,0.505173492423862
14000.0000000334,205.017353794051,1.00000000018928,0.506556137671381
14100.0000000338,214.497389164415,1.000000000197,0.507918542103681
14200.0000000341,224.158167518005,1.00000000019325,0.509446503287653
14300.0000000345,234.038594771673,1.00000000018762,0.510730945885239
14400.0000000349,244.067309409278,1.00000000018907,0.512107469703852
14500.0000000352,254.295906821882,1.00000000019091,0.513219583748037
14600.0000000356,264.702305368957,1.00000000019421,0.514300029865621
14700.0000000359,275.248632391763,1.00000000019279,0.515556381783452
14800.0000000363,285.988617867617,1.00000000018882,0.516614971799857
14900.0000000367,296.85551306328,1.00000000018591,0.517648625120452
15000.000000037,307.880143495608,1.00000000018738,0.518580001011284
15100.0000000374,319.064034657801,1.00000000019175,0.51943754557087
15200.0000000378,330.350113322665,1.0000000001942,0.520390320470468
15300.0000000381,341.796078263592,1.00000000019383,0.521118485569704
15400.0000000385,353.348304448274,1.00000000018903,0.522035671836225
15500.0000000389,365.013443968706,1.00000000018861,0.522786463087137
15600.0000000392,376.812942703254,1.00000000018388,0.523504701964734
15700.0000000396,388.680311307132,1.00000000018329,0.524405304025038
15800.0000000399,400.668896409361,1.00000000018914,0.52472572755543
15900.0000000403,412.742898143346,1.00000000018718,0.5253168082524
16000.0000000407,424.884238584666,1.00000000018529,0.526161405220909
16100.000000041,437.131585154572,1.00000000018521,0.526679019080392
16200.0000000414,449.418138171968,1.0000000001866,0.527157065877347
16300.0000000418,461.783040487039,1.00000000018543,0.527517392960117
16400.0000000418,474.213208508698,1.00000000018795,0.527858958531444
16500.0000000404,486.669771709328,1.0000000001861,0.528438163369887
16600.0000000389,499.199531435453,1.00000000018077,0.528942924934768
16700.0000000375,511.74385867004,1.00000000018447,0.529334629163219
16800.000000036,524.325802731532,1.00000000018341,0.529614493222454
16900.0000000346,536.949308654671,1.00000000018004,0.529609176628351
17000.0000000331,549.563012816413,1.00000000017833,0.53019179231882
17100.0000000317,562.216374425893,1.00000000017719,0.530264215580574
17200.0000000302,574.863048681826,1.00000000017726,0.530661274215355
17300.0000000287,587.507249008095,1.00000000017808,0.531071993374078
17400.0000000273,600.168816015699,1.00000000017901,0.531108100951187
17500.0000000258,612.793495010725,1.00000000017366,0.531355186013446
17600.0000000244,625.420210873273,1.00000000017338,0.530996958744483
17700.0000000229,638.023512436507,1.00000000017542,0.531242018168027
17800.0000000215,650.588307084557,1.00000000017028,0.53144075673766
17900.00000002,663.145402738296,1.00000000017144,0.531790550893691
18000.0000000186,675.641042921652,1.00000000017103,0.531758926175681
18100.0000000171,688.105651975455,1.00000000017082,0.531809072391978
18200.0000000156,700.529169093164,1.00000000017117,0.531382102557873
18300.0000000142,712.88228083979,1.00000000017207,0.531509009264613
18400.0000000127,725.201892061765,1.00000000017232,0.531206446976959
18500.0000000113,737.441157962951,1.00000000017203,0.531444241370032
18600.0000000098,749.618562277199,1.00000000017297,0.531562549853997
18700.0000000084,761.737793357248,1.00000000016762,0.531545568286298
18800.0000000069,773.762764427769,1.00000000016555,0.531645812924889
18900.0000000055,785.727668756013,1.00000000016634,0.531195923296548
19000.000000004,797.598143344386,1.00000000016214,0.530995878836742
19100.0000000026,809.37909804622,1.00000000016363,0.530744129379309
19200.0000000011,821.086808793219,1.00000000016138,0.530610513876206
19299.9999999996,832.679831569485,1.00000000016501,0.530682249919964
19399.9999999982,844.188653078845,1.00000000015784,0.530622993447626
19499.9999999967,855.592079841476,1.00000000016655,0.530540449795921
19599.9999999953,866.883173522592,1.00000000015557,0.530525937382233
19699.9999999938,878.084946088705,1.00000000015816,0.53014260022139
19799.9999999924,889.157176944951,1.00000000015828,0.529766363493384
19899.9999999909,900.12451574786,1.00000000015766,0.529441606406889
19999.9999999895,910.978486241108,1.0000000001526,0.529225649667189
20099.999999988,921.702129453395,1.00000000015185,0.529135503827152
20199.9999999865,932.320572746124,1.00000000015294,0.528933164312677
20299.9999999851,942.799426461267,1.00000000015569,0.528808482908904
20399.9999999836,953.155439045923,1.00000000014857,0.528990008500124
20499.9999999822,963.391438255045,1.00000000014965,0.528430878104512
20599.9999999807,973.482531597585,1.00000000015151,0.52826593363444
20699.9999999793,983.455411178361,1.0000000001528,0.527724731770156
20799.9999999778,993.282712848828,1.0000000001449,0.527474919022143
20899.9999999764,1002.97381173051,1.00000000014615,0.527293501108882
20999.9999999749,1012.5372699215,1.00000000014937,0.526685689160692
21099.9999999734,1021.94581091145,1.00000000015095,0.526829107804967
21199.999999972,1031.22464396275,1.00000000014363,0.526585983740238
21299.9999999705,1040.35563562426,1.00000000014385,0.526501530934357
21399.9999999691,1049.33924662308,1.00000000014571,0.526383062599194
21499.9999999676,1058.18916964442,1.00000000014806,0.525760019761985
21599.9999999662,1066.87952831706,1.00000000013849,0.525802317166076
21699.9999999647,1075.43074594855,1.00000000014141,0.525127466946994
21799.9999999633,1083.83274233099,1.00000000013897,0.524836624758165
21899.9999999618,1092.07906751787,1.00000000014274,0.524564230524725
21999.9999999603,1100.18740907337,1.00000000013669,0.524205659311685
22099.9999999589,1108.135038671,1.00000000013847,0.524299320469524
22199.9999999574,1115.93540944716,1.00000000014173,0.523845319526296
22299.999999956,1123.58728286103,1.000000000138,0.523730357020465
22399.9999999545,1131.07985208609,1.00000000013377,0.52361089029725
22499.9999999531,1138.43091056766,1.00000000013353,0.523106820148193
22599.9999999516,1145.62139192213,1.00000000013266,0.522929407325388
22699.9999999502,1152.66026979112,1.00000000013116,0.522463243810278
22799.9999999487,1159.55278168491,1.00000000012766,0.52227341635251
22899.9999999473,1166.28512800477,1.00000000013112,0.522058725301169
22999.9999999458,1172.87257185346,1.00000000013165,0.521727754962011
23099.9999999443,1179.30353081931,1.00000000012818,0.52174065724967
23199.9999999429,1185.58099424524,1.0000000001281,0.521244017930747
23299.9999999414,1191.71412611755,1.00000000013065,0.520917467076241
23399.99999994,1197.68720879002,1.00000000012849,0.520514807448173
23499.9999999385,1203.51429204326,1.00000000012423,0.520100571970163
23599.9999999371,1209.18841518189,1.00000000012921,0.519718064970622
23699.9999999356,1214.70803803827,1.00000000012543,0.519484816401905
23799.9999999342,1220.08575267264,1.00000000011909,0.519553526862114
23899.9999999327,1225.30641443205,1.00000000012416,0.519626756327581
23999.9999999312,1230.38204989498,1.00000000012394,0.519787791662113
24099.9999999298,1235.31137644845,1.00000000011988,0.519939261389721
24199.9999999283,1240.08939454304,1.00000000011842,0.519640774627708
24299.9999999269,1244.72926889132,1.00000000012153,0.519018609740744
24399.9999999254,1249.21698238081,1.00000000011704,0.518090649668787
24499.999999924,1253.56045666007,1.00000000011483,0.517065257434283
24599.9999999225,1257.76169475889,1.00000000011582,0.515969706399347
24699.9999999211,1261.81163715838,1.00000000011891,0.515366565599799
24799.9999999196,1265.72355767119,1.0000000001149,0.515373363470424
24899.9999999181,1269.48749559847,1.00000000011612,0.515797849264067
24999.9999999167,1273.10981102333,1.00000000011828,0.517040641955732
25099.9999999152,1276.59811229135,1.00000000011591,0.518309171736341
25199.9999999138,1279.94427948473,1.00000000011462,0.519400109879259
25299.9999999123,1283.16244633608,1.00000000011606,0.519967627641652
25399.9999999109,1286.24607978734,1.00000000011174,0.519437979244865
25499.9999999094,1289.19742972119,1.00000000010909,0.51805125271602
25599.999999908,1292.02257368615,1.00000000011242,0.515605777243343
25699.9999999065,1294.70898099434,1.00000000010716,0.513058330277374
25799.9999999051,1297.26433725924,1.0000000001082,0.510553981827954
25899.9999999036,1299.68236971701,1.00000000010517,0.508985119467891
25999.9999999021,1301.96225208137,1.00000000010347,0.50913842353958
26099.9999999007,1304.11299018429,1.00000000010473,0.510616498912207
26199.9999998992,1306.12819736164,1.00000000010575,0.513686286756142
26299.9999998978,1308.02110845416,1.0000000001043,0.517246277171321
26399.9999998963,1309.79649512865,1.00000000010885,0.520474430877345
26499.9999998949,1311.45757117462,1.00000000010983,0.522816339109294
26599.9999998934,1313.01692950176,1.00000000011302,0.52337976374829
26699.999999892,1314.46751006107,1.00000000010951,0.521901999851737
26799.9999998905,1315.81384583291,1.0000000001114,0.518563822736243
26899.999999889,1317.05298147074,1.00000000010294,0.513399959140209
26999.9999998876,1318.17382608262,1.00000000009816,0.507797595293202
27099.9999998861,1319.17822037456,1.00000000009416,0.502624287172941
27199.9999998847,1320.05336360729,1.00000000009296,0.499441630284659
27299.9999998832,1320.80121636775,1.00000000009054,0.499650083596736
27399.9999998818,1321.42659162719,1.00000000009268,0.502758424092095
27499.9999998803,1321.93168792943,1.00000000009277,0.508724028979751
27599.9999998789,1322.33357949383,1.00000000009782,0.51545668891344
27699.9999998774,1322.64011758197,1.00000000010799,0.522013620889655
27799.9999998759,1322.86443876036,1.00000000010723,0.526867024050022
27899.9999998745,1323.01930963134,1.00000000011459,0.529679796450895
27999.999999873,1323.10489119432,1.00000000011242,0.529195716498293
28099.9999998716,1323.12587184391,1.00000000011365,0.525691478647259
28199.9999998701,1323.07523650822,1.00000000010638,0.518692622102048
28299.9999998687,1322.94169084793,1.00000000010362,0.509564182140951
28399.9999998672,1322.71848305801,1.00000000009281,0.499440577815698
28499.9999998658,1322.38670355417,1.00000000008598,0.490480205123877
28599.9999998643,1321.94341724821,1.00000000007801,0.485248964946459
28699.9999998629,1321.38334155328,1.00000000007666,0.484723994970541
