Time,AGPnorm,Energy,Entropy
0,0,1,-7.23745573683338e-17
99.9999999999986,0.00157109147124018,0.999999999996564,0.005042356274558
199.999999999993,0.0111500642669436,0.999999999994978,0.0143619279445148
300,0.0218102811250078,0.99999999999817,0.0265013616708873
400.000000000022,0.0323468542836749,1.00000000000065,0.0422154686097344
500.000000000045,0.0451591990018821,0.999999999997683,0.0613141034400978
600.000000000068,0.0631075771240376,0.999999999995105,0.0831181731740202
700.000000000091,0.0790825783211633,0.999999999996692,0.10809106778585
800.000000000113,0.0955900776167554,1.00000000000086,0.137989130325368
900.000000000136,0.111656896152582,1.00000000000492,0.175394831191964
1000.00000000016,0.128321834454144,1.00000000004769,0.222301222553186
1100.0000000001,0.149153393904142,1.00000000022249,0.2776042680841
1200,0.194866190813588,1.00000000054665,0.332958808809412
1299.99999999991,0.285016460974889,1.00000000086959,0.383738532476506
1399.99999999982,0.506718870549248,1.00000000123233,0.426756291710483
1499.99999999973,0.992837316903127,1.0000000015488,0.462309479755858
1599.99999999964,1.80410571598038,1.00000000177307,0.491763138649426
1699.99999999955,2.97167340783199,1.00000000192959,0.517269958906048
1799.99999999946,4.58233333772921,1.00000000212927,0.536972065831684
1899.99999999937,6.65868173301235,1.00000000218624,0.551927308589002
1999.99999999928,9.10815212744217,1.00000000219429,0.563767526970723
2099.99999999919,11.8462085385581,1.00000000231648,0.573858514842713
2199.99999999909,14.8590355651679,1.00000000209633,0.580906877481924
2299.999999999,18.0938737569659,1.00000000225663,0.584110763795461
2399.99999999891,21.4167858615811,1.00000000217543,0.586809651917357
2499.99999999882,24.719288592999,1.0000000020492,0.589560342313951
2599.99999999873,27.9669812914337,1.00000000207814,0.589552253538275
2699.99999999864,31.1324738803,1.00000000196457,0.588706359541861
2799.99999999855,34.1419615134978,1.0000000018361,0.587288888438102
2899.99999999846,36.9250775884644,1.00000000176383,0.586532733417097
2999.99999999837,39.4586715390139,1.00000000169912,0.584225056770378
3099.99999999828,41.7486164383373,1.00000000164565,0.580558558078928
3199.99999999819,43.7851803226011,1.0000000015826,0.578108871990028
3299.99999999809,45.5418457776345,1.0000000015599,0.576580144758193
3399.999999998,47.0111889769315,1.00000000147114,0.575325616127201
3499.99999999791,48.2089368665588,1.0000000014348,0.573355887960397
3599.99999999782,49.1541351736007,1.00000000139963,0.574181451691088
3699.99999999773,49.8564889320228,1.00000000127863,0.565799569122187
3799.99999999764,50.333814665246,1.00000000133637,0.572142207992462
3899.99999999755,50.5806973552266,1.00000000127228,0.567384121176515
3999.99999999746,50.6613838138176,1.00000000128113,0.567838278923754
4099.99999999738,50.5646365234885,1.00000000117896,0.556898212243794
4199.99999999775,50.3518919400191,1.00000000132991,0.572714879804451
4299.99999999811,50.0146352261227,1.00000000106171,0.539087689906078
4399.99999999848,49.5756052851149,1.00000000153225,0.58140774002542
4499.99999999884,49.0912632141346,1.00000000115988,0.542448552689333
4599.9999999992,48.5069651907383,1.00000000123128,0.542711958864009
4699.99999999957,47.9173450660352,1.00000000149508,0.571091368653623
4799.99999999993,47.2913752049891,1.00000000091111,0.510977942282241
4900.00000000029,46.6047300228751,1.00000000150314,0.556869783636328
5000.00000000066,45.9461786063554,1.00000000162102,0.561065633775812
5100.00000000102,45.2743836623437,1.00000000094512,0.497778915542609
5200.00000000139,44.5637457981336,1.00000000135051,0.526505320122653
5300.00000000175,43.8788891921413,1.00000000173932,0.569980418548395
5400.00000000211,43.2106869901669,1.00000000114652,0.50240406677346
5500.00000000248,42.521956247326,1.00000000106482,0.486743702695751
5600.00000000284,41.8361967084456,1.00000000164538,0.542002427962413
5700.00000000321,41.1815485245805,1.00000000158531,0.541155014663583
5800.00000000357,40.5396510706645,1.00000000105063,0.490686538159876
5900.00000000393,39.8949715857416,1.00000000110019,0.495390101964777
6000.0000000043,39.2585042652507,1.00000000146575,0.519742897819857
6100.00000000466,38.644325201996,1.00000000159063,0.539542494504216
6200.00000000502,38.0493109050624,1.00000000120657,0.500848804065461
6300.00000000539,37.4666377845179,1.00000000110559,0.499604535454465
6400.00000000575,36.894653582637,1.00000000123655,0.51442867516064
6500.00000000612,36.3369725332024,1.00000000133919,0.51133448016135
6600.00000000648,35.7953132995047,1.00000000149684,0.528277247885411
6700.00000000684,35.2697383318899,1.00000000129042,0.512538133144839
6800.00000000721,34.7628880591382,1.00000000106796,0.496542734911886
6900.00000000757,34.2719033541814,1.00000000136627,0.524478279624828
7000.00000000793,33.7958658976499,1.00000000123229,0.516158192675353
7100.0000000083,33.3373208668122,1.00000000124882,0.504474011273772
7200.00000000866,32.8917886797407,1.00000000149849,0.528589093489692
7300.00000000903,32.4572526110448,1.00000000142334,0.51827713928683
7400.00000000939,32.0428974674959,1.00000000111352,0.499420342710236
7500.00000000975,31.6466713170258,1.00000000135251,0.522275119108645
7600.00000001012,31.259029693589,1.00000000148021,0.530971814258624
7700.00000001048,30.8872513865462,1.00000000115185,0.504548010562834
7800.00000001084,30.5358989916048,1.00000000122717,0.49519572531237
7900.00000001121,30.1954108234806,1.00000000154199,0.527267429984188
8000.00000001157,29.858150755835,1.00000000147481,0.517123869634738
8100.00000001194,29.5354544278077,1.00000000118075,0.50950744285843
8200.0000000123,29.2311134438848,1.00000000117468,0.514767646836005
8300.00000001266,28.9385874350707,1.00000000137845,0.526289555145099
8400.00000001303,28.6479065726653,1.00000000143591,0.526048907594812
8500.00000001339,28.3687475257208,1.00000000117179,0.519450337563434
8600.00000001376,28.1093794063734,1.00000000118682,0.501282664887818
8700.00000001412,27.862107920216,1.00000000135423,0.52037924335906
8800.00000001448,27.6207189500304,1.00000000144612,0.532797201532984
8900.00000001485,27.3819015289936,1.00000000142424,0.529802970539214
9000.00000001521,27.1545371671056,1.00000000121189,0.517518409150723
9100.00000001557,26.9415350067907,1.0000000012894,0.530924089099421
9200.00000001594,26.7371488003197,1.00000000120132,0.532271828628633
9300.0000000163,26.5411106262618,1.00000000134824,0.530165576907113
9400.00000001667,26.3490825158987,1.00000000137039,0.518090182866144
9500.00000001703,26.1613565092891,1.00000000141313,0.539194771450716
9600.00000001739,25.9804971456133,1.0000000012759,0.537542153740398
9700.00000001776,25.8104261500741,1.00000000125704,0.522226194581574
9800.00000001812,25.6513148831858,1.00000000131517,0.534495135489156
9900.00000001848,25.4977931415011,1.00000000141668,0.541376288755173
10000.0000000188,25.3451426382057,1.00000000139599,0.536985022181361
10100.0000000192,25.2005210899125,1.00000000127562,0.537217555108746
10200.0000000196,25.0692617437132,1.00000000123956,0.533044010448542
10300.0000000199,24.9426676611808,1.00000000140345,0.539600046287312
10400.0000000203,24.8139694595448,1.00000000138188,0.545023659423401
10500.0000000207,24.695513324212,1.00000000116211,0.522094906319861
10600.000000021,24.5911350715649,1.00000000131859,0.532397675729271
10700.0000000214,24.4889779785595,1.00000000139668,0.530080137534658
10800.0000000218,24.3803723041725,1.00000000146253,0.549126577419053
10900.0000000221,24.2663638371443,1.00000000139956,0.561348347842979
11000.0000000225,24.1548422499295,1.00000000122986,0.552226218708985
11100.0000000229,24.0505407613214,1.00000000122663,0.547079956722892
11200.0000000232,23.9533954753455,1.0000000013426,0.547681882032818
11300.0000000236,23.8614662421193,1.00000000136404,0.546360793643932
11400.0000000239,23.7742781424927,1.0000000014295,0.542364636356069
11500.0000000243,23.6910804872074,1.00000000130801,0.543562306445255
11600.0000000247,23.6162957459397,1.00000000125827,0.550164061646514
11700.000000025,23.5492262975846,1.00000000128719,0.55626154825762
11800.0000000254,23.485356520656,1.00000000133126,0.54556641219713
11900.0000000258,23.4193286825723,1.0000000014147,0.54911506515932
12000.0000000261,23.354822546074,1.00000000129512,0.546466452682288
12100.0000000265,23.3001105822533,1.00000000125647,0.530572730280155
12200.0000000269,23.2546954255643,1.00000000128803,0.543079310717696
12300.0000000272,23.21009312067,1.00000000139604,0.561193823046006
12400.0000000276,23.1643021701111,1.00000000130897,0.549870991009096
12500.0000000279,23.1150659261642,1.00000000139419,0.557660619287898
12600.0000000283,23.0594831405328,1.00000000137088,0.562667330547408
12700.0000000287,22.9969374171983,1.00000000145113,0.578879156299882
12800.000000029,22.9268730928348,1.00000000130177,0.583488616499714
12900.0000000294,22.8552893149582,1.00000000133534,0.583893974553946
13000.0000000298,22.7899435578995,1.00000000134551,0.570821604029158
13100.0000000301,22.7345172845914,1.00000000128288,0.558155204363577
13200.0000000305,22.6855018788143,1.00000000132628,0.552212520201976
13300.0000000309,22.6429360848412,1.0000000014109,0.552182711371225
13400.0000000312,22.6040375709472,1.00000000137555,0.553104145509433
13500.0000000316,22.5700852012225,1.00000000141845,0.566122968815878
13600.0000000319,22.5421961862021,1.00000000128453,0.569436610502581
13700.0000000323,22.5167092797825,1.00000000141126,0.568311767979333
13800.0000000327,22.4889074105212,1.00000000143521,0.569446960640431
13900.000000033,22.4632396123809,1.00000000133286,0.559684020953468
14000.0000000334,22.4441321292464,1.00000000141859,0.554708375930787
14100.0000000338,22.4294560351975,1.0000000013956,0.554587030937875
14200.0000000341,22.4162442143504,1.00000000142237,0.55876191328764
14300.0000000345,22.4050686785389,1.00000000129697,0.565401171634077
14400.0000000349,22.3961218628731,1.00000000146309,0.576958744303033
14500.0000000352,22.3871194867307,1.0000000014334,0.585564335407849
14600.0000000356,22.3721016517196,1.00000000144387,0.593384690349796
14700.0000000359,22.3537520767052,1.00000000135742,0.592085425371791
14800.0000000363,22.3343292932095,1.00000000144577,0.595127473560004
14900.0000000367,22.3152921974074,1.00000000140985,0.593201838315039
15000.000000037,22.2926328801298,1.00000000142713,0.592447577835796
15100.0000000374,22.2623752842272,1.0000000015273,0.596249286825613
15200.0000000378,22.2210000894551,1.00000000150558,0.593688899030755
15300.0000000381,22.1714252316484,1.00000000150209,0.600214411749721
15400.0000000385,22.1170710016758,1.00000000137399,0.604817734888738
15500.0000000389,22.0633702735982,1.00000000132654,0.600182532320833
15600.0000000392,22.0164744116021,1.00000000130078,0.591196374800844
15700.0000000396,21.9787545257278,1.00000000137698,0.58399008362277
15800.0000000399,21.9486393951925,1.00000000146143,0.583027770552754
15900.0000000403,21.9252289879204,1.00000000145115,0.584706271308194
16000.0000000407,21.9083262351368,1.00000000139073,0.580154629790199
16100.000000041,21.8958822866792,1.00000000149417,0.581433822425947
16200.0000000414,21.8863781869718,1.00000000146161,0.586681136174762
16300.0000000418,21.8832359616942,1.00000000146212,0.593945814279706
16400.0000000418,21.8821980792528,1.00000000146496,0.589206823264063
16500.0000000404,21.8803182811252,1.00000000144314,0.589769461678686
16600.0000000389,21.8805285185414,1.00000000132878,0.582422729845476
16700.0000000375,21.8835567549467,1.00000000139317,0.57306109737808
16800.000000036,21.888340978967,1.00000000142162,0.572095538993947
16900.0000000346,21.8972725052557,1.00000000150341,0.581657993262711
17000.0000000331,21.9103469880764,1.00000000138947,0.585186118322341
17100.0000000317,21.9246075781348,1.00000000138556,0.5847995203709
17200.0000000302,21.9370786240643,1.00000000151769,0.589614406721702
17300.0000000287,21.9470309532987,1.00000000143915,0.572795984879432
17400.0000000273,21.9574278392903,1.00000000153133,0.577390197988702
17500.0000000258,21.9679273266493,1.00000000135477,0.588543061668089
17600.0000000244,21.9794133390669,1.00000000142326,0.604520188417399
17700.0000000229,21.9886347325811,1.00000000146634,0.608600960912832
17800.0000000215,21.9943083452687,1.00000000149027,0.618006282332418
17900.00000002,21.996787002756,1.00000000147318,0.624251436585949
18000.0000000186,21.9968133124341,1.0000000015488,0.618984145132521
18100.0000000171,21.9916903436997,1.00000000152019,0.620752507735887
18200.0000000156,21.9849839608635,1.00000000136328,0.63282149404806
18300.0000000142,21.9753938290411,1.00000000144981,0.63599799988646
18400.0000000127,21.9614781602818,1.00000000159073,0.642709683800545
18500.0000000113,21.9445757340261,1.00000000144833,0.637736650668542
18600.0000000098,21.9258121931766,1.00000000140108,0.631099694138535
18700.0000000084,21.9023288972597,1.00000000145606,0.632943834929323
18800.0000000069,21.8737739092734,1.00000000147843,0.63021377601176
18900.0000000055,21.8395767232243,1.00000000159079,0.629115479627236
19000.000000004,21.7995681658981,1.00000000155889,0.631470387709817
19100.0000000026,21.7536496756363,1.00000000158826,0.624577618246858
19200.0000000011,21.7043533530021,1.00000000151636,0.629659178422336
19299.9999999996,21.6570045654709,1.00000000137202,0.630585653223577
19399.9999999982,21.6135332347145,1.00000000133122,0.628628320581018
19499.9999999967,21.5757744526162,1.00000000137873,0.629054183518343
19599.9999999953,21.5451331496508,1.00000000141046,0.625038394395388
19699.9999999938,21.520983343799,1.00000000152127,0.622795092909571
19799.9999999924,21.5025850746765,1.00000000153462,0.62398421535956
19899.9999999909,21.4907070968553,1.00000000144834,0.613071585853691
19999.9999999895,21.4840158957834,1.00000000153702,0.597910331391983
20099.999999988,21.4832164198502,1.00000000150357,0.5915950493017
20199.9999999865,21.4853470065934,1.00000000148823,0.59685640322961
20299.9999999851,21.4910267504197,1.00000000148321,0.60144911188894
20399.9999999836,21.5010512239892,1.00000000155813,0.600787025241073
20499.9999999822,21.5126912241769,1.00000000156438,0.613592014975213
20599.9999999807,21.5256134522137,1.00000000153312,0.609043998420104
20699.9999999793,21.5394416431746,1.00000000152408,0.606698741340255
20799.9999999778,21.5545938894561,1.00000000153392,0.602749920998762
20899.9999999764,21.5717863084063,1.00000000155059,0.593450080351874
20999.9999999749,21.5908901746239,1.000000001484,0.591103013600085
21099.9999999734,21.6138549025915,1.00000000145125,0.592769560908617
21199.999999972,21.6394343573588,1.00000000153122,0.598457306914042
21299.9999999705,21.6650172453115,1.00000000155004,0.594164888566271
21399.9999999691,21.6892689556824,1.00000000161688,0.598016549338324
21499.9999999676,21.7146546210989,1.00000000135246,0.594119345352985
21599.9999999662,21.740988630524,1.00000000156052,0.59754799084618
21699.9999999647,21.7657361452044,1.00000000163766,0.598110558154857
21799.9999999633,21.7847426518613,1.00000000168907,0.602617479321707
21899.9999999618,21.7995844474795,1.00000000153481,0.601850900266455
21999.9999999603,21.8153386757467,1.00000000146545,0.616585834237003
22099.9999999589,21.8330604108739,1.00000000154926,0.631304958330649
22199.9999999574,21.8503575594439,1.00000000162545,0.628406203783287
22299.999999956,21.8648786832362,1.00000000156342,0.631343066539332
22399.9999999545,21.875921597914,1.000000001626,0.632049840607368
22499.9999999531,21.8847967046849,1.00000000157513,0.636296207130574
22599.9999999516,21.8954116752333,1.00000000149335,0.632697278590717
22699.9999999502,21.9074182655762,1.00000000148323,0.63428734897494
22799.9999999487,21.9194644820102,1.00000000158367,0.636918192479184
22899.9999999473,21.93060933468,1.00000000154322,0.633006720303701
22999.9999999458,21.9372991116335,1.00000000163694,0.628228908197073
23099.9999999443,21.9401491089315,1.00000000156871,0.634546462486314
23199.9999999429,21.9423751599243,1.00000000153943,0.636070155957037
23299.9999999414,21.9424911308475,1.00000000151115,0.633803765468754
23399.99999994,21.9405741733714,1.00000000164727,0.641102758735854
23499.9999999385,21.9361454623673,1.00000000161036,0.644632152676758
23599.9999999371,21.9317859962635,1.00000000143881,0.640220829175684
23699.9999999356,21.9292384066758,1.00000000158179,0.634916869553771
23799.9999999342,21.9263837764989,1.00000000162356,0.638426102200042
23899.9999999327,21.921025021245,1.00000000159797,0.643562533221732
23999.9999999312,21.9117718907928,1.00000000169674,0.64336713528904
24099.9999999298,21.8983078989956,1.0000000016342,0.640006156865012
24199.9999999283,21.8821204077367,1.00000000153785,0.643342238191509
24299.9999999269,21.8660540746752,1.00000000164781,0.65188044592674
24399.9999999254,21.8474450843681,1.00000000163866,0.64559609270229
24499.999999924,21.8279206451705,1.00000000156998,0.641731820108987
24599.9999999225,21.8062640641751,1.00000000163056,0.653490889348445
24699.9999999211,21.7830939252427,1.00000000160785,0.647513497335797
24799.9999999196,21.7595820673678,1.00000000155867,0.641320084267797
24899.9999999181,21.734621889513,1.00000000156189,0.643676672480391
24999.9999999167,21.7071072846915,1.00000000161013,0.639406104114281
25099.9999999152,21.6760985986709,1.00000000173109,0.644636652003625
25199.9999999138,21.6422559658514,1.00000000177967,0.652878862504853
25299.9999999123,21.6070442721016,1.00000000157239,0.651345320008542
25399.9999999109,21.5693150194136,1.00000000170583,0.648796746051203
25499.9999999094,21.5302742143491,1.0000000016475,0.65045576011483
25599.999999908,21.4899800863377,1.0000000016295,0.653973065788843
25699.9999999065,21.4482729276716,1.00000000170133,0.653412579984769
25799.9999999051,21.4068267628744,1.00000000155925,0.643071744297618
25899.9999999036,21.3678270670819,1.00000000155556,0.634719567659953
25999.9999999021,21.3326279315805,1.00000000157329,0.624813411885055
26099.9999999007,21.3038645221653,1.00000000151472,0.611580830169706
26199.9999998992,21.2809290272802,1.00000000145812,0.611444714272728
26299.9999998978,21.2637730345131,1.0000000015968,0.616904843855975
26399.9999998963,21.2506971771017,1.0000000016838,0.621792795116714
26499.9999998949,21.2420107870386,1.00000000165593,0.622092730239494
26599.9999998934,21.2393422704795,1.00000000153784,0.61340795678775
26699.999999892,21.2415582544408,1.00000000160955,0.608860256444071
26799.9999998905,21.2490492372136,1.00000000161915,0.605596025013509
26899.999999889,21.2612276747412,1.00000000164606,0.60012823766576
26999.9999998876,21.2768937774043,1.00000000165625,0.604685274337544
27099.9999998861,21.2945192115704,1.00000000159605,0.610752667760906
27199.9999998847,21.3165219623455,1.00000000171978,0.607863938082948
27299.9999998832,21.339712305019,1.00000000175257,0.611889267789171
27399.9999998818,21.3624562708716,1.00000000164974,0.603899145423031
27499.9999998803,21.3881100713817,1.00000000168808,0.605126057104928
27599.9999998789,21.4150629386339,1.00000000161491,0.592432410366462
27699.9999998774,21.4428706847021,1.00000000164615,0.5959199662128
27799.9999998759,21.474075867242,1.00000000156044,0.603175630866096
27899.9999998745,21.5061950034603,1.00000000184377,0.605312474154141
27999.999999873,21.5392490935248,1.0000000016958,0.598159091265776
28099.9999998716,21.5740371054966,1.00000000162962,0.60079442861577
28199.9999998701,21.6118956019508,1.00000000156613,0.600121884197176
28299.9999998687,21.6532466625535,1.00000000170257,0.607565275402314
28399.9999998672,21.6940311407729,1.00000000170734,0.606914626157813
28499.9999998658,21.7343620096565,1.00000000169206,0.612830037197714
28599.9999998643,21.7752618287504,1.00000000158629,0.613512594409779
28699.9999998629,21.8160545001624,1.0000000016924,0.610273095417715
28799.9999998614,21.8557002836411,1.00000000176203,0.612242558297353
28899.9999998599,21.8936047511321,1.00000000173395,0.615129451427931
28999.9999998585,21.9310165370046,1.00000000177003,0.618253368675143
