Time,AGPnorm,Energy,Entropy
0,0,1,7.82169971348143e-18
99.9999999999986,0.0120346742395387,0.999999999999682,0.0319339823070212
199.999999999993,0.0304203482657692,1.00000000000003,0.0926040420726825
300,0.0573496066106604,1.00000000002311,0.193898568857203
400.000000000022,0.0974388994474043,1.00000000093098,0.352363114441254
500.000000000045,0.320221633797529,1.00000000296843,0.489054364293161
600.000000000068,1.23180751641603,1.00000000420345,0.559981200689108
700.000000000091,2.91750853374878,1.00000000460936,0.589891169814651
800.000000000113,5.0752136443796,1.00000000419283,0.599020464723054
900.000000000136,7.32743361927469,1.00000000404478,0.594727510279668
1000.00000000016,9.28919958958343,1.00000000363863,0.584973365149131
1100.0000000001,10.8172042059386,1.00000000332066,0.572695003291179
1200,11.8109654436293,1.0000000028608,0.560830160259921
1299.99999999991,12.318946458939,1.00000000253348,0.549031914048158
1399.99999999982,12.447685531479,1.00000000240166,0.546243946920684
1499.99999999973,12.2974629516361,1.0000000030933,0.579082673428691
1599.99999999964,11.955946740087,1.00000000258799,0.52882262361214
1699.99999999955,11.5800165730227,1.00000000207214,0.479788686540318
1799.99999999946,11.1193362449329,1.00000000345833,0.569875882719965
1899.99999999937,10.6883949677277,1.00000000180037,0.438342090290931
1999.99999999928,10.2214855965618,1.00000000344594,0.536470668481138
2099.99999999919,9.80547354901883,1.00000000228635,0.486645026942127
2199.99999999909,9.40014530962131,1.00000000258345,0.471972761896036
2299.999999999,9.00407749189977,1.00000000335853,0.548176997612735
2399.99999999891,8.64772352104076,1.00000000254959,0.493928936711601
2499.99999999882,8.34145220382665,1.00000000239434,0.461093539236969
2599.99999999873,8.03878821408276,1.00000000277578,0.520214783639334
2699.99999999864,7.75232609811447,1.00000000367034,0.551383587842528
2799.99999999855,7.48923932128179,1.00000000251452,0.500875022821893
2899.99999999846,7.3028830785397,1.00000000202771,0.452818170171867
2999.99999999837,7.11287865175333,1.00000000294104,0.537273780500672
3099.99999999828,6.93223808528569,1.00000000253794,0.536913227892387
3199.99999999819,6.7498594788366,1.00000000304993,0.561327628436463
3299.99999999809,6.56627661276071,1.00000000347137,0.560627585437185
3399.999999998,6.43080961937301,1.00000000205795,0.476553004901979
3499.99999999791,6.36943776200979,1.00000000268155,0.50016212437001
3599.99999999782,6.29842884235249,1.00000000315159,0.549716807433973
3699.99999999773,6.22657163057027,1.00000000273826,0.567152901783944
3799.99999999764,6.1481545864339,1.00000000291473,0.576025746966268
3899.99999999755,6.04866674696891,1.00000000290243,0.599065786001794
3999.99999999746,5.949084053063,1.00000000303974,0.593456976155237
4099.99999999738,5.84118886607157,1.00000000337905,0.59106040111759
4199.99999999775,5.74848289254067,1.00000000220498,0.542969279151852
4299.99999999811,5.73948565040648,1.00000000206295,0.487935470049676
4399.99999999848,5.77953954743917,1.00000000313591,0.531718023005627
4499.99999999884,5.79889119325904,1.00000000304209,0.552945114845929
4599.9999999992,5.81270556659516,1.00000000308332,0.591645987075118
4699.99999999957,5.80500755590356,1.0000000033703,0.605586527016875
4799.99999999993,5.79022457280555,1.00000000295929,0.602532047068824
4900.00000000029,5.77717439247437,1.00000000309286,0.616220509294072
5000.00000000066,5.74780507103618,1.000000003277,0.607548162541091
5100.00000000102,5.70114108305229,1.00000000337278,0.618386202584795
5200.00000000139,5.64438749626384,1.00000000288016,0.620485296175124
5300.00000000175,5.58477163752762,1.0000000029511,0.624184054720801
5400.00000000211,5.52113569690149,1.00000000334303,0.630478906151045
5500.00000000248,5.45365274576112,1.00000000358018,0.606833296228829
5600.00000000284,5.40030199804336,1.00000000254389,0.563161871579464
5700.00000000321,5.41734696268422,1.00000000221058,0.518119482184528
5800.00000000357,5.50740375938236,1.00000000286518,0.534582139057041
5900.00000000393,5.60659123853515,1.0000000032267,0.559504518216667
6000.0000000043,5.68906016286879,1.00000000319591,0.577215746360095
6100.00000000466,5.76288713427549,1.00000000315311,0.594080356026673
6200.00000000502,5.82036481789964,1.00000000302142,0.614131874988982
6300.00000000539,5.86088754549553,1.00000000353312,0.634696736309676
6400.00000000575,5.88367096905669,1.00000000325172,0.634970820359381
6500.00000000612,5.89995631771423,1.00000000324907,0.639196018910463
6600.00000000648,5.90174239126679,1.00000000349673,0.646819666952513
6700.00000000684,5.90010717410718,1.00000000321402,0.63696702730237
6800.00000000721,5.9074789061781,1.00000000313069,0.641301495763516
6900.00000000757,5.9128446093223,1.00000000327376,0.631837961589013
7000.00000000793,5.9018654974756,1.00000000367144,0.631410321896271
7100.0000000083,5.89286099204329,1.00000000316432,0.644515658350851
7200.00000000866,5.8832820412779,1.00000000341847,0.652547989073662
7300.00000000903,5.86484539186597,1.00000000335942,0.661524426843957
7400.00000000939,5.8445964535852,1.00000000335324,0.64025070654897
7500.00000000975,5.82639312978346,1.00000000345036,0.639916973670301
7600.00000001012,5.79713516101532,1.00000000366093,0.65168436784585
7700.00000001048,5.75697988882248,1.00000000355954,0.670770093657379
7800.00000001084,5.70865853962852,1.00000000327622,0.665521734710703
7900.00000001121,5.65959713737163,1.00000000325826,0.670691513365862
8000.00000001157,5.60950349285216,1.00000000327879,0.671167040274765
8100.00000001194,5.5589678160385,1.00000000375328,0.682629094935651
8200.0000000123,5.50949368475405,1.00000000385325,0.677615791015094
8300.00000001266,5.45872510363012,1.00000000391619,0.639633165140122
8400.00000001303,5.41890466953134,1.00000000299568,0.592334224538181
8500.00000001339,5.42479055503581,1.0000000026309,0.560895671108867
8600.00000001376,5.5016657951778,1.00000000271923,0.549985193549559
8700.00000001412,5.63849294003305,1.00000000314021,0.552476937970636
8800.00000001448,5.79075616843732,1.00000000373574,0.568126135941193
8900.00000001485,5.93344117481338,1.00000000377497,0.579676504015966
9000.00000001521,6.06825557265803,1.00000000378333,0.584491509315539
9100.00000001557,6.1940190547371,1.00000000334556,0.589516066087983
9200.00000001594,6.30871492113128,1.00000000379516,0.610526077503652
9300.0000000163,6.40804164699359,1.00000000368411,0.619600756215312
9400.00000001667,6.49736513942903,1.00000000394331,0.643244025488834
9500.00000001703,6.56748653999953,1.00000000351089,0.645708556469627
9600.00000001739,6.6296156627294,1.00000000349996,0.638665619259794
9700.00000001776,6.68044164770149,1.00000000354977,0.646255247411229
9800.00000001812,6.71773037730661,1.00000000464068,0.660969185468269
9900.00000001848,6.74601947693273,1.00000000343181,0.669225047707538
10000.0000000188,6.78059419743872,1.00000000364797,0.662847772079274
10100.0000000192,6.81370261124941,1.00000000344981,0.661069719124291
10200.0000000196,6.83364759971561,1.00000000366116,0.679170317013899
10300.0000000199,6.85066866197479,1.00000000344953,0.681721692326231
10400.0000000203,6.86551368809888,1.0000000038705,0.681021948362364
10500.0000000207,6.87063028227164,1.00000000350783,0.680803712006087
10600.000000021,6.87181992847471,1.00000000396267,0.688031681406436
10700.0000000214,6.86674067999428,1.0000000037497,0.673279346736363
10800.0000000218,6.86096378748911,1.00000000367774,0.686465146409122
10900.0000000221,6.85465698938265,1.00000000375199,0.678665926955454
11000.0000000225,6.84635015541364,1.0000000038577,0.674169267237122
11100.0000000229,6.84437366105595,1.00000000402831,0.65988859635669
11200.0000000232,6.85296302747262,1.00000000375023,0.653465780235679
11300.0000000236,6.87478870952873,1.00000000387786,0.651084494462397
11400.0000000239,6.90786507049782,1.00000000412723,0.644980732932862
11500.0000000243,6.93923181131181,1.00000000431692,0.652881488413888
11600.0000000247,6.96665394606199,1.00000000419072,0.647398252174961
11700.000000025,6.98878984009285,1.00000000411644,0.650404082681755
11800.0000000254,7.01114721614877,1.00000000375227,0.658207148319421
11900.0000000258,7.03697809693657,1.00000000407957,0.672047446085737
12000.0000000261,7.05548955660435,1.00000000413971,0.66453771929723
12100.0000000265,7.07700130119574,1.00000000401505,0.686037442774578
12200.0000000269,7.0985991197901,1.00000000434765,0.692146874111065
12300.0000000272,7.11265174017491,1.00000000410263,0.688305934769498
12400.0000000276,7.12411354495582,1.0000000042612,0.674543215713745
12500.0000000279,7.14962201321924,1.00000000388818,0.663130357652821
12600.0000000283,7.17770059448165,1.00000000384877,0.666939546171497
12700.0000000287,7.20621288506779,1.00000000449137,0.689440408053103
12800.000000029,7.22883031997796,1.00000000437997,0.687226607175965
12900.0000000294,7.24883939478352,1.00000000387873,0.683377283558909
13000.0000000298,7.27177245028161,1.00000000415589,0.684911529175309
13100.0000000301,7.30085693504215,1.00000000413855,0.681369097905876
13200.0000000305,7.32749204084309,1.00000000409263,0.663882138578239
13300.0000000309,7.35730753737949,1.00000000393212,0.682811843730196
13400.0000000312,7.38272801364113,1.00000000448837,0.69156686987552
13500.0000000316,7.41121361275185,1.0000000041596,0.697031048532507
13600.0000000319,7.43194413764127,1.00000000425492,0.686634876952761
13700.0000000323,7.45413271197866,1.00000000405451,0.699796216352665
13800.0000000327,7.47632073851755,1.00000000426378,0.701155597972291
13900.000000033,7.49800230063688,1.00000000409435,0.697236652832937
14000.0000000334,7.50459655955111,1.00000000395294,0.692254720643261
14100.0000000338,7.51348666535547,1.0000000039881,0.679979325345116
14200.0000000341,7.52786243705717,1.00000000443484,0.692338523650733
14300.0000000345,7.5384570160168,1.00000000448126,0.69334945790362
14400.0000000349,7.54675581721147,1.00000000434236,0.689762114292348
14500.0000000352,7.55219796985535,1.00000000460533,0.702947227637081
14600.0000000356,7.55544044588285,1.00000000400269,0.684366148831253
14700.0000000359,7.55875470427819,1.00000000458648,0.701708068541221
14800.0000000363,7.56351386946886,1.00000000422575,0.688269155306928
14900.0000000367,7.56872977485091,1.00000000452087,0.686856911518575
15000.000000037,7.56326846141828,1.00000000443541,0.676282502094697
15100.0000000374,7.55327999817102,1.00000000450538,0.716386883445542
15200.0000000378,7.53982799400717,1.00000000405755,0.701190538914435
15300.0000000381,7.52477945658943,1.00000000436783,0.702564474662389
15400.0000000385,7.50314178808217,1.00000000475248,0.694135363940697
15500.0000000389,7.47673370831619,1.00000000487096,0.707683897192768
15600.0000000392,7.447500039438,1.00000000426442,0.712123929791209
15700.0000000396,7.41418567837168,1.00000000447883,0.69259466604236
15800.0000000399,7.38092030918265,1.000000004438,0.689850891120435
15900.0000000403,7.3484566517893,1.00000000453283,0.69527850098162
16000.0000000407,7.31753597160728,1.00000000520026,0.691382204527951
16100.000000041,7.2902400432244,1.0000000047477,0.698750484492451
16200.0000000414,7.26346277913314,1.00000000542045,0.705782129147283
16300.0000000418,7.24216597024026,1.00000000473191,0.706910637302721
16400.0000000418,7.22152536803129,1.00000000472991,0.70295239697921
16500.0000000404,7.20431515735158,1.00000000536171,0.699728657557197
16600.0000000389,7.18370641880516,1.00000000477341,0.682060970865826
16700.0000000375,7.16951103158467,1.00000000435308,0.667100798956315
16800.000000036,7.15744451890354,1.0000000043105,0.633368561846411
16900.0000000346,7.17094107246242,1.00000000420738,0.619240168038251
17000.0000000331,7.22295455868696,1.00000000365645,0.606461286243168
17100.0000000317,7.33686987350376,1.00000000360681,0.599535286413726
17200.0000000302,7.51181003205043,1.00000000423283,0.585959267777924
17300.0000000287,7.75967121181675,1.00000000434607,0.592596695994885
17400.0000000273,8.044494553143,1.00000000450695,0.593368649327109
17500.0000000258,8.38180082172023,1.0000000049895,0.602570272671098
17600.0000000244,8.71473686607367,1.00000000465617,0.609171640648617
17700.0000000229,9.07216490650955,1.00000000509522,0.616814711961891
17800.0000000215,9.40437598788944,1.00000000495883,0.61996802512913
17900.00000002,9.74517950301211,1.00000000505714,0.621073842750554
18000.0000000186,10.0805259485297,1.00000000490098,0.626328921639556
18100.0000000171,10.4164320267924,1.00000000453271,0.623456915920014
18200.0000000156,10.7570618382476,1.00000000488947,0.634613523391504
18300.0000000142,11.0833028081845,1.00000000481042,0.638411158898395
18400.0000000127,11.4167955158983,1.00000000499166,0.647452261836171
18500.0000000113,11.7389432439922,1.00000000516993,0.661439144445516
18600.0000000098,12.0584482396491,1.00000000533128,0.670040953494547
18700.0000000084,12.368256668924,1.00000000507814,0.68376620092134
18800.0000000069,12.6545281767924,1.00000000521463,0.688302380049973
18900.0000000055,12.9367521603722,1.0000000049137,0.694398058551794
19000.000000004,13.1907720729663,1.00000000479807,0.67847833174277
19100.0000000026,13.4348029823809,1.00000000507959,0.681132861147648
19200.0000000011,13.6515938214972,1.00000000482725,0.688891271210283
19299.9999999996,13.8690488570474,1.00000000501178,0.702588155677579
19399.9999999982,14.0740784802767,1.00000000527039,0.701070108430076
19499.9999999967,14.2676798468136,1.00000000521251,0.690545451089497
19599.9999999953,14.4577039007151,1.00000000497068,0.675966839852803
19699.9999999938,14.643710236282,1.00000000519932,0.675944815259898
19799.9999999924,14.8271845452954,1.00000000494043,0.707790433862374
19899.9999999909,15.0048702772046,1.00000000488296,0.691048824853328
19999.9999999895,15.1886254390472,1.00000000535248,0.704030075141643
20099.999999988,15.3673529763738,1.00000000540336,0.693810808395693
20199.9999999865,15.5353542841804,1.00000000513881,0.693693514405527
20299.9999999851,15.7033596353781,1.00000000528868,0.696742740057097
20399.9999999836,15.854319328636,1.00000000475282,0.704777696639701
20499.9999999822,16.0096069308706,1.00000000526171,0.71046288048657
20599.9999999807,16.1618215931662,1.00000000501697,0.719907931248462
20699.9999999793,16.3264214532795,1.00000000488132,0.711149731664026
20799.9999999778,16.5018873833212,1.00000000537062,0.721397392727568
20899.9999999764,16.6719311631608,1.0000000056167,0.707443190398613
20999.9999999749,16.8310315972754,1.00000000564131,0.711736747759718
21099.9999999734,16.9655663625818,1.00000000535096,0.723300275052577
21199.999999972,17.1006839421986,1.00000000501774,0.715338264672778
21299.9999999705,17.250402565555,1.00000000486559,0.70356990631926
21399.9999999691,17.4213177620808,1.00000000554767,0.714324496956753
21499.9999999676,17.5807639514479,1.00000000614938,0.720327056985123
21599.9999999662,17.7250851462333,1.00000000566422,0.701273308001261
21699.9999999647,17.875046268226,1.00000000517335,0.70303989061196
21799.9999999633,18.0352954186498,1.00000000530011,0.70659744626676
21899.9999999618,18.2092413060814,1.00000000468764,0.719284094026306
21999.9999999603,18.3823161447016,1.0000000053411,0.717812475611858
22099.9999999589,18.5494686744111,1.00000000560012,0.728288827338377
22199.9999999574,18.7097016494692,1.0000000052629,0.719545304125034
22299.999999956,18.8744351586546,1.00000000610131,0.701729442574492
22399.9999999545,19.0524586132703,1.00000000470408,0.694480625568714
22499.9999999531,19.229441744862,1.00000000589901,0.703048817566455
22599.9999999516,19.4031347273313,1.00000000560753,0.710177616680033
22699.9999999502,19.5555320452538,1.00000000597524,0.710986353945498
22799.9999999487,19.7041974548534,1.00000000536278,0.711473146629067
22899.9999999473,19.8566425786427,1.0000000058341,0.7187257190323
22999.9999999458,20.006689679801,1.00000000558836,0.724841982209913
23099.9999999443,20.1700699494306,1.00000000569909,0.715821450364498
23199.9999999429,20.3373114315046,1.00000000581619,0.702595717440318
23299.9999999414,20.5134701592671,1.00000000634163,0.710414814420606
23399.99999994,20.6949290928953,1.00000000585737,0.710171483352011
23499.9999999385,20.8736617354395,1.00000000554614,0.721646644852522
23599.9999999371,21.0442048016778,1.00000000645935,0.727662450128736
23699.9999999356,21.2079317673095,1.00000000593847,0.726092671662435
23799.9999999342,21.3772653257087,1.00000000564402,0.703843038145237
23899.9999999327,21.5444067924187,1.00000000544706,0.720170614680232
23999.9999999312,21.7142660000428,1.00000000549084,0.717390661177754
24099.9999999298,21.8867159543746,1.00000000592774,0.721967237048632
24199.9999999283,22.0563114421437,1.00000000614122,0.722260845768616
24299.9999999269,22.2225890304825,1.00000000527583,0.699721007611963
24399.9999999254,22.3942474752213,1.0000000057495,0.71168923530088
24499.999999924,22.5646495094974,1.00000000606933,0.725138134164275
24599.9999999225,22.7232243663485,1.00000000590513,0.710733789495065
24699.9999999211,22.8857114901477,1.00000000544464,0.696013474739458
24799.9999999196,23.0570792247425,1.00000000539156,0.711110632559523
24899.9999999181,23.2327597429814,1.00000000602247,0.696903321203623
24999.9999999167,23.4175722434957,1.00000000531189,0.706445904833166
25099.9999999152,23.6155683802922,1.00000000577707,0.715547966126206
25199.9999999138,23.8242169225567,1.00000000568411,0.717216063445292
25299.9999999123,24.0439616951376,1.00000000615915,0.720394140680354
25399.9999999109,24.2622055515412,1.00000000614025,0.72494878159945
25499.9999999094,24.4621689752786,1.00000000621585,0.726227414061123
25599.999999908,24.6620647368383,1.00000000495821,0.703180576821484
25699.9999999065,24.8647946727327,1.00000000603913,0.728391204386745
25799.9999999051,25.0639256257853,1.00000000570137,0.706068782111121
25899.9999999036,25.2721844508446,1.00000000579239,0.712522863438878
25999.9999999021,25.4844277496497,1.00000000665511,0.704146736276529
26099.9999999007,25.6930523770545,1.00000000605368,0.710025987150754
26199.9999998992,25.9164599158212,1.00000000538986,0.700163964449449
26299.9999998978,26.1610381889424,1.00000000611858,0.707172146553348
26399.9999998963,26.4087796902272,1.00000000610524,0.710396205316127
26499.9999998949,26.652240637312,1.0000000057713,0.724088285666802
26599.9999998934,26.8970627141039,1.00000000644103,0.720108841340548
26699.999999892,27.1501128704397,1.00000000600319,0.722108433182986
26799.9999998905,27.3958720384451,1.00000000649556,0.727886023980981
26899.999999889,27.6350544424505,1.0000000061586,0.717475283964218
26999.9999998876,27.8698473285685,1.00000000609059,0.719800376261437
27099.9999998861,28.1161108835719,1.00000000618584,0.70995578692741
27199.9999998847,28.3716318031496,1.00000000625558,0.698613765766596
27299.9999998832,28.632503923507,1.00000000600541,0.699588128839502
27399.9999998818,28.8988144842437,1.00000000600366,0.70597282959698
27499.9999998803,29.1638575053717,1.00000000686436,0.718246602137195
27599.9999998789,29.4140458175482,1.00000000611954,0.703611520656938
27699.9999998774,29.6710566577492,1.00000000577063,0.70918246360192
27799.9999998759,29.9375545981693,1.00000000560146,0.715174301919873
27899.9999998745,30.2116270353606,1.00000000624082,0.71553126577395
27999.999999873,30.4692534380019,1.00000000690349,0.717184992857816
28099.9999998716,30.7198304320113,1.00000000638878,0.714638712005424
28199.9999998701,30.9559535551208,1.00000000642549,0.726278492951341
28299.9999998687,31.1860842460346,1.00000000572124,0.711975810001531
28399.9999998672,31.4300312132279,1.00000000639064,0.70951065093494
28499.9999998658,31.6810877932085,1.00000000583288,0.702182325868368
28599.9999998643,31.9484914055749,1.00000000610453,0.697478328143009
28699.9999998629,32.2348544692087,1.0000000060276,0.708452325130804
28799.9999998614,32.5219036356013,1.00000000623565,0.719446516993798
28899.9999998599,32.7954733811621,1.00000000644167,0.708148004759457
28999.9999998585,33.0660805560335,1.00000000604752,0.710747526048604
29099.999999857,33.3365009560212,1.00000000615603,0.706665903565082
