Time,AGPnorm,Energy,Entropy
0,0,1,-1.81527501882848e-18
99.9999999999986,0.00227545121038368,1.00000000000044,0.00831194220382395
199.999999999993,0.00678691774885266,0.999999999999611,0.0240358555160988
300,0.0142110067732368,1.00000000000083,0.0471173702657974
400.000000000022,0.0228856881052781,0.999999999999575,0.0750792939443877
500.000000000045,0.0331561395847563,1.00000000000113,0.10959311968071
600.000000000068,0.0441983690473227,1.00000000000188,0.151277627649661
700.000000000091,0.0547319800761691,1.00000000001448,0.203490025458308
800.000000000113,0.0752356818726953,1.00000000007352,0.267710291299272
900.000000000136,0.11625972521726,1.00000000021218,0.33872395277333
1000.00000000016,0.305648264461769,1.00000000039568,0.404597527364713
1100.0000000001,0.789731007010964,1.00000000065221,0.457148549231011
1200,1.84839468737116,1.00000000076609,0.495252708966728
1299.99999999991,3.63616985364397,1.00000000090734,0.520876032730918
1399.99999999982,6.2757220567063,1.00000000090109,0.536312489159412
1499.99999999973,9.72960853028931,1.00000000099131,0.545005125187453
1599.99999999964,13.8896726667119,1.00000000093136,0.548084466063258
1699.99999999955,18.5763425156066,1.00000000097096,0.547808357147121
1799.99999999946,23.5866559032084,1.00000000088185,0.543772426735955
1899.99999999937,28.7086879893972,1.00000000090593,0.539152199699646
1999.99999999928,33.7602660644079,1.00000000086175,0.532989954874131
2099.99999999919,38.5693062914072,1.0000000008088,0.525690716462774
2199.99999999909,43.0187270362264,1.00000000077816,0.517081155995803
2299.999999999,47.00886463277,1.00000000077137,0.51634443738858
2399.99999999891,50.4910995208645,1.00000000071017,0.500803165531692
2499.99999999882,53.4085204259085,1.00000000064456,0.494814031953248
2599.99999999873,55.7986712704277,1.00000000066828,0.509540630046866
2699.99999999864,57.6654543523449,1.00000000059161,0.485234382744074
2799.99999999855,58.9527388529884,1.00000000051682,0.457567096146859
2899.99999999846,59.7623751163589,1.00000000062033,0.50291581983489
2999.99999999837,60.2744556193934,1.00000000065585,0.520222450933397
3099.99999999828,60.4398869833436,1.00000000045763,0.447126588613343
3199.99999999819,60.1216826781286,1.00000000034987,0.40919465274382
3299.99999999809,59.5215724555895,1.00000000057483,0.498917753180457
3399.999999998,58.9167470084085,1.00000000076907,0.553810544966671
3499.99999999791,58.3150201018,1.000000000588,0.497974980963272
3599.99999999782,57.4917556821161,1.0000000003021,0.360648089922787
3699.99999999773,56.3837625764207,1.00000000028002,0.354351708710749
3799.99999999764,55.195487408157,1.00000000059584,0.478697669474217
3899.99999999755,54.1032775230735,1.00000000085044,0.547367472283826
3999.99999999746,53.1685219022972,1.00000000079694,0.552448752672195
4099.99999999738,52.2938542343071,1.00000000057306,0.473754801247585
4199.99999999775,51.3217415030865,1.00000000030288,0.325701320719712
4299.99999999811,50.2369078885391,1.00000000018689,0.272215343563481
4399.99999999848,49.1367116011022,1.00000000043875,0.38683501576195
4499.99999999884,48.0656359404456,1.00000000071217,0.491676308217463
4599.9999999992,47.0487080631139,1.00000000083865,0.510164499374357
4699.99999999957,46.1215097201273,1.0000000008699,0.529555578181521
4799.99999999993,45.2892876599642,1.00000000073039,0.548651439761859
4900.00000000029,44.4975558528734,1.00000000054102,0.4881551203372
5000.00000000066,43.6813985479758,1.00000000031688,0.359248418060924
5100.00000000102,42.8633406373179,1.00000000021874,0.262304309037624
5200.00000000139,42.1216640029395,1.00000000027274,0.28066020730066
5300.00000000175,41.4668053483942,1.00000000046863,0.377673949333457
5400.00000000211,40.826110366079,1.00000000064828,0.482460814888493
5500.00000000248,40.1584623523518,1.00000000071972,0.532579225939222
5600.00000000284,39.4866891428677,1.00000000056756,0.494058558423664
5700.00000000321,38.8274854249382,1.00000000055537,0.444858844371013
5800.00000000357,38.1731073484504,1.00000000075235,0.484194414741012
5900.00000000393,37.5297932233323,1.00000000085103,0.547593886948365
6000.0000000043,36.9205005789881,1.0000000008156,0.562196252700489
6100.00000000466,36.3394914444549,1.00000000062077,0.517624631758711
6200.00000000502,35.7710506428022,1.00000000038148,0.419356436601202
6300.00000000539,35.2503926745102,1.00000000020204,0.30859435701306
6400.00000000575,34.859608585928,1.00000000016461,0.248192524475006
6500.00000000612,34.640727386376,1.00000000030703,0.275039935899523
6600.00000000648,34.5582244304525,1.00000000044189,0.353499109535852
6700.00000000684,34.5216299680303,1.00000000059477,0.438160132577189
6800.00000000721,34.4356092539608,1.00000000067141,0.492484821990853
6900.00000000757,34.2494216660888,1.00000000072257,0.509281625981789
7000.00000000793,33.9664560731215,1.0000000007217,0.524584135572655
7100.0000000083,33.6247951539059,1.00000000065724,0.539466719414815
7200.00000000866,33.2734109196342,1.00000000051042,0.509274956295838
7300.00000000903,32.9524908116142,1.00000000037169,0.455462864897042
7400.00000000939,32.6625232854271,1.00000000046695,0.453426478019452
7500.00000000975,32.3644398375533,1.00000000056814,0.482773701123743
7600.00000001012,32.0331104536178,1.00000000064299,0.498565188241882
7700.00000001048,31.6702404930801,1.0000000007076,0.49830491833259
7800.00000001084,31.2847175881604,1.00000000082171,0.518960948235745
7900.00000001121,30.8936894313835,1.00000000085395,0.553813584311122
8000.00000001157,30.5146546536567,1.00000000079427,0.564674799836976
8100.00000001194,30.1482172078395,1.00000000063206,0.540461513960516
8200.0000000123,29.7883106081346,1.00000000046187,0.479572554793928
8300.00000001266,29.4544796251785,1.00000000027942,0.394940338818933
8400.00000001303,29.2080407095758,1.00000000017621,0.319066895561483
8500.00000001339,29.1237376089947,1.00000000017393,0.266652689286761
8600.00000001376,29.25146841222,1.0000000002272,0.258373893231139
8700.00000001412,29.5894747216921,1.0000000003259,0.295446053895271
8800.00000001448,30.0777015042832,1.00000000043347,0.350022688585776
8900.00000001485,30.6093235824252,1.00000000062264,0.414196336747605
9000.00000001521,31.0875177444106,1.00000000067867,0.470077279489052
9100.00000001557,31.4627967026396,1.00000000069212,0.503917908599792
9200.00000001594,31.7232209336379,1.00000000064166,0.524261291926867
9300.0000000163,31.8729980013154,1.0000000006987,0.546088204851362
9400.00000001667,31.9316573298951,1.00000000060484,0.553282772989471
9500.00000001703,31.9321426096574,1.0000000005578,0.532930616973794
9600.00000001739,31.9004454637052,1.00000000050491,0.502491852401125
9700.00000001776,31.8351005522736,1.00000000061569,0.49613537895772
9800.00000001812,31.7188526631261,1.00000000067592,0.514244327540315
9900.00000001848,31.554929025809,1.00000000066291,0.532898504555548
10000.0000000188,31.3727390530764,1.00000000055031,0.528391075903927
10100.0000000192,31.2025436694269,1.00000000047094,0.500240838350404
10200.0000000196,31.0540300157538,1.00000000049999,0.480369926500899
10300.0000000199,30.9187844262124,1.00000000052835,0.47518599344345
10400.0000000203,30.7903367865852,1.00000000053194,0.483855916218666
10500.0000000207,30.6645608714587,1.00000000055466,0.491801085699514
10600.000000021,30.5346316410652,1.00000000057589,0.503305544102042
10700.0000000214,30.3959298262654,1.00000000056696,0.518256238281679
10800.0000000218,30.2419495236972,1.00000000058413,0.535312995833515
10900.0000000221,30.0749674847824,1.00000000052522,0.539302551538344
11000.0000000225,29.9051647959272,1.00000000048684,0.533362685968505
11100.0000000229,29.7355287198579,1.00000000045542,0.532811419112475
11200.0000000232,29.5599723654553,1.00000000051996,0.532524840090283
11300.0000000236,29.3696809990713,1.0000000005681,0.53544866192621
11400.0000000239,29.1615301286451,1.00000000064086,0.536614628425332
11500.0000000243,28.9362500562722,1.00000000068552,0.541156105651571
11600.0000000247,28.6991793564592,1.00000000071933,0.548094182311568
11700.000000025,28.4617956798387,1.00000000082251,0.551829261682335
11800.0000000254,28.2362556936708,1.00000000086918,0.560770923462074
11900.0000000258,28.0323528355702,1.00000000082594,0.56866683380898
12000.0000000261,27.8502069553391,1.00000000082103,0.571736649704242
12100.0000000265,27.6771332120165,1.00000000068639,0.561590984661235
12200.0000000269,27.4947974555847,1.0000000005462,0.532478895936314
12300.0000000272,27.2920923475611,1.00000000040739,0.488266404021048
12400.0000000276,27.0785576724625,1.00000000031979,0.434101024858633
12500.0000000279,26.8871504793553,1.00000000022851,0.376138362825011
12600.0000000283,26.7693309645176,1.00000000016468,0.325348316836604
12700.0000000287,26.7834985406095,1.00000000017136,0.291490792246642
12800.000000029,26.9815355034562,1.0000000001711,0.274269146066496
12900.0000000294,27.4009910881066,1.00000000018288,0.268470530221867
13000.0000000298,28.0469077459797,1.00000000028049,0.285578072089473
13100.0000000301,28.8767121314923,1.00000000036988,0.321464795448325
13200.0000000305,29.8366340629803,1.00000000044901,0.360608487801446
13300.0000000309,30.8536472405552,1.00000000058822,0.402553911694428
13400.0000000312,31.8458504086376,1.00000000065897,0.44041101216226
13500.0000000316,32.7645018720473,1.0000000006886,0.474176758145025
13600.0000000319,33.5866825944194,1.00000000070125,0.494984697410294
13700.0000000323,34.3029180647927,1.00000000062884,0.517358610408009
13800.0000000327,34.9088929685922,1.000000000674,0.539782618700204
13900.000000033,35.4099384120611,1.00000000066409,0.555673003934477
14000.0000000334,35.8158013492085,1.00000000060944,0.555270410999264
14100.0000000338,36.1443690550917,1.00000000059389,0.545803935260266
14200.0000000341,36.4122071862242,1.00000000057782,0.543668154401345
14300.0000000345,36.62117794251,1.00000000061969,0.56074103011134
14400.0000000349,36.7705189618503,1.0000000006122,0.572999877133727
14500.0000000352,36.8659896221635,1.00000000060173,0.5703659377027
14600.0000000356,36.9167608919384,1.00000000056148,0.559161050512919
14700.0000000359,36.927702501832,1.00000000061304,0.541569374152707
14800.0000000363,36.9093738488309,1.00000000054008,0.532488293191718
14900.0000000367,36.8764284959988,1.00000000056214,0.525657518025975
15000.000000037,36.8267944521182,1.0000000005908,0.536947756372677
15100.0000000374,36.7539834170988,1.00000000058865,0.54374292691651
15200.0000000378,36.6629009030856,1.00000000056128,0.545291832525609
15300.0000000381,36.5622602534783,1.00000000055051,0.552171183490237
15400.0000000385,36.4500416679314,1.00000000058103,0.553382150431214
15500.0000000389,36.3235537189043,1.00000000060836,0.551161078172395
15600.0000000392,36.1867408811387,1.00000000058842,0.548772676989474
15700.0000000396,36.0451302891928,1.00000000054503,0.544304579998467
15800.0000000399,35.9059922105565,1.00000000047625,0.53115031342501
15900.0000000403,35.7743809394503,1.00000000045253,0.525930521581972
16000.0000000407,35.647622767764,1.00000000053325,0.529001812483129
16100.000000041,35.5158265079208,1.0000000005908,0.529768858491061
16200.0000000414,35.3745958489555,1.00000000061185,0.534998260989453
16300.0000000418,35.2255909910245,1.00000000062624,0.538282808010314
16400.0000000418,35.067202726201,1.00000000067521,0.549468179463748
16500.0000000404,34.8987228639496,1.00000000064457,0.560361221886014
16600.0000000389,34.7241898656471,1.00000000057451,0.558966843935692
16700.0000000375,34.5508000211991,1.00000000053187,0.551348993438573
16800.000000036,34.3850143402979,1.00000000050227,0.546251353431659
16900.0000000346,34.235317312656,1.00000000046397,0.529488537671192
17000.0000000331,34.108746541222,1.00000000041577,0.5143080190765
17100.0000000317,34.0078657771037,1.00000000043758,0.496808387552431
17200.0000000302,33.9261060999827,1.00000000051557,0.486183560891916
17300.0000000287,33.853811443544,1.00000000056449,0.484804856859807
17400.0000000273,33.7856039387673,1.00000000053266,0.496536989634749
17500.0000000258,33.7229410860866,1.00000000049838,0.499540427689828
17600.0000000244,33.6688895844977,1.00000000049935,0.505748549746584
17700.0000000229,33.6192255812597,1.00000000056073,0.523045758796834
17800.0000000215,33.5703824235814,1.00000000052567,0.536910571951404
17900.00000002,33.5172340963748,1.00000000057106,0.544950443961789
18000.0000000186,33.454134200567,1.00000000062067,0.543729819733088
18100.0000000171,33.3804446299876,1.00000000057433,0.535781560180237
18200.0000000156,33.3013718648228,1.00000000056636,0.534452689542465
18300.0000000142,33.2212554278409,1.00000000053586,0.540656826696312
18400.0000000127,33.1368449406565,1.00000000057379,0.550130918882065
18500.0000000113,33.0467025802954,1.0000000005565,0.56308094408659
18600.0000000098,32.9539269353276,1.00000000051572,0.574914138895855
18700.0000000084,32.8602942610726,1.00000000057106,0.577094385591632
18800.0000000069,32.7630300480769,1.00000000058219,0.57943513758093
18900.0000000055,32.6587538250467,1.00000000058495,0.582001469230827
19000.000000004,32.546442321032,1.00000000061422,0.587072687809338
19100.0000000026,32.4254712480067,1.00000000061066,0.583678731572435
19200.0000000011,32.3006199040722,1.00000000057041,0.586232899847331
19299.9999999996,32.177315578563,1.00000000048843,0.582308621450273
19399.9999999982,32.0595265461716,1.00000000049706,0.571064840313124
19499.9999999967,31.9441057073962,1.00000000054819,0.568225281732726
19599.9999999953,31.8243316160715,1.00000000062348,0.564382570063621
19699.9999999938,31.7015276753033,1.00000000057716,0.550692141181687
19799.9999999924,31.5807979162146,1.00000000049285,0.54781545342807
19899.9999999909,31.464829659423,1.00000000050039,0.553722667460887
19999.9999999895,31.3505095674444,1.0000000005428,0.557160049967727
20099.999999988,31.2363069318097,1.00000000054167,0.559768136303232
20199.9999999865,31.1227240239098,1.00000000052773,0.564024686537688
20299.9999999851,31.0109844950367,1.00000000054267,0.569469093014457
20399.9999999836,30.8999927498432,1.0000000005585,0.561073355249195
20499.9999999822,30.7852075474907,1.00000000061815,0.562628556150134
20599.9999999807,30.6643890922491,1.0000000005885,0.571469622109481
20699.9999999793,30.5386790546417,1.00000000057224,0.564301435065513
20799.9999999778,30.4108518434003,1.0000000005761,0.554627563385402
20899.9999999764,30.2811158334541,1.00000000056603,0.559800029951082
20999.9999999749,30.1484804149814,1.00000000066094,0.579462004158871
21099.9999999734,30.013253475137,1.00000000058433,0.593046050824883
21199.999999972,29.8777661330885,1.00000000057708,0.589910300760523
21299.9999999705,29.7434261764539,1.00000000049155,0.57707437963646
21399.9999999691,29.6114276259743,1.00000000053211,0.576034040578827
21499.9999999676,29.4798749807716,1.00000000060353,0.58112884493235
21599.9999999662,29.3464738612663,1.00000000062518,0.587902882602061
21699.9999999647,29.2127053390633,1.0000000006451,0.597574480487955
21799.9999999633,29.079767433375,1.00000000052082,0.585931864107047
21899.9999999618,28.948090728575,1.00000000044563,0.567345619629984
21999.9999999603,28.8177664626765,1.00000000046874,0.573376983452097
22099.9999999589,28.6883074124537,1.00000000051418,0.583566853745575
22199.9999999574,28.559882715455,1.00000000047806,0.583008835633525
22299.999999956,28.4329573877391,1.00000000051182,0.577960704272621
22399.9999999545,28.3075929428803,1.00000000052906,0.577780022029185
22499.9999999531,28.1849689369131,1.00000000056951,0.591128938405307
22599.9999999516,28.0660495227774,1.00000000060019,0.587501219600402
22699.9999999502,27.953399940735,1.00000000061388,0.577231332680527
22799.9999999487,27.8498995308873,1.0000000006209,0.586860515531437
22899.9999999473,27.7589288250344,1.00000000065729,0.597019229755693
22999.9999999458,27.6874340172728,1.00000000068762,0.595091282212744
23099.9999999443,27.6375324158611,1.00000000072562,0.592886356757173
23199.9999999429,27.618687712171,1.00000000072508,0.600875996731961
23299.9999999414,27.6324078835096,1.00000000077068,0.606913061976245
23399.99999994,27.6913276671227,1.00000000085887,0.613000017584386
23499.9999999385,27.7952600207253,1.00000000080524,0.616184920659339
23599.9999999371,27.9498476879101,1.0000000008165,0.617460608096071
23699.9999999356,28.1543003324132,1.00000000083613,0.61382352400138
23799.9999999342,28.4064595764412,1.00000000083889,0.609644899575913
23899.9999999327,28.7108696513215,1.00000000086772,0.60234497811611
23999.9999999312,29.0445381553429,1.00000000078208,0.593564629368253
24099.9999999298,29.4055711650267,1.00000000076341,0.585076866464518
24199.9999999283,29.7534238606862,1.0000000006832,0.5785552006588
24299.9999999269,30.0827335664821,1.00000000062076,0.564598021973596
24399.9999999254,30.3560806177964,1.00000000055953,0.547704047545918
24499.999999924,30.5698614038857,1.00000000047773,0.524374470870087
24599.9999999225,30.7079955389929,1.00000000043614,0.498886493523684
24699.9999999211,30.7685666472821,1.00000000035093,0.470392119977672
24799.9999999196,30.7623313670425,1.00000000030979,0.44022421831179
24899.9999999181,30.696102010857,1.00000000027536,0.410956205929372
24999.9999999167,30.5994181911397,1.0000000002138,0.381780797846595
25099.9999999152,30.4901008895367,1.00000000021234,0.356121045662799
25199.9999999138,30.404754350516,1.00000000017453,0.332009826623764
25299.9999999123,30.3735781862644,1.00000000015958,0.308629625354514
25399.9999999109,30.432464133856,1.00000000014668,0.293346621120223
25499.9999999094,30.6126389125679,1.00000000014666,0.280147231088741
25599.999999908,30.9504005093881,1.00000000014789,0.272585276280107
25699.9999999065,31.4575083610694,1.00000000017487,0.270186489139681
25799.9999999051,32.1728587956011,1.00000000018604,0.278295519150046
25899.9999999036,33.0746372626291,1.00000000020855,0.282023133114348
25999.9999999021,34.2015163919538,1.00000000026599,0.29446426868705
26099.9999999007,35.4914903517947,1.00000000029932,0.310371070380819
26199.9999998992,36.9744550478558,1.00000000037153,0.326531655054366
26299.9999998978,38.5702358642952,1.00000000043209,0.347805074026477
26399.9999998963,40.271506884465,1.00000000049601,0.365831734418716
26499.9999998949,42.0332385913787,1.00000000053254,0.384456408065183
26599.9999998934,43.811460090776,1.00000000062865,0.401088366239612
26699.999999892,45.5923195432122,1.00000000061457,0.42123117383415
26799.9999998905,47.3239012347689,1.0000000007123,0.435425885286827
26899.999999889,49.0199544552582,1.00000000065807,0.44573184807424
26999.9999998876,50.6221388764901,1.00000000077584,0.461586381232051
27099.9999998861,52.1531183139205,1.00000000065388,0.478990631315739
27199.9999998847,53.5882872881352,1.00000000073581,0.496078124608645
27299.9999998832,54.9353044038731,1.00000000062261,0.498529737648006
27399.9999998818,56.1898069815485,1.00000000067873,0.506417570203524
27499.9999998803,57.340268395861,1.00000000071214,0.518409473062505
27599.9999998789,58.408125007778,1.00000000065938,0.532536057206461
27699.9999998774,59.3822190715621,1.00000000066011,0.542855059860929
27799.9999998759,60.2881976944085,1.00000000062044,0.545146332598705
27899.9999998745,61.1115510239165,1.00000000061555,0.547103179446313
27999.999999873,61.8639568155618,1.00000000058329,0.549982323065589
28099.9999998716,62.5454075638374,1.0000000005941,0.563695130930263
28199.9999998701,63.1577543080519,1.00000000060322,0.570964328168258
28299.9999998687,63.7184357564796,1.00000000059009,0.575687772904963
28399.9999998672,64.2209109655779,1.00000000057695,0.572985258332298
28499.9999998658,64.6821436260999,1.00000000059446,0.573208020989436
28599.9999998643,65.086450134558,1.00000000057453,0.573199666391024
28699.9999998629,65.4444204660611,1.00000000060591,0.585767014748227
28799.9999998614,65.7414402445321,1.00000000065493,0.59498299037796
28899.9999998599,65.9930925087082,1.00000000060205,0.599565138412752
28999.9999998585,66.2097708133988,1.00000000056759,0.597569738519673
29099.999999857,66.398401354661,1.00000000055136,0.587672352738514
