Time,AGPnorm,Energy,Entropy
0,0,1,-7.08186073521951e-17
99.9999999999986,0.000988267353625447,1.00000000000018,0.00319323150062026
199.999999999993,0.00635078483698297,0.999999999998095,0.00937906702884797
300,0.0129977691242579,0.999999999997497,0.0172340900628107
400.000000000022,0.0195891587987081,0.999999999999301,0.027061164032357
500.000000000045,0.0274223179599686,1.00000000000017,0.0391748125536611
600.000000000068,0.038467617101677,0.999999999998892,0.0530578696525264
700.000000000091,0.0492077232493064,0.999999999997544,0.0682283971586127
800.000000000113,0.061242923775726,0.999999999998828,0.0850943656485979
900.000000000136,0.0729613619686017,0.99999999999977,0.104371064870544
1000.00000000016,0.0865873231710796,0.999999999999685,0.126351996016472
1100.0000000001,0.0994926283827075,0.999999999998758,0.151503976456828
1200,0.113268335755809,1.00000000000414,0.180845297294552
1299.99999999991,0.126084043383024,1.0000000000289,0.216441888032132
1399.99999999982,0.136874261287942,1.0000000000932,0.257431273174712
1499.99999999973,0.156857386567226,1.00000000020669,0.30068782832376
1599.99999999964,0.219903702377351,1.00000000035834,0.341387184009433
1699.99999999955,0.349503948146318,1.00000000056009,0.37830927890192
1799.99999999946,0.584874876652118,1.00000000069682,0.411187249908257
1899.99999999937,1.02670820754259,1.00000000084017,0.44000346235525
1999.99999999928,1.77910179151065,1.00000000096939,0.464100719564943
2099.99999999919,2.87766876516945,1.00000000105368,0.485219665680476
2199.99999999909,4.34898147294978,1.00000000118537,0.503077917388515
2299.999999999,6.25315580235281,1.00000000122942,0.518514479649485
2399.99999999891,8.62689532173025,1.00000000120799,0.530612270100484
2499.99999999882,11.4292420267332,1.00000000131808,0.540895852132715
2599.99999999873,14.6107699254475,1.00000000131683,0.549353181836042
2699.99999999864,18.1496955816603,1.00000000136092,0.556390594080212
2799.99999999855,22.0075959796363,1.00000000132103,0.561149569378875
2899.99999999846,26.105904063652,1.00000000129368,0.565111438171269
2999.99999999837,30.3644796971187,1.00000000131186,0.568087493889521
3099.99999999828,34.7354251300995,1.00000000130351,0.569758817297062
3199.99999999819,39.1661370129536,1.00000000124546,0.570804209287077
3299.99999999809,43.5878001769037,1.00000000121142,0.570843640227796
3399.999999998,47.9354222512979,1.00000000119637,0.570862496596579
3499.99999999791,52.1686308985186,1.0000000012308,0.570530242957046
3599.99999999782,56.2542771633459,1.00000000113499,0.570392393700473
3699.99999999773,60.1518444296369,1.00000000108043,0.567665083821925
3799.99999999764,63.8290199278168,1.00000000106045,0.565410133898037
3899.99999999755,67.2546088315861,1.00000000102637,0.566911023570411
3999.99999999746,70.4185213729007,1.00000000099094,0.563846225366644
4099.99999999738,73.3178123084671,1.00000000092957,0.560133977399806
4199.99999999775,75.9332319078716,1.00000000093818,0.561180761654629
4299.99999999811,78.2562162842351,1.00000000097231,0.557015287592471
4399.99999999848,80.2976681607045,1.00000000087217,0.556781081255868
4499.99999999884,82.0639232009181,1.00000000089041,0.554525989526251
4599.9999999992,83.5571409789997,1.00000000083383,0.550546602429168
4699.99999999957,84.7878669254816,1.00000000084422,0.556255832789079
4799.99999999993,85.7674282232152,1.00000000079374,0.547236683885395
4900.00000000029,86.498102785369,1.00000000075875,0.549458235754227
5000.00000000066,87.0243711743813,1.00000000081308,0.560126016268008
5100.00000000102,87.3531594448593,1.00000000075667,0.537681935616352
5200.00000000139,87.4596982303402,1.00000000072499,0.542809742727625
5300.00000000175,87.4239344409347,1.00000000085909,0.567055467984242
5400.00000000211,87.263382265603,1.00000000069515,0.534654830215551
5500.00000000248,86.9175122442812,1.00000000061015,0.52003112258146
5600.00000000284,86.4591017031503,1.00000000089882,0.568323330860316
5700.00000000321,85.9650533934477,1.00000000084692,0.555359350632839
5800.00000000357,85.3622551418743,1.00000000053139,0.498617117936605
5900.00000000393,84.6241112105154,1.0000000006451,0.523463458316266
6000.0000000043,83.867849103646,1.00000000102509,0.57787124136898
6100.00000000466,83.1294007044862,1.0000000008337,0.544383011784574
6200.00000000502,82.3167640797771,1.00000000047242,0.473351805542085
6300.00000000539,81.4027736901599,1.00000000060615,0.498927579983349
6400.00000000575,80.4897079015051,1.00000000099703,0.5713445355197
6500.00000000612,79.6296840849127,1.00000000099802,0.563024496618604
6600.00000000648,78.7662125982276,1.00000000060079,0.481262812657782
6700.00000000684,77.831347788912,1.00000000043166,0.440722206412876
6800.00000000721,76.8596333607003,1.00000000078891,0.513179635811546
6900.00000000757,75.9230694584544,1.00000000109967,0.568911980379567
7000.00000000793,75.0420229576469,1.00000000100229,0.553923904891648
7100.0000000083,74.1719544257871,1.00000000065357,0.476309413885382
7200.00000000866,73.2677199267146,1.00000000044655,0.425216372273326
7300.00000000903,72.3397548740001,1.00000000063758,0.465187960760375
7400.00000000939,71.4261598158971,1.00000000097015,0.536869302473381
7500.00000000975,70.5532931750951,1.00000000109071,0.558958956687014
7600.00000001012,69.7169328862457,1.00000000089555,0.528225079568815
7700.00000001048,68.890042381771,1.00000000067604,0.469539977023604
7800.00000001084,68.0571795709131,1.00000000051668,0.43107406663176
7900.00000001121,67.2231734095239,1.00000000060745,0.449808211048023
8000.00000001157,66.3992149957749,1.00000000079684,0.500015469706234
8100.00000001194,65.5962745975546,1.00000000094978,0.536468498004283
8200.0000000123,64.8196848923038,1.00000000103518,0.539880614999127
8300.00000001266,64.0647591535726,1.00000000084509,0.515754086079298
8400.00000001303,63.3227893592486,1.00000000063883,0.471286564573548
8500.00000001339,62.5930993531548,1.00000000060223,0.450018113927313
8600.00000001376,61.8790700503293,1.00000000064661,0.459616128916695
8700.00000001412,61.1809172575307,1.00000000069671,0.479876540222719
8800.00000001448,60.4986796540003,1.00000000078544,0.498785124373151
8900.00000001485,59.8307971875603,1.00000000084725,0.518389339883748
9000.00000001521,59.1752664132603,1.00000000099845,0.533673751767659
9100.00000001557,58.5327448810089,1.00000000092041,0.529674416315146
9200.00000001594,57.9065361603834,1.00000000066665,0.491014713712874
9300.0000000163,57.3018881564326,1.00000000054136,0.459188676289191
9400.00000001667,56.720512021574,1.00000000067631,0.466522860155615
9500.00000001703,56.1579448267441,1.00000000074377,0.480664068171306
9600.00000001739,55.6091694272065,1.00000000078466,0.497935753951126
9700.00000001776,55.0775561731874,1.00000000066919,0.488219262283891
9800.00000001812,54.5638801910812,1.00000000066278,0.493165551729107
9900.00000001848,54.0611525455824,1.00000000084855,0.517047241423684
10000.0000000188,53.5601718065363,1.00000000100883,0.536258062589284
10100.0000000192,53.0597097562659,1.00000000095269,0.534438319500879
10200.0000000196,52.5707395571321,1.00000000066652,0.5028716401383
10300.0000000199,52.1060349897583,1.00000000057251,0.469077813650708
10400.0000000203,51.6704060416146,1.00000000063602,0.461659396227421
10500.0000000207,51.2546533464053,1.00000000074622,0.473909377034537
10600.000000021,50.84725188518,1.00000000088889,0.490182640027501
10700.0000000214,50.444946834037,1.00000000087458,0.507011873900375
10800.0000000218,50.0547531597181,1.00000000071507,0.500228642008006
10900.0000000221,49.6833676802477,1.0000000006335,0.486552816721262
11000.0000000225,49.3278056539462,1.00000000071202,0.499753335635072
11100.0000000229,48.9775824663556,1.00000000087116,0.519270288137729
11200.0000000232,48.6228206360754,1.0000000009562,0.530839295150366
11300.0000000236,48.2614568203501,1.00000000098265,0.539461669839453
11400.0000000239,47.9009722937355,1.00000000083032,0.527372009891138
11500.0000000243,47.5543339671959,1.00000000068763,0.504559040162024
11600.0000000247,47.2321276818256,1.00000000063597,0.481925724721383
11700.000000025,46.9364751708238,1.00000000065703,0.480801272065236
11800.0000000254,46.6618816920245,1.00000000069106,0.482333625522139
11900.0000000258,46.3991329617373,1.0000000007679,0.495355212621551
12000.0000000261,46.1413739488206,1.00000000078577,0.501249688601804
12100.0000000265,45.8884699543936,1.00000000077857,0.49936667274216
12200.0000000269,45.64068865647,1.00000000083328,0.514483834537193
12300.0000000272,45.3987976012242,1.00000000079898,0.525548410098782
12400.0000000276,45.1629284527437,1.00000000071616,0.527202549828049
12500.0000000279,44.9313273527011,1.00000000071086,0.532838407081858
12600.0000000283,44.7036050851136,1.0000000007187,0.53222629661796
12700.0000000287,44.4798892236245,1.00000000079955,0.525668434648835
12800.000000029,44.2565705778431,1.00000000085111,0.530621177933999
12900.0000000294,44.0278436462915,1.00000000093576,0.539769201102855
13000.0000000298,43.792567586309,1.0000000009197,0.54338296961284
13100.0000000301,43.5641286364904,1.00000000072632,0.528082016712284
13200.0000000305,43.3563173558789,1.00000000062996,0.508370185979119
13300.0000000309,43.1748665466665,1.00000000062794,0.489302233956341
13400.0000000312,43.0126675454231,1.00000000072097,0.495480333382344
13500.0000000316,42.8589966710444,1.00000000076792,0.507292468450481
13600.0000000319,42.7100814707675,1.00000000078876,0.50334006751302
13700.0000000323,42.5698303584855,1.00000000070307,0.499285570342559
13800.0000000327,42.4396436433,1.00000000072084,0.506846016100633
13900.000000033,42.3217969818991,1.00000000070299,0.508301770358284
14000.0000000334,42.2135996873458,1.00000000074314,0.511449428991576
14100.0000000338,42.1044925036918,1.000000000797,0.528451238656798
14200.0000000341,41.9839342543204,1.00000000089811,0.544119685836974
14300.0000000345,41.8490358983158,1.00000000088508,0.554335134807625
14400.0000000349,41.7041132473425,1.00000000080747,0.557816646114816
14500.0000000352,41.5557266648266,1.00000000074759,0.558561747116641
14600.0000000356,41.4119165956643,1.00000000069165,0.548874544923331
14700.0000000359,41.2769353411588,1.00000000071789,0.541503562224679
14800.0000000363,41.1473699988365,1.00000000078694,0.535175855496887
14900.0000000367,41.0180220742383,1.00000000083664,0.533660031482729
15000.000000037,40.8842457421078,1.00000000089531,0.541852108421234
15100.0000000374,40.7435080296143,1.00000000093748,0.549081023347889
15200.0000000378,40.6007278394088,1.00000000082752,0.551973539927196
15300.0000000381,40.4658844660307,1.00000000072655,0.541358772094388
15400.0000000385,40.3484687985241,1.00000000065572,0.527278425920155
15500.0000000389,40.2514038678022,1.00000000067689,0.513591279912287
15600.0000000392,40.1722989389454,1.00000000069036,0.510443788124772
15700.0000000396,40.1072033299441,1.00000000072918,0.509147123860344
15800.0000000399,40.0473687182133,1.000000000808,0.511204553501351
15900.0000000403,39.9878831532079,1.00000000080598,0.511339062937405
16000.0000000407,39.9324433653127,1.0000000007372,0.507419300425239
16100.000000041,39.8869547540174,1.00000000069402,0.508939129388691
16200.0000000414,39.8494651810514,1.00000000073432,0.52118100168323
16300.0000000418,39.8141587311298,1.00000000081028,0.537138072799161
16400.0000000418,39.7781405668636,1.00000000080459,0.548466334637376
16500.0000000404,39.742005977038,1.00000000078069,0.549466351939685
16600.0000000389,39.7087198167104,1.00000000077533,0.550672476014939
16700.0000000375,39.6767190520961,1.00000000070032,0.547285635894586
16800.000000036,39.6411929467195,1.00000000077681,0.54822689386996
16900.0000000346,39.5971390807494,1.00000000084561,0.556353152574683
17000.0000000331,39.5409059421173,1.00000000086605,0.556088133555053
17100.0000000317,39.4698790440698,1.00000000091298,0.55508203491023
17200.0000000302,39.3856528446387,1.0000000009156,0.562482568607701
17300.0000000287,39.2917617830678,1.00000000080711,0.571073916587148
17400.0000000273,39.1934422916868,1.00000000070193,0.568678465763021
17500.0000000258,39.0975849962838,1.00000000072809,0.560968810007425
17600.0000000244,39.0097920597541,1.00000000069126,0.550401014062182
17700.0000000229,38.9299432250141,1.00000000069918,0.54163099810443
17800.0000000215,38.85477705585,1.00000000081786,0.538638581178673
17900.00000002,38.7803944590406,1.00000000080442,0.536531188704172
18000.0000000186,38.7035542113556,1.00000000090001,0.546131927968649
18100.0000000171,38.6229148655295,1.00000000092479,0.55619225777234
18200.0000000156,38.5374946896332,1.00000000085882,0.558509849958661
18300.0000000142,38.453672840987,1.00000000075998,0.558891976296001
18400.0000000127,38.3807771815694,1.00000000071638,0.551887914409239
18500.0000000113,38.324062980158,1.00000000066461,0.543255733292292
18600.0000000098,38.2844940075413,1.00000000071194,0.535009231408833
18700.0000000084,38.2606878885687,1.00000000069736,0.52224309768331
18800.0000000069,38.2464949214914,1.00000000079259,0.521485370191197
18900.0000000055,38.2365014625284,1.00000000083978,0.525913528964943
19000.000000004,38.2302473847673,1.00000000076823,0.526694011986519
19100.0000000026,38.2301859177047,1.00000000073171,0.517790675901473
19200.0000000011,38.2366956824109,1.00000000073921,0.513289760718559
19299.9999999996,38.2477865638008,1.00000000077207,0.513922483683445
19399.9999999982,38.2631122937867,1.00000000078583,0.514916628027233
19499.9999999967,38.2837028067911,1.00000000072542,0.509405620015372
19599.9999999953,38.3073829975462,1.00000000075627,0.517488291622737
19699.9999999938,38.3305024149723,1.00000000082378,0.536893772638814
19799.9999999924,38.3478556132832,1.00000000083239,0.551464239098289
19899.9999999909,38.3594162771551,1.00000000085669,0.55607766847525
19999.9999999895,38.3659535112176,1.00000000080067,0.55985404943573
20099.999999988,38.3708834130538,1.00000000073967,0.558981977723471
20199.9999999865,38.3774022980583,1.0000000007732,0.561359375898803
20299.9999999851,38.3831562920093,1.00000000080393,0.565605920900798
20399.9999999836,38.3838733255758,1.00000000082645,0.574292979606607
20499.9999999822,38.3788492668998,1.00000000079301,0.584284674792535
20599.9999999807,38.3693145415479,1.00000000078975,0.590145621192168
20699.9999999793,38.3548766347971,1.00000000077912,0.588670455902002
20799.9999999778,38.332787884998,1.00000000076945,0.585252275654634
20899.9999999764,38.3048344096326,1.00000000076759,0.582189983149601
20999.9999999749,38.2724628605123,1.00000000077596,0.578905527474332
21099.9999999734,38.2331039898564,1.00000000084147,0.573684967871739
21199.999999972,38.1851957517208,1.00000000084684,0.564903245282686
21299.9999999705,38.1277449254409,1.00000000089135,0.568013636822608
21399.9999999691,38.0601319268257,1.00000000083842,0.577663847543596
21499.9999999676,37.9845200110942,1.00000000084368,0.582713805186901
21599.9999999662,37.9044180635909,1.00000000080784,0.583531132010196
21699.9999999647,37.8240258022569,1.00000000071623,0.580858434504514
21799.9999999633,37.7466612500338,1.00000000073266,0.578962627762291
21899.9999999618,37.6744775963884,1.00000000071044,0.576673216317719
21999.9999999603,37.6078387062729,1.00000000074465,0.575416045516853
22099.9999999589,37.5455534501644,1.00000000076993,0.572200968621384
22199.9999999574,37.4867913099817,1.00000000074421,0.565112557111504
22299.999999956,37.4302624390057,1.00000000079926,0.566290663227887
22399.9999999545,37.3753013062765,1.00000000081381,0.563542024280336
22499.9999999531,37.3202842844825,1.00000000087034,0.56216658640947
22599.9999999516,37.2644076223192,1.00000000089913,0.557796237473305
22699.9999999502,37.2061103989518,1.00000000087487,0.556437744916411
22799.9999999487,37.1466406093409,1.00000000086901,0.560225710098078
22899.9999999473,37.0911195452814,1.00000000083108,0.562187552076135
22999.9999999458,37.0445806328211,1.00000000070987,0.559069214333962
23099.9999999443,37.0109488271742,1.00000000067241,0.557340914035395
23199.9999999429,36.9913031762104,1.00000000072959,0.552179130486996
23299.9999999414,36.983939857807,1.00000000070259,0.547208132949102
23399.99999994,36.9873892982796,1.00000000072854,0.544811054290556
23499.9999999385,36.9987006354831,1.00000000076617,0.538897072566072
23599.9999999371,37.0137726359132,1.00000000079383,0.536027784663957
23699.9999999356,37.0329722760785,1.00000000081605,0.532518615054183
23799.9999999342,37.0580057232491,1.00000000078881,0.529397185088902
23899.9999999327,37.089673183449,1.00000000075689,0.527446157596002
23999.9999999312,37.125339884201,1.00000000076925,0.529406625105864
24099.9999999298,37.1653314691029,1.00000000080754,0.529915594204975
24199.9999999283,37.2110765690464,1.00000000075407,0.52839973250514
24299.9999999269,37.2615447062469,1.00000000076993,0.526789004921898
24399.9999999254,37.3143512276668,1.00000000079706,0.531905514641089
24499.999999924,37.3659710460709,1.00000000086896,0.541406215367449
24599.9999999225,37.4146817681636,1.00000000088479,0.553807032007543
24699.9999999211,37.4594750969294,1.00000000082786,0.562812044394236
24799.9999999196,37.5014979071688,1.00000000084328,0.571584409140778
24899.9999999181,37.5403044452828,1.00000000084813,0.576239303121097
24999.9999999167,37.5745763615573,1.00000000086556,0.581527446463973
25099.9999999152,37.6041604360454,1.00000000080049,0.586426567665117
25199.9999999138,37.6304377170045,1.00000000086729,0.587800158923563
25299.9999999123,37.6543436397227,1.00000000081918,0.588873673715006
25399.9999999109,37.6768876682408,1.00000000081538,0.594994074189945
25499.9999999094,37.698412165032,1.00000000082406,0.598132508941946
25599.999999908,37.7179305580083,1.00000000079029,0.598630920050244
25699.9999999065,37.7357979003867,1.00000000082966,0.594616360354777
25799.9999999051,37.7518926089936,1.00000000085858,0.596576057108112
25899.9999999036,37.7630037064945,1.00000000084776,0.594455504569728
25999.9999999021,37.7678329503645,1.00000000085744,0.601557105840208
26099.9999999007,37.7678778584053,1.00000000087983,0.6117272565901
26199.9999998992,37.7638532699831,1.00000000084667,0.608991334187347
26299.9999998978,37.7575652230793,1.00000000084046,0.607586601565369
26399.9999998963,37.7483589284185,1.00000000079185,0.606795463204737
26499.9999998949,37.7366820168062,1.00000000082552,0.607542380477921
26599.9999998934,37.7242500178082,1.00000000079906,0.602367217727649
26699.999999892,37.7105011778064,1.00000000081275,0.592414521565184
26799.9999998905,37.693442573313,1.00000000084224,0.59067340914237
26899.999999889,37.672278039607,1.00000000085169,0.584684320510312
26999.9999998876,37.6467662535321,1.00000000083922,0.589078875225325
27099.9999998861,37.6155534078668,1.00000000091401,0.599966605851573
27199.9999998847,37.5792226355204,1.00000000085528,0.599308993127102
27299.9999998832,37.5412181686437,1.00000000078878,0.602745931548239
27399.9999998818,37.5036203841417,1.00000000080786,0.604508667541049
27499.9999998803,37.4672744233871,1.00000000078945,0.602031831699817
27599.9999998789,37.4307007424095,1.00000000079694,0.606460883325395
27699.9999998774,37.3918156084703,1.00000000080518,0.612111814451357
27799.9999998759,37.3498642809995,1.00000000080679,0.608129512222506
27899.9999998745,37.3063535333017,1.00000000081561,0.603182581144617
27999.999999873,37.2608134352727,1.00000000081334,0.6027574874216
28099.9999998716,37.2113348308303,1.00000000085404,0.604470230568633
28199.9999998701,37.1588498247451,1.00000000082867,0.606204939189491
28299.9999998687,37.1027204230643,1.00000000080905,0.607317840340392
28399.9999998672,37.0434186837192,1.00000000089865,0.609539373053676
28499.9999998658,36.9794429093349,1.00000000090432,0.60969375768366
28599.9999998643,36.9111023613376,1.00000000084618,0.612895725533636
28699.9999998629,36.8391775338499,1.00000000089919,0.618309882654971
28799.9999998614,36.7649047750783,1.00000000085439,0.622382201432047
28899.9999998599,36.6885916629962,1.00000000084447,0.625244360838151
28999.9999998585,36.6115530098542,1.00000000080001,0.622067488592233
