Time,AGPnorm,Energy,Entropy
0,0,1,-1.30739844186946e-17
99.9999999999986,7.7888466445583e-06,1.00000000000073,0.000391985751169829
199.999999999993,0.000686371514483716,1.00000000000028,0.000614288283290935
300,0.00173880788559026,1.00000000000026,0.00110018748575416
400.000000000022,0.00241072902341998,1.00000000000075,0.00189771712458546
500.000000000045,0.00292591982750457,0.999999999999997,0.00254988199463976
600.000000000068,0.00420296967910006,1.00000000000066,0.00360036078239281
700.000000000091,0.00519383315677807,1.00000000000039,0.00461403649095324
800.000000000113,0.00668448383625937,1.00000000000017,0.00571457694885988
900.000000000136,0.00838120756243307,1.00000000000079,0.00706967737282129
1000.00000000016,0.00982057104880667,1.00000000000002,0.00831526043546834
1100.0000000001,0.0118880322732666,1.00000000000058,0.00980983170763755
1200,0.0139237784796496,1.00000000000051,0.01133362689521
1299.99999999991,0.0160691953892462,1.00000000000008,0.0128845407351122
1399.99999999982,0.018467344165034,1.0000000000008,0.0146512013405775
1499.99999999973,0.0208458297764565,1.00000000000008,0.0163426973650005
1599.99999999964,0.0237410873726442,1.00000000000049,0.0182020630290752
1699.99999999955,0.0266557016255733,1.00000000000061,0.020131267911114
1799.99999999946,0.0294816562997568,1,0.022058850656214
1899.99999999937,0.0325697238771822,1.00000000000079,0.0241692709797317
1999.99999999928,0.0357589019997086,1.00000000000018,0.0262415406028905
2099.99999999919,0.039324769718747,1.00000000000038,0.0284347681458472
2199.99999999909,0.0429607340963327,1.00000000000068,0.0307166224262734
2299.999999999,0.0465171880008752,0.999999999999956,0.0329846260314874
2399.99999999891,0.0503258992626707,1.00000000000076,0.0354107615667998
2499.99999999882,0.0542055573972364,1.0000000000003,0.0378357253470163
2599.99999999873,0.0582490025428598,1.00000000000026,0.04035386989254
2699.99999999864,0.0624211628623626,1.00000000000074,0.0429664976679567
2799.99999999855,0.0666793628909203,0.999999999999956,0.0455693219183407
2899.99999999846,0.0711680093870071,1.0000000000007,0.0483107485189539
2999.99999999837,0.0756551980884544,1.00000000000042,0.0510855444778467
3099.99999999828,0.0800797167106823,1.00000000000014,0.0539300938207218
3199.99999999819,0.0846693426378361,1.00000000000079,0.0568798374071703
3299.99999999809,0.0894749450413705,1.00000000000002,0.0598349206862157
3399.999999998,0.0944836920526927,1.00000000000059,0.062919154519617
3499.99999999791,0.0994539730436742,1.00000000000049,0.0660599724105284
3599.99999999782,0.104290480808676,1.00000000000003,0.0692549152575203
3699.99999999773,0.109265414965588,1.00000000000085,0.0725751003925265
3799.99999999764,0.114445682894885,1.00000000000014,0.0759188121737304
3899.99999999755,0.119734475972919,1.00000000000045,0.079397321567647
3999.99999999746,0.125005984302182,1.00000000000056,0.0829447562917184
4099.99999999738,0.130273494847643,0.999999999999935,0.0865515589375682
4199.99999999775,0.135609216649083,1.00000000000089,0.0903054417683877
4299.99999999811,0.141053613019578,1.00000000000027,0.0941117956427219
4399.99999999848,0.146422856934614,1.00000000000034,0.0980542672176332
4499.99999999884,0.15184894208355,1.00000000000066,0.102099708441378
4599.9999999992,0.157433753360098,0.999999999999918,0.106227049274317
4699.99999999957,0.163057755468498,1.00000000000083,0.110532689164545
4799.99999999993,0.168657227038104,1.00000000000034,0.114935810798833
4900.00000000029,0.174071988612074,1.00000000000025,0.119482272330863
5000.00000000066,0.179603355777609,1.0000000000008,0.124191923634028
5100.00000000102,0.185315440701222,1.00000000000005,0.129034784485403
5200.00000000139,0.191092286330681,1.00000000000069,0.134115673349959
5300.00000000175,0.196687595114565,1.00000000000048,0.139358658389463
5400.00000000211,0.20219390039067,1.00000000000028,0.144800211718916
5500.00000000248,0.207853214654247,1.00000000000119,0.150501256077617
5600.00000000284,0.213502932998793,1.00000000000064,0.15642308631288
5700.00000000321,0.21933662431288,1.00000000000124,0.162663887980104
5800.00000000357,0.224827062514456,1.00000000000162,0.169175132632488
5900.00000000393,0.230426119884952,1.00000000000175,0.175961903973986
6000.0000000043,0.236563073049533,1.00000000000362,0.183096283640124
6100.00000000466,0.242019439048671,1.00000000000415,0.190493675410734
6200.00000000502,0.248532705542366,1.00000000000579,0.198179498509503
6300.00000000539,0.254772249561722,1.00000000000821,0.206128097903962
6400.00000000575,0.2612474099424,1.00000000000989,0.21425436770205
6500.00000000612,0.270586966875337,1.00000000001385,0.222635237907973
6600.00000000648,0.278461891118548,1.00000000001672,0.231070938924413
6700.00000000684,0.290667601723566,1.00000000002071,0.239568184870812
6800.00000000721,0.305683759316395,1.0000000000258,0.24811632503266
6900.00000000757,0.322586102065701,1.00000000003074,0.256606604885841
7000.00000000793,0.35029750852131,1.00000000003607,0.265153941327616
7100.0000000083,0.380592348430188,1.00000000004154,0.273549653008422
7200.00000000866,0.424181167947649,1.00000000004818,0.281819056482675
7300.00000000903,0.483155234346512,1.00000000005373,0.289984900628265
7400.00000000939,0.553060842824738,1.00000000006066,0.298009154001321
7500.00000000975,0.652029621214517,1.00000000006658,0.305905052471957
7600.00000001012,0.770604309883347,1.00000000007523,0.313633862180209
7700.00000001048,0.921510351418188,1.00000000008112,0.321199346137393
7800.00000001084,1.11462541322207,1.00000000009116,0.32860978402089
7900.00000001121,1.34146084482794,1.00000000009568,0.335900705221404
8000.00000001157,1.62773643541403,1.00000000010403,0.342966287108444
8100.00000001194,1.96703062056595,1.00000000010554,0.349936259112809
8200.0000000123,2.36950714564596,1.00000000011909,0.356674009839768
8300.00000001266,2.85394266400483,1.00000000012543,0.363327181667343
8400.00000001303,3.40945202678327,1.00000000012804,0.36982594421238
8500.00000001339,4.06382768073619,1.00000000013638,0.37609220394999
8600.00000001376,4.81665741279325,1.00000000014284,0.382210533407919
8700.00000001412,5.67261191422925,1.00000000015012,0.38820330267154
8800.00000001448,6.65670722833112,1.00000000016097,0.3940032905834
8900.00000001485,7.75820265629361,1.00000000015852,0.399732929607909
9000.00000001521,9.00109753527825,1.00000000016867,0.405190170412938
9100.00000001557,10.3907221743116,1.00000000017938,0.410528441445958
9200.00000001594,11.9269843883805,1.00000000017834,0.415798153139963
9300.0000000163,13.6354723317497,1.00000000019167,0.420792639672408
9400.00000001667,15.508101881699,1.00000000018772,0.425754458096411
9500.00000001703,17.5615356464812,1.00000000019249,0.430503605765903
9600.00000001739,19.8041383392788,1.00000000020781,0.435109076099896
9700.00000001776,22.2337185064954,1.00000000020285,0.439658837905251
9800.00000001812,24.8707662969069,1.00000000020978,0.443956802931116
9900.00000001848,27.7103262164615,1.00000000020591,0.448217359255769
10000.0000000188,30.7622574252279,1.00000000021207,0.45231241207835
10100.0000000192,34.0342772056616,1.00000000022529,0.456173224520723
10200.0000000196,37.5240549931994,1.00000000021975,0.460094689386196
10300.0000000199,41.2444309352145,1.00000000022299,0.463784796424731
10400.0000000203,45.1912564277983,1.00000000021933,0.467380785415659
10500.0000000207,49.3711728912986,1.00000000023553,0.470846402635181
10600.000000021,53.7880484013468,1.00000000023364,0.474121000634605
10700.0000000214,58.4391322277855,1.00000000023378,0.477434448026707
10800.0000000218,63.3312940268055,1.00000000024009,0.480506010391593
10900.0000000221,68.4584627640736,1.00000000023193,0.48358387037283
11000.0000000225,73.8260889900463,1.00000000024388,0.486518744806844
11100.0000000229,79.4331387170425,1.00000000024839,0.489228832320278
11200.0000000232,85.2753084300808,1.00000000026009,0.491882717039135
11300.0000000236,91.3571594112042,1.00000000024567,0.49460223192696
11400.0000000239,97.6674972254819,1.00000000024752,0.497080946637286
11500.0000000243,104.212637681941,1.00000000024937,0.499554680823599
11600.0000000247,110.986835339068,1.00000000025511,0.501842460983487
11700.000000025,117.982871766068,1.00000000025374,0.503969566770646
11800.0000000254,125.205821996989,1.00000000025465,0.506314407929548
11900.0000000258,132.63926694998,1.00000000025056,0.508215865836201
12000.0000000261,140.289904585348,1.00000000024851,0.510174468198297
12100.0000000265,148.14881142273,1.00000000024947,0.512266470150519
12200.0000000269,156.204473672857,1.00000000024637,0.513924485476219
12300.0000000272,164.464959205305,1.00000000025909,0.515665068496348
12400.0000000276,172.909777272299,1.00000000025044,0.517386717968828
12500.0000000279,181.543295373712,1.00000000025393,0.518783767041286
12600.0000000283,190.357526580797,1.00000000025526,0.52043524305242
12700.0000000287,199.336129680188,1.00000000025459,0.521860751773879
12800.000000029,208.490159292189,1.00000000024912,0.523158250520825
12900.0000000294,217.796499184189,1.00000000024921,0.524581907260555
13000.0000000298,227.255194600391,1.00000000025398,0.525663706236106
13100.0000000301,236.863974730401,1.00000000025416,0.526848281396757
13200.0000000305,246.5992479442,1.00000000024745,0.528123966624628
13300.0000000309,256.474806377021,1.00000000024589,0.529041668975334
13400.0000000312,266.468539143931,1.00000000025485,0.530101319421078
13500.0000000316,276.57473536087,1.00000000025561,0.53088069773703
13600.0000000319,286.797334217172,1.00000000024894,0.531860458371677
13700.0000000323,297.107077770948,1.0000000002489,0.532809509621677
13800.0000000327,307.51810519291,1.00000000024502,0.533369339424759
13900.000000033,318.012845807781,1.00000000025533,0.534213876969265
14000.0000000334,328.57799239003,1.0000000002444,0.534958595012664
14100.0000000338,339.224175758653,1.00000000024757,0.535503860631114
14200.0000000341,349.919781651972,1.00000000024349,0.53629490589204
14300.0000000345,360.677244509306,1.00000000025215,0.536543099702004
14400.0000000349,371.48352308036,1.00000000025189,0.537046891667277
14500.0000000352,382.319086141949,1.00000000024699,0.537817971631246
14600.0000000356,393.200786863822,1.00000000024336,0.538188285120708
14700.0000000359,404.09759304711,1.00000000024154,0.538416036182117
14800.0000000363,415.015063096462,1.00000000024473,0.53886979171188
14900.0000000367,425.950211937503,1.00000000023945,0.539114299631968
15000.000000037,436.877925807503,1.00000000023907,0.539431327618433
15100.0000000374,447.81470201305,1.00000000023436,0.539961458538813
15200.0000000378,458.737856693925,1.00000000023405,0.540158857325964
15300.0000000381,469.644098305513,1.00000000023728,0.539965159454524
15400.0000000385,480.537337707176,1.00000000022914,0.540193641408482
15500.0000000389,491.39093872799,1.00000000023409,0.54057246189045
15600.0000000392,502.220597781656,1.00000000023369,0.540639586330477
15700.0000000396,513.009198289846,1.00000000022476,0.54091853646012
15800.0000000399,523.7462783662,1.00000000022881,0.540945315734788
15900.0000000403,534.444377301759,1.00000000022507,0.540786064833528
16000.0000000407,545.074684459371,1.00000000022678,0.54073751410073
16100.000000041,555.649569106909,1.00000000022755,0.540848116530837
16200.0000000414,566.1607114452,1.00000000022176,0.541064538954398
16300.0000000418,576.591694415155,1.0000000002185,0.541164942663856
16400.0000000418,586.958469768903,1.00000000022294,0.541048325319018
16500.0000000404,597.235074568217,1.00000000022127,0.54068228800004
16600.0000000389,607.431420338622,1.00000000021414,0.540754061897082
16700.0000000375,617.542831302451,1.00000000020716,0.540550484630837
16800.000000036,627.551560111284,1.00000000022027,0.540938987570015
16900.0000000346,637.474998733384,1.00000000021211,0.540534309404321
17000.0000000331,647.290984046956,1.00000000021084,0.540752688966203
17100.0000000317,657.00430808347,1.00000000021495,0.540234157421457
17200.0000000302,666.616055550359,1.00000000021409,0.540192116711452
17300.0000000287,676.108384602581,1.00000000020336,0.539834609961536
17400.0000000273,685.49365703897,1.00000000021167,0.539725429908057
17500.0000000258,694.760510981977,1.00000000021086,0.539535119524723
17600.0000000244,703.903292819394,1.00000000020596,0.539516754752982
17700.0000000229,712.931683023782,1.00000000020564,0.539189751031274
17800.0000000215,721.824554246261,1.00000000020682,0.539095920425225
17900.00000002,730.596667311239,1.00000000020425,0.538616744856781
18000.0000000186,739.237781510783,1.00000000019652,0.538420536173207
18100.0000000171,747.740710338109,1.00000000019814,0.538093453895429
18200.0000000156,756.116996096588,1.00000000020079,0.537821760914588
18300.0000000142,764.349144760978,1.00000000019905,0.537731343767405
18400.0000000127,772.446933885089,1.00000000019375,0.537509207583328
18500.0000000113,780.406690132888,1.00000000019291,0.537394783405225
18600.0000000098,788.217688480632,1.00000000019516,0.536987030645207
18700.0000000084,795.893374477041,1.00000000019001,0.53665332638895
18800.0000000069,803.418032672147,1.00000000018689,0.536108237787809
18900.0000000055,810.798243324527,1.00000000018692,0.53584632793363
19000.000000004,818.036361208542,1.00000000019245,0.535559094871436
19100.0000000026,825.119446848146,1.00000000018962,0.535564911538113
19200.0000000011,832.061550555105,1.00000000018061,0.535264678440778
19299.9999999996,838.849191614037,1.00000000017944,0.535052993314742
19399.9999999982,845.486437484188,1.00000000018301,0.534761396526573
19499.9999999967,851.977869794084,1.0000000001795,0.534121503209537
19599.9999999953,858.311258418179,1.00000000017829,0.533912208641686
19699.9999999938,864.49968040377,1.00000000017821,0.533334283275805
19799.9999999924,870.534845357514,1.0000000001772,0.533397694401373
19899.9999999909,876.41653381136,1.00000000017483,0.533193610382398
19999.9999999895,882.151664982152,1.00000000017224,0.532974949337272
20099.999999988,887.728742557785,1.00000000017226,0.532821887073567
20199.9999999865,893.158154032345,1.00000000017276,0.53209318280084
20299.9999999851,898.437027699806,1.00000000016731,0.531842064327613
20399.9999999836,903.561000990333,1.00000000017133,0.531202258487844
20499.9999999822,908.539649235933,1.00000000017109,0.530960938502262
20599.9999999807,913.363420457773,1.00000000016814,0.531018185623832
20699.9999999793,918.040212680358,1.00000000016645,0.531065809697479
20799.9999999778,922.571256426041,1.00000000016857,0.531216295732039
20899.9999999764,926.949453394281,1.0000000001612,0.530766367904916
20999.9999999749,931.185651732343,1.00000000016367,0.530111825483497
21099.9999999734,935.271653374833,1.00000000015741,0.529260861942634
21199.999999972,939.21164422642,1.0000000001578,0.528379097232563
21299.9999999705,943.00860953689,1.00000000015967,0.527821586827788
21399.9999999691,946.656162585983,1.00000000015668,0.527955518875162
21499.9999999676,950.165211690787,1.00000000016223,0.528742720418497
21599.9999999662,953.531638327118,1.00000000015866,0.529520936312148
21699.9999999647,956.75841264576,1.00000000015136,0.530336326034705
21799.9999999633,959.851683287356,1.00000000015672,0.530092429311004
21899.9999999618,962.804982917471,1.0000000001528,0.528846129429325
21999.9999999603,965.62589061599,1.00000000015128,0.527054440711256
22099.9999999589,968.309753375384,1.00000000014814,0.524827992551362
22199.9999999574,970.854701810403,1.00000000014791,0.523544815995091
22299.999999956,973.266522074056,1.00000000014561,0.523316379895104
22399.9999999545,975.539571779767,1.00000000014713,0.524863905292701
22499.9999999531,977.685435380712,1.00000000014617,0.527688476808799
22599.9999999516,979.705921478029,1.00000000014648,0.530318865023681
22699.9999999502,981.604282622332,1.00000000014963,0.531959011969414
22799.9999999487,983.389731608531,1.00000000015131,0.531780030923708
22899.9999999473,985.057040748094,1.00000000015027,0.529385408770949
22999.9999999458,986.608921891962,1.0000000001499,0.525356653403498
23099.9999999443,988.040518764355,1.00000000014189,0.520658636166947
23199.9999999429,989.343533690856,1.00000000013413,0.51723861513454
23299.9999999414,990.521774261136,1.0000000001322,0.516277666360426
23399.99999994,991.571292364682,1.00000000013429,0.518859038305343
23499.9999999385,992.501511961409,1.0000000001302,0.524151756105498
23599.9999999371,993.323369958505,1.00000000013866,0.52991432984062
23699.9999999356,994.044276402453,1.00000000014457,0.534758110277138
23799.9999999342,994.679183031743,1.00000000014748,0.536938008980973
23899.9999999327,995.228305453788,1.00000000014706,0.535482824754559
23999.9999999312,995.691277385634,1.00000000014569,0.530403361990675
24099.9999999298,996.062959453525,1.00000000013635,0.52239112262697
24199.9999999283,996.328290928869,1.00000000012744,0.513834217425299
24299.9999999269,996.483150914257,1.00000000012014,0.507219761108241
24399.9999999254,996.517895143945,1.0000000001089,0.505614466129233
24499.999999924,996.435695837285,1.00000000011305,0.510027246063969
24599.9999999225,996.249049046682,1.00000000012264,0.518363838862639
24699.9999999211,995.970408336976,1.0000000001342,0.528427378307694
24799.9999999196,995.622788211336,1.00000000014779,0.536978479544243
24899.9999999181,995.218665224352,1.00000000015899,0.542146299745566
24999.9999999167,994.765985010254,1.00000000015526,0.542585746361832
25099.9999999152,994.268053405886,1.00000000015955,0.537520875239052
25199.9999999138,993.712869745985,1.00000000014828,0.527517541775191
25299.9999999123,993.089554482583,1.00000000013118,0.514408767144641
25399.9999999109,992.379439563166,1.00000000011239,0.500704184943858
25499.9999999094,991.56684681543,1.0000000001004,0.491468810443852
25599.999999908,990.648734968586,1.00000000009677,0.48987366844726
25699.9999999065,989.626617138844,1.00000000010408,0.497067403854562
25799.9999999051,988.518477756149,1.0000000001161,0.510769188028654
25899.9999999036,987.345237394513,1.00000000013212,0.525816469158212
25999.9999999021,986.128041451888,1.00000000015015,0.538362300708721
26099.9999999007,984.887882092561,1.00000000016409,0.54616439325664
26199.9999998992,983.634455259485,1.00000000017105,0.548762107160874
26299.9999998978,982.371306151691,1.00000000017321,0.544750085019034
26399.9999998963,981.09165409129,1.00000000016198,0.534990125611136
26499.9999998949,979.778169096116,1.00000000014364,0.519451989184161
26599.9999998934,978.412842411464,1.00000000011734,0.500227656621978
26699.999999892,976.972322835517,1.00000000010128,0.482047083393695
26799.9999998905,975.443466777125,1.00000000008675,0.47056588901141
26899.999999889,973.822191144291,1.00000000008211,0.470316647664303
26999.9999998876,972.114364764155,1.00000000009144,0.482275283968466
27099.9999998861,970.341558851806,1.00000000011082,0.501772634380939
27199.9999998847,968.524224700509,1.00000000013541,0.521566641047019
27299.9999998832,966.687642477159,1.00000000016062,0.53825886014395
27399.9999998818,964.852111981163,1.00000000017418,0.548380371728705
27499.9999998803,963.028577894542,1.00000000018995,0.553660513327326
27599.9999998789,961.224770033147,1.00000000018373,0.551932200337887
27699.9999998774,959.433718930189,1.00000000017738,0.544312859663708
27799.9999998759,957.644106912777,1.00000000016583,0.530256640755813
27899.9999998745,955.836480178945,1.00000000013558,0.509228508095239
27999.999999873,953.987308928761,1.00000000011432,0.485782019933294
28099.9999998716,952.078384827996,1.00000000008601,0.462963041807418
28199.9999998701,950.094480225421,1.00000000007662,0.449506841544186
28299.9999998687,948.033079556838,1.00000000006949,0.449549177659137
28399.9999998672,945.903818461264,1.00000000008028,0.464380566841014
28499.9999998658,943.722117133511,1.00000000010637,0.488077079496965
28599.9999998643,941.512758996133,1.00000000013863,0.513023907478692
28699.9999998629,939.296713727162,1.00000000016503,0.532566218663272
28799.9999998614,937.09256360506,1.00000000019116,0.546953912149433
