Time,AGPnorm,Energy,Entropy
0,0,1,-1.55366185435023e-17
99.9999999999986,3.4532876354837e-05,1.00000000000431,0.00136816010259512
199.999999999993,0.00295358407653693,0.999999999998634,0.00216914710127755
300,0.00749395323465206,1.00000000000309,0.00396652851719319
400.000000000022,0.0102047785831901,1.00000000000196,0.00658456930665664
500.000000000045,0.0126831921772341,0.999999999999174,0.00907272933843729
600.000000000068,0.0182729464301676,1.00000000000458,0.0124945871244313
700.000000000091,0.0228090154399762,0.999999999999039,0.0159174310561915
800.000000000113,0.0286696180639785,1.00000000000217,0.0198912631053801
900.000000000136,0.0356771565150238,1.00000000000295,0.0241389838146798
1000.00000000016,0.0423583293773641,0.999999999998618,0.0285918661104479
1100.0000000001,0.0504209743418733,1.00000000000448,0.0335238001541282
1200,0.0586330991104734,0.999999999999745,0.0385108176081037
1299.99999999991,0.0669738369323265,1.00000000000113,0.0441054555900154
1399.99999999982,0.0766399253535715,1.00000000000382,0.0497353940462443
1499.99999999973,0.0867716091469794,0.999999999998424,0.0557459170747548
1599.99999999964,0.096601812027359,1.00000000000395,0.062223459186151
1699.99999999955,0.106948930944033,1.00000000000064,0.0686866904466633
1799.99999999946,0.117507863278797,1.00000000000022,0.0759146007183009
1899.99999999937,0.128955965273293,1.00000000000443,0.0832219842634134
1999.99999999928,0.140804091548412,0.999999999998581,0.090990202386486
2099.99999999919,0.151480992825764,1.00000000000306,0.0994298167639936
2199.99999999909,0.162990881961177,1.00000000000166,0.107901185452017
2299.999999999,0.175159365844584,0.999999999999632,0.117424598533821
2399.99999999891,0.187308596973648,1.00000000000464,0.127427637171698
2499.99999999882,0.199204719204437,0.99999999999918,0.138091721565544
2599.99999999873,0.210141120496273,1.00000000000261,0.150083983232314
2699.99999999864,0.222049591663586,1.00000000000466,0.162792180925121
2799.99999999855,0.234563828089214,1.00000000000522,0.177425064394189
2899.99999999846,0.246969456698036,1.00000000001927,0.193469069369244
2999.99999999837,0.256882379037298,1.00000000003301,0.210468895847612
3099.99999999828,0.269363851077278,1.00000000005881,0.22883752828825
3199.99999999819,0.284506008310033,1.00000000009873,0.247211757289299
3299.99999999809,0.299403037686942,1.00000000014138,0.265852073004578
3399.999999998,0.328207673488056,1.00000000019869,0.284400696636184
3499.99999999791,0.361114243358416,1.00000000026374,0.301822466846778
3599.99999999782,0.420478653247948,1.00000000032698,0.319605604275787
3699.99999999773,0.513260254180153,1.00000000039288,0.336405578054063
3799.99999999764,0.642929469174511,1.00000000044394,0.352802266263654
3899.99999999755,0.838095243702354,1.00000000050473,0.368842571266119
3999.99999999746,1.1018085007133,1.00000000057156,0.383278779752792
4099.99999999738,1.46393662768222,1.00000000063072,0.39821957308394
4199.99999999775,1.93165706506261,1.00000000067019,0.412074322517889
4299.99999999811,2.53279414729675,1.00000000070556,0.424888351813854
4399.99999999848,3.27796909266368,1.00000000078517,0.437598954669495
4499.99999999884,4.18041616461264,1.00000000080694,0.448969067462766
4599.9999999992,5.27777524590918,1.00000000087032,0.460307187608875
4699.99999999957,6.543669952603,1.00000000092473,0.47098523693593
4799.99999999993,8.03376087928114,1.00000000091462,0.480182109565799
4900.00000000029,9.73069234945007,1.00000000096264,0.490014678617298
5000.00000000066,11.6278653881542,1.00000000099776,0.498277946747906
5100.00000000102,13.7875662459456,1.00000000098561,0.506339745485667
5200.00000000139,16.1333729104828,1.00000000102688,0.514132983072884
5300.00000000175,18.728639101854,1.00000000102121,0.520443715426251
5400.00000000211,21.5547079188941,1.00000000106291,0.527448185601537
5500.00000000248,24.5591267365112,1.00000000107064,0.533590602524355
5600.00000000284,27.8335280207418,1.00000000110451,0.538531407920165
5700.00000000321,31.2706221197844,1.00000000108814,0.544388601009551
5800.00000000357,34.911382891296,1.00000000108433,0.548560080836417
5900.00000000393,38.7669908468063,1.00000000112441,0.553142161717339
6000.0000000043,42.7374929337453,1.00000000110264,0.557708401308674
6100.00000000466,46.9276715671685,1.00000000106764,0.560612954573933
6200.00000000502,51.235241581653,1.00000000106432,0.564723579385301
6300.00000000539,55.6598721410969,1.00000000108334,0.567649629750427
6400.00000000575,60.2516331233561,1.00000000110875,0.570203063639127
6500.00000000612,64.883842864093,1.00000000109993,0.573481543873221
6600.00000000648,69.6507449266312,1.0000000010816,0.574950076021773
6700.00000000684,74.482672241707,1.00000000105021,0.577669970005652
6800.00000000721,79.3372052371174,1.0000000010228,0.579990785214107
6900.00000000757,84.2918803564146,1.00000000105767,0.580884309648972
7000.00000000793,89.2219671320703,1.00000000103289,0.583140548529439
7100.0000000083,94.1937501617192,1.00000000100978,0.583914434374784
7200.00000000866,99.1784704441081,1.00000000103627,0.58523054121421
7300.00000000903,104.105705147524,1.00000000099353,0.587030921523845
7400.00000000939,109.061742711553,1.00000000096461,0.58684352621346
7500.00000000975,113.943712603554,1.00000000097431,0.588150065252261
7600.00000001012,118.786161765373,1.00000000096039,0.588675489159249
7700.00000001048,123.593644891162,1.00000000095464,0.589220484309795
7800.00000001084,128.287045708572,1.00000000095702,0.589999560025682
7900.00000001121,132.946312328005,1.00000000094549,0.589299650669249
8000.00000001157,137.497490174836,1.0000000009205,0.590661438332464
8100.00000001194,141.948785991914,1.00000000089353,0.590440941341245
8200.0000000123,146.32659966282,1.00000000092051,0.590246622147027
8300.00000001266,150.557337119179,1.00000000089005,0.590440348033274
8400.00000001303,154.70620021601,1.00000000088457,0.590514748796476
8500.00000001339,158.725868955532,1.00000000084999,0.58982727346697
8600.00000001376,162.609424623326,1.00000000086884,0.590630544462962
8700.00000001412,166.391119503103,1.00000000083366,0.588686607980344
8800.00000001448,170.009904580608,1.00000000083501,0.590353308961549
8900.00000001485,173.5153577942,1.00000000081147,0.588300306689422
9000.00000001521,176.88092562379,1.00000000080735,0.589255307482366
9100.00000001557,180.092199182628,1.00000000078401,0.588447929908581
9200.00000001594,183.183751405878,1.00000000079042,0.587855885737553
9300.0000000163,186.112039688784,1.00000000076818,0.58808731979412
9400.00000001667,188.90806725082,1.00000000078179,0.586734827000001
9500.00000001703,191.565553492485,1.00000000075566,0.587104623912769
9600.00000001739,194.06100307886,1.00000000073009,0.586232782558014
9700.00000001776,196.434448370646,1.00000000072892,0.586252627012869
9800.00000001812,198.648240437463,1.00000000071831,0.58491232005699
9900.00000001848,200.726945030994,1.00000000073218,0.585580180248123
10000.0000000188,202.672799767666,1.00000000066427,0.583939507173402
10100.0000000192,204.462473242776,1.00000000067712,0.583790613416874
10200.0000000196,206.133780812591,1.00000000066477,0.58379798721037
10300.0000000199,207.659314111729,1.00000000064274,0.58246023519498
10400.0000000203,209.054434302389,1.00000000065095,0.582886469617311
10500.0000000207,210.327802953274,1.00000000063397,0.582714341574334
10600.000000021,211.460213965063,1.00000000065714,0.58263570877501
10700.0000000214,212.480824382374,1.00000000063755,0.581316890993269
10800.0000000218,213.372399518925,1.00000000062182,0.582170004241477
10900.0000000221,214.146247180893,1.00000000063412,0.582656701422654
11000.0000000225,214.812682642108,1.00000000060207,0.580743681663967
11100.0000000229,215.354937835607,1.00000000062592,0.580319964929881
11200.0000000232,215.798417490523,1.00000000061116,0.582265184111783
11300.0000000236,216.136717336303,1.000000000617,0.581657288425484
11400.0000000239,216.373497143819,1.00000000056968,0.578025549436611
11500.0000000243,216.515368775466,1.00000000056999,0.578390235977492
11600.0000000247,216.559851048386,1.00000000060669,0.583532408741878
11700.000000025,216.531983489547,1.00000000057901,0.578456123266224
11800.0000000254,216.413973862225,1.00000000054249,0.570356110733817
11900.0000000258,216.209680572458,1.00000000058885,0.579360809180748
12000.0000000261,215.946935896446,1.00000000064325,0.582697175025157
12100.0000000265,215.615018060471,1.00000000056933,0.572304095454933
12200.0000000269,215.212457103368,1.00000000053774,0.565247300644263
12300.0000000272,214.740761883971,1.00000000059413,0.577826231057661
12400.0000000276,214.222893910166,1.00000000063823,0.581838229785292
12500.0000000279,213.665740090202,1.00000000056605,0.569352868430989
12600.0000000283,213.042916662351,1.00000000049567,0.557997593567072
12700.0000000287,212.366978761605,1.00000000058084,0.571376419598046
12800.000000029,211.660341151421,1.00000000069021,0.583253435703713
12900.0000000294,210.927383961848,1.00000000058908,0.5707269311134
13000.0000000298,210.155755331016,1.0000000004982,0.55289270021334
13100.0000000301,209.327398862424,1.00000000053248,0.555232148024577
13200.0000000305,208.476048160702,1.00000000066789,0.582989289706213
13300.0000000309,207.618019714948,1.00000000068985,0.576539133418487
13400.0000000312,206.739815609865,1.00000000057629,0.557148690026923
13500.0000000316,205.824545247505,1.00000000047057,0.53945523692369
13600.0000000319,204.870013861058,1.00000000061607,0.561306850708472
13700.0000000323,203.913535328104,1.00000000072619,0.58461945348281
13800.0000000327,202.961324682981,1.0000000007255,0.57040808340327
13900.000000033,201.99410183724,1.00000000054292,0.545648478623602
14000.0000000334,200.998021179993,1.00000000046753,0.532321028423252
14100.0000000338,199.974237539989,1.00000000062397,0.557321078243147
14200.0000000341,198.955442707774,1.00000000074175,0.584449258051091
14300.0000000345,197.948782630064,1.0000000007529,0.568848349824019
14400.0000000349,196.936365197663,1.00000000054935,0.540689519351154
14500.0000000352,195.905896427061,1.00000000049499,0.529087249308969
14600.0000000356,194.852525635915,1.00000000055729,0.538624882334398
14700.0000000359,193.80032584342,1.0000000007303,0.5764216745392
14800.0000000363,192.76336680973,1.0000000007509,0.577122731579886
14900.0000000367,191.734355443458,1.00000000065135,0.546803064854351
15000.000000037,190.700883346866,1.00000000051546,0.528038124795914
15100.0000000374,189.650974517368,1.00000000053109,0.526120903005987
15200.0000000378,188.593452485553,1.00000000060438,0.543803214319235
15300.0000000381,187.544239671864,1.00000000076691,0.573742854747152
15400.0000000385,186.508693731854,1.00000000076202,0.570508100814107
15500.0000000389,185.484558795818,1.00000000063402,0.537535452647874
15600.0000000392,184.457751291717,1.00000000053147,0.524012241159296
15700.0000000396,183.424209702311,1.00000000053799,0.527360197074759
15800.0000000399,182.387766194955,1.00000000061521,0.536205708125925
15900.0000000403,181.35547762264,1.00000000070591,0.557376373738328
16000.0000000407,180.337779934789,1.00000000076796,0.568459071994134
16100.000000041,179.332054648187,1.00000000066381,0.545908765038503
16200.0000000414,178.331275803788,1.00000000057283,0.522069333029689
16300.0000000418,177.331538149272,1.00000000055537,0.524143620884789
16400.0000000418,176.330369921648,1.00000000058623,0.533127155077185
16500.0000000404,175.333468839217,1.00000000062963,0.536883542647807
16600.0000000389,174.34362697031,1.000000000691,0.547210971869234
16700.0000000375,173.364226525107,1.00000000073395,0.558059997979552
16800.000000036,172.396815515404,1.00000000068351,0.541241995863764
16900.0000000346,171.435190985683,1.00000000059889,0.520876970226208
17000.0000000331,170.478953509212,1.00000000058077,0.52438649011446
17100.0000000317,169.526717456335,1.00000000060453,0.534917240404007
17200.0000000302,168.57959953213,1.00000000062136,0.534894502208442
17300.0000000287,167.639463878026,1.00000000063361,0.532066855790769
17400.0000000273,166.707076242131,1.00000000067464,0.540547658100738
17500.0000000258,165.784394970565,1.00000000067153,0.544419810037265
17600.0000000244,164.870888942337,1.00000000065096,0.533904386255338
17700.0000000229,163.964604129369,1.00000000062497,0.524131300386959
17800.0000000215,163.066202528787,1.00000000059619,0.528918144260054
17900.00000002,162.174239483216,1.00000000060841,0.53702262990246
18000.0000000186,161.289707223446,1.00000000060539,0.53459590976078
18100.0000000171,160.412132613466,1.00000000062909,0.527875574906584
18200.0000000156,159.541942655241,1.00000000060156,0.52662033523286
18300.0000000142,158.68046396234,1.00000000063846,0.535393139864604
18400.0000000127,157.827321178261,1.00000000065758,0.540067041521916
18500.0000000113,156.982615639238,1.00000000063366,0.535129907215956
18600.0000000098,156.146431434494,1.00000000061784,0.529954597014378
18700.0000000084,155.31862325403,1.00000000063674,0.537531533389444
18800.0000000069,154.499508985385,1.00000000060721,0.541167790853426
18900.0000000055,153.688028702079,1.00000000057242,0.529980641274956
19000.000000004,152.884649784058,1.00000000057866,0.522377256800761
19100.0000000026,152.089492268675,1.00000000060618,0.521837022097898
19200.0000000011,151.302501098278,1.00000000062693,0.530620450449846
19299.9999999996,150.523927693656,1.00000000062552,0.538339179974077
19399.9999999982,149.753500305468,1.00000000064468,0.542756016460381
19499.9999999967,148.991180250112,1.00000000063222,0.538306940002053
19599.9999999953,148.237108017526,1.00000000064217,0.540366446088926
19699.9999999938,147.491547461898,1.00000000060793,0.54393524408791
19799.9999999924,146.755135805335,1.00000000059227,0.538398920244594
19899.9999999909,146.027901353351,1.0000000005277,0.523646562724546
19999.9999999895,145.310250906833,1.0000000005467,0.51634486119515
20099.999999988,144.601466671289,1.00000000062819,0.52046563273685
20199.9999999865,143.901095121343,1.00000000061871,0.52699346056848
20299.9999999851,143.208740542538,1.00000000061687,0.532943936937933
20399.9999999836,142.523706013552,1.0000000006391,0.543185080133122
20499.9999999822,141.845834066229,1.00000000063339,0.546317178263504
20599.9999999807,141.174855845199,1.00000000066016,0.542435895660214
20699.9999999793,140.510763807353,1.00000000065234,0.546723065886894
20799.9999999778,139.854012905126,1.00000000065865,0.544655007012453
20899.9999999764,139.206493898301,1.00000000058388,0.532676938323179
20999.9999999749,138.570710821592,1.00000000050978,0.515957272272594
21099.9999999734,137.946096144509,1.00000000053436,0.508507142515151
21199.999999972,137.331372730614,1.0000000006183,0.513675780728202
21299.9999999705,136.723935427217,1.00000000067777,0.523207504591314
21399.9999999691,136.123268014029,1.00000000064649,0.524683698461942
21499.9999999676,135.529030686707,1.00000000063116,0.533803439477844
21599.9999999662,134.940722432296,1.00000000063942,0.54446851210971
21699.9999999647,134.357594414805,1.00000000064966,0.548953351270658
21799.9999999633,133.77897540865,1.00000000069946,0.54915286534836
21899.9999999618,133.204726349583,1.00000000069474,0.550456454599455
21999.9999999603,132.636760012741,1.00000000064257,0.542042984734315
22099.9999999589,132.078120512192,1.00000000054902,0.526586505774583
22199.9999999574,131.532297092728,1.00000000050241,0.513832953419967
22299.999999956,130.999535402089,1.00000000051482,0.506339715974606
22399.9999999545,130.477745977427,1.00000000058372,0.505273927034026
22499.9999999531,129.963914655878,1.00000000062838,0.516554350617014
22599.9999999516,129.455212253199,1.00000000067604,0.520757623726638
22699.9999999502,128.951964767468,1.00000000062084,0.520431024711958
22799.9999999487,128.453458732485,1.00000000063304,0.527702921125211
22899.9999999473,127.958520035247,1.00000000066612,0.542392678147465
22999.9999999458,127.465827085175,1.00000000067992,0.552227950252641
23099.9999999443,126.974986594494,1.00000000066619,0.550607587247256
23199.9999999429,126.487267832318,1.00000000067256,0.546626954402857
23299.9999999414,126.003998020235,1.00000000067103,0.542749680786612
23399.99999994,125.527946494036,1.00000000060684,0.532667197541428
23499.9999999385,125.063085114748,1.00000000056018,0.518569352423878
23599.9999999371,124.610862455108,1.00000000050304,0.513934245210113
23699.9999999356,124.171416984863,1.00000000054273,0.507970535574377
23799.9999999342,123.742501867231,1.00000000058517,0.506011487448443
23899.9999999327,123.321508241789,1.00000000062551,0.508812863980507
23999.9999999312,122.906098623878,1.00000000066269,0.518144539266196
24099.9999999298,122.494084902632,1.00000000065263,0.520977072356781
24199.9999999283,122.085068053922,1.00000000062583,0.525598742626881
24299.9999999269,121.677372176195,1.00000000066106,0.536708075211982
24399.9999999254,121.269426972532,1.00000000068399,0.543376414471184
24499.999999924,120.861917468159,1.00000000067129,0.54881255568275
24599.9999999225,120.455780442508,1.00000000067217,0.546672295572806
24699.9999999211,120.052535729669,1.00000000065472,0.542445698004866
24799.9999999196,119.653221410126,1.00000000065957,0.540714252120043
24899.9999999181,119.259125219956,1.00000000063747,0.538039905277003
24999.9999999167,118.873125795725,1.00000000060278,0.529396965187155
25099.9999999152,118.497639640053,1.0000000005399,0.519853878050472
25199.9999999138,118.134068746303,1.00000000055362,0.514160000009045
25299.9999999123,117.782295155849,1.00000000057647,0.512806804302682
25399.9999999109,117.441053040555,1.00000000054402,0.506851723596417
25499.9999999094,117.109118531914,1.00000000059084,0.509116375222858
25599.999999908,116.782594699886,1.00000000062962,0.518181068409899
25699.9999999065,116.458818039998,1.00000000065855,0.525529833819688
25799.9999999051,116.135443863413,1.00000000064474,0.533838693357316
25899.9999999036,115.811336579727,1.00000000067714,0.534823428308391
25999.9999999021,115.486999238099,1.00000000066381,0.537405607799826
26099.9999999007,115.161947546275,1.00000000067103,0.542488726587426
26199.9999998992,114.836756139603,1.00000000063977,0.545352674417215
26299.9999998978,114.51341184034,1.00000000061684,0.544783835540433
26399.9999998963,114.192483918943,1.00000000060621,0.543340042372908
26499.9999998949,113.875104140338,1.00000000063324,0.541613283415506
26599.9999998934,113.561734920372,1.00000000063635,0.5402640641899
26699.999999892,113.252745647622,1.00000000064228,0.540612863742357
26799.9999998905,112.950097986303,1.00000000059793,0.536134395045025
26899.999999889,112.655886376735,1.00000000054316,0.524950261956872
26999.9999998876,112.374002057756,1.00000000054153,0.514623668462307
27099.9999998861,112.104842541759,1.00000000052833,0.512499943943268
27199.9999998847,111.846879429034,1.00000000056301,0.512669021325561
27299.9999998832,111.59728124403,1.00000000062226,0.517915470983633
27399.9999998818,111.353347051254,1.00000000061255,0.522522972778832
27499.9999998803,111.112674137624,1.00000000064983,0.529553560584186
27599.9999998789,110.87254428887,1.00000000063715,0.533348974611878
27699.9999998774,110.631487618507,1.0000000006446,0.540510418810205
27799.9999998759,110.388776252889,1.00000000068108,0.542466266751326
27899.9999998745,110.144218383468,1.00000000065384,0.539226711854266
27999.999999873,109.898414414946,1.00000000066144,0.542295745476591
28099.9999998716,109.651325013923,1.0000000006605,0.544519034119172
28199.9999998701,109.404567376616,1.00000000065081,0.544385354147338
28299.9999998687,109.160412911162,1.00000000061248,0.544324772118875
28399.9999998672,108.919018349865,1.00000000060865,0.545725868930907
28499.9999998658,108.68011320443,1.00000000065318,0.546251962760336
28599.9999998643,108.442327542886,1.00000000067398,0.546250049018224
28699.9999998629,108.205901213356,1.00000000064513,0.542831231080247
28799.9999998614,107.972729622331,1.00000000067532,0.540099727291399
28899.9999998599,107.745146646643,1.00000000058554,0.532477133655406
