Time,AGPnorm,Energy,Entropy
0,0,1,-7.23516757504494e-17
99.9999999999986,0.0018942915406263,0.999999999999214,0.00589973372929718
199.999999999993,0.0130196108000483,0.999999999996839,0.0168711335599986
300,0.0260361591707369,0.999999999997201,0.0307858275004033
400.000000000022,0.0385064545317077,0.999999999999703,0.0486197471269269
500.000000000045,0.0531702357503558,0.999999999999242,0.0707023077230816
600.000000000068,0.073001316637062,0.999999999997561,0.096490755001695
700.000000000091,0.0914159149049412,0.999999999997133,0.126554384661082
800.000000000113,0.109178648703571,1.00000000000227,0.163370931614733
900.000000000136,0.126706464376774,1.00000000004503,0.212178397542196
1000.00000000016,0.140753645442495,1.00000000022108,0.271873013176886
1100.0000000001,0.180827285970131,1.00000000060928,0.332864495508774
1200,0.294458636333106,1.00000000112913,0.386385057113694
1299.99999999991,0.526099526004725,1.00000000154952,0.433220204165098
1399.99999999982,0.995638686231855,1.0000000019134,0.47201813627782
1499.99999999973,1.84433467541617,1.00000000214549,0.502852455901634
1599.99999999964,3.10487522563328,1.00000000244451,0.527441166100734
1699.99999999955,4.75456250161542,1.00000000253505,0.548110290533534
1799.99999999946,6.81512669246679,1.00000000251212,0.563746806968198
1899.99999999937,9.26040217688968,1.00000000256679,0.574479083639956
1999.99999999928,11.9785648706568,1.00000000257103,0.582745605904254
2099.99999999919,14.8662157943147,1.00000000252641,0.589229381471837
2199.99999999909,17.8662904628396,1.00000000240993,0.592920880364919
2299.999999999,20.9126256984581,1.00000000244292,0.593560990770472
2399.99999999891,23.9018741057311,1.00000000228617,0.594231056175976
2499.99999999882,26.7548226685251,1.00000000222135,0.594692128034028
2599.99999999873,29.4341972251857,1.00000000215487,0.593177399663968
2699.99999999864,31.9158996238803,1.00000000200404,0.590781778085831
2799.99999999855,34.1632434826567,1.0000000019913,0.588453931133576
2899.99999999846,36.1400394035734,1.00000000195289,0.587405703559979
2999.99999999837,37.8383475512776,1.00000000186739,0.585807463408985
3099.99999999828,39.2677364078759,1.00000000177199,0.582801624027296
3199.99999999819,40.4366101236674,1.00000000164862,0.579476840377975
3299.99999999809,41.3459495778801,1.0000000015701,0.578982471656435
3399.999999998,42.0061041131055,1.00000000150173,0.574109075434999
3499.99999999791,42.4433195200017,1.00000000146851,0.577033536403939
3599.99999999782,42.6676557180553,1.0000000015214,0.579627211841298
3699.99999999773,42.7239615094588,1.00000000131241,0.562537613843511
3799.99999999764,42.6190811379107,1.00000000154899,0.581368890294836
3899.99999999755,42.3887166448692,1.00000000131505,0.557632621672709
3999.99999999746,42.0419392022045,1.00000000160895,0.57737804023968
4099.99999999738,41.6288809191601,1.00000000131171,0.551987798583196
4199.99999999775,41.1272633254842,1.00000000143685,0.566049362959775
4299.99999999811,40.6052081177733,1.00000000151272,0.554609239887136
4399.99999999848,40.018097926464,1.00000000128065,0.52831548406765
4499.99999999884,39.421379985663,1.00000000188986,0.574801235933479
4599.9999999992,38.8176453784088,1.00000000126394,0.523612422165526
4699.99999999957,38.1762672578963,1.00000000158335,0.540116377725115
4799.99999999993,37.5566900456938,1.00000000164601,0.552189174479222
4900.00000000029,36.9347930618233,1.00000000116972,0.508307694134588
5000.00000000066,36.2957139204417,1.00000000156372,0.528719049857979
5100.00000000102,35.6818088900615,1.00000000190691,0.55147248105351
5200.00000000139,35.0802223496598,1.0000000012916,0.500266275871545
5300.00000000175,34.4736993815146,1.0000000014554,0.512124866068316
5400.00000000211,33.8788157890962,1.0000000017331,0.544722781890441
5500.00000000248,33.3063811346327,1.00000000150202,0.508437080217731
5600.00000000284,32.7445405052766,1.0000000013673,0.510443700617973
5700.00000000321,32.1911918301558,1.00000000147987,0.52147725095227
5800.00000000357,31.651665002905,1.00000000162369,0.52876608361225
5900.00000000393,31.1296796315705,1.00000000157631,0.517729746153908
6000.0000000043,30.6233077207279,1.00000000127488,0.498144295353454
6100.00000000466,30.1322624662817,1.00000000149206,0.534701750820115
6200.00000000502,29.6553004129578,1.0000000014271,0.521476007253586
6300.00000000539,29.1951940739767,1.00000000154619,0.519033202397792
6400.00000000575,28.7491301733338,1.00000000163351,0.51597039170248
6500.00000000612,28.3200285070103,1.00000000128868,0.502232529873166
6600.00000000648,27.9089060385244,1.00000000160799,0.536530218567327
6700.00000000684,27.508876292263,1.00000000161172,0.543574845907699
6800.00000000721,27.1271690451238,1.00000000138331,0.502333623120368
6900.00000000757,26.7624242203973,1.00000000163995,0.520162641416059
7000.00000000793,26.4065247750757,1.00000000161346,0.50721599953579
7100.0000000083,26.0667075964876,1.00000000134145,0.508412265690281
7200.00000000866,25.7436200638808,1.00000000158727,0.529501090133084
7300.00000000903,25.4255624728376,1.00000000170711,0.539325387905012
7400.00000000939,25.1215883290625,1.00000000138982,0.519588160128697
7500.00000000975,24.8359840875184,1.00000000143758,0.507287533998246
7600.00000001012,24.56102155851,1.00000000167591,0.527000872913216
7700.00000001048,24.2940074296495,1.00000000148886,0.506679146164122
7800.00000001084,24.0407878156106,1.00000000147653,0.515223118322169
7900.00000001121,23.7982208446871,1.00000000154781,0.53834317627756
8000.00000001157,23.5636900832954,1.00000000153674,0.536546672677637
8100.00000001194,23.333048000901,1.00000000158897,0.529118554050451
8200.0000000123,23.1136352780999,1.00000000139791,0.535237003480215
8300.00000001266,22.904985607151,1.00000000158751,0.525271625517021
8400.00000001303,22.7069187657175,1.00000000154373,0.524817120243195
8500.00000001339,22.5192243375407,1.00000000165093,0.525991289141825
8600.00000001376,22.3412657294015,1.00000000152917,0.524606940801944
8700.00000001412,22.1757436222784,1.00000000144024,0.530605806711955
8800.00000001448,22.0123389829976,1.00000000177095,0.555891348332545
8900.00000001485,21.8547450207108,1.00000000137725,0.540849137188875
9000.00000001521,21.7085043132498,1.00000000148162,0.532534217827237
9100.00000001557,21.5655515062967,1.00000000168161,0.541033111532687
9200.00000001594,21.4193664108361,1.00000000171937,0.5645818723264
9300.0000000163,21.2776730883911,1.00000000144481,0.540237959534774
9400.00000001667,21.1477869090647,1.00000000158614,0.5329200586719
9500.00000001703,21.0269442500927,1.00000000161858,0.544293763134715
9600.00000001739,20.9154211518303,1.00000000158062,0.536441534656095
9700.00000001776,20.8113417132761,1.00000000153683,0.542417618675213
9800.00000001812,20.7152060848388,1.00000000152018,0.549601076006369
9900.00000001848,20.6188447702912,1.00000000178257,0.555258292535084
10000.0000000188,20.519810236212,1.00000000161472,0.555320045870281
10100.0000000192,20.4328514188975,1.000000001356,0.532353802465712
10200.0000000196,20.3602237873899,1.00000000143916,0.546509409546333
10300.0000000199,20.2827028631554,1.00000000168286,0.558567514676927
10400.0000000203,20.1971980026386,1.00000000173099,0.557556373964066
10500.0000000207,20.1078869061473,1.00000000160147,0.568526233552958
10600.000000021,20.0196183162727,1.00000000153236,0.569654377663944
10700.0000000214,19.9375280084433,1.00000000155244,0.561456959210268
10800.0000000218,19.8630580987768,1.00000000155432,0.566167589657791
10900.0000000221,19.7966929347932,1.00000000160978,0.557784887225301
11000.0000000225,19.7399581802707,1.00000000147897,0.54361257432408
11100.0000000229,19.6908885865791,1.00000000158121,0.548671642332812
11200.0000000232,19.6448502427297,1.00000000163743,0.569906566533845
11300.0000000236,19.5982996951417,1.00000000171493,0.575396215168986
11400.0000000239,19.5542111661909,1.00000000149217,0.559853933784
11500.0000000243,19.5164513322907,1.00000000174481,0.564788815854384
11600.0000000247,19.4819197658606,1.00000000158125,0.571050702498575
11700.000000025,19.4506485903701,1.00000000155248,0.563030094875033
11800.0000000254,19.4214307784312,1.00000000168601,0.574753920406472
11900.0000000258,19.3868783261899,1.00000000165894,0.58125739236424
12000.0000000261,19.3497083883098,1.00000000159543,0.582192708173124
12100.0000000265,19.3114470887306,1.00000000168815,0.584324172660429
12200.0000000269,19.2698642538326,1.00000000171529,0.590110190961379
12300.0000000272,19.2213683555758,1.00000000172014,0.608674081974294
12400.0000000276,19.1685158392029,1.0000000015988,0.610591004679194
12500.0000000279,19.116824076286,1.00000000160881,0.600777152811441
12600.0000000283,19.0712666034903,1.00000000164018,0.599330062487577
12700.0000000287,19.0343979270822,1.00000000159647,0.590439983555043
12800.000000029,19.0086652320006,1.00000000159408,0.571556682250771
12900.0000000294,18.9922173617702,1.00000000158488,0.56896857230991
13000.0000000298,18.9799737241436,1.0000000016904,0.580484724999499
13100.0000000301,18.9689290616476,1.00000000171254,0.59152108532282
13200.0000000305,18.9580941626397,1.00000000161646,0.591545510090854
13300.0000000309,18.9469018133752,1.00000000177122,0.595693336427717
13400.0000000312,18.937389886514,1.00000000159005,0.590118180500241
13500.0000000316,18.9361431966708,1.00000000149294,0.584811814111784
13600.0000000319,18.9368496799848,1.00000000188494,0.59260087629789
13700.0000000323,18.9322092100859,1.00000000173521,0.596156567417513
13800.0000000327,18.93053186065,1.0000000016102,0.601283265903572
13900.000000033,18.9325393223826,1.0000000017322,0.610842411984243
14000.0000000334,18.9307110447211,1.00000000172988,0.62032849272619
14100.0000000338,18.9193020177637,1.00000000190903,0.621878821831458
14200.0000000341,18.901405168321,1.00000000184288,0.61753311522484
14300.0000000345,18.8852580829245,1.00000000149832,0.611208510489975
14400.0000000349,18.8720878642618,1.00000000164087,0.609809316054147
14500.0000000352,18.8557685819699,1.00000000169866,0.62005399009536
14600.0000000356,18.8357748875955,1.00000000173755,0.62103077177213
14700.0000000359,18.8072437191399,1.00000000178546,0.622391627440224
14800.0000000363,18.7713731111985,1.0000000018297,0.621674961576828
14900.0000000367,18.7298266593091,1.00000000176156,0.623167087331486
15000.000000037,18.6894396814133,1.00000000165358,0.621330554740096
15100.0000000374,18.6566366247036,1.00000000170024,0.613117052815932
15200.0000000378,18.6334731827089,1.0000000015887,0.602824927815806
15300.0000000381,18.6191951720371,1.00000000165442,0.595744963474129
15400.0000000385,18.6149648671857,1.00000000155657,0.589507522268892
15500.0000000389,18.6201732322575,1.00000000169788,0.588190203054232
15600.0000000392,18.6278185157951,1.00000000184396,0.596612534786339
15700.0000000396,18.6353473615766,1.00000000179309,0.604921791505871
15800.0000000399,18.6461478528758,1.00000000172504,0.602807848279458
15900.0000000403,18.653155302652,1.00000000192072,0.604610623800916
16000.0000000407,18.6634284866666,1.00000000170517,0.595006671831885
16100.000000041,18.681566449485,1.00000000162609,0.592453987803474
16200.0000000414,18.7023855941125,1.00000000180515,0.598930887068271
16300.0000000418,18.7201812651523,1.00000000178355,0.611099463947033
16400.0000000418,18.7366318406557,1.00000000175118,0.616568136410515
16500.0000000404,18.7547731266586,1.00000000177294,0.618038816819296
16600.0000000389,18.770050878855,1.00000000190956,0.615397902350415
16700.0000000375,18.7802693880583,1.0000000017748,0.608114035068595
16800.000000036,18.7893891651608,1.00000000183631,0.601627047964783
16900.0000000346,18.7967570995587,1.00000000170797,0.61453891497074
17000.0000000331,18.8060509590188,1.00000000176195,0.633612270646178
17100.0000000317,18.8139794172701,1.00000000190189,0.63436056920262
17200.0000000302,18.8169333363568,1.00000000181138,0.638591160303807
17300.0000000287,18.8176977650394,1.00000000184305,0.641012463831674
17400.0000000273,18.8159948333836,1.00000000188087,0.633532223928412
17500.0000000258,18.8118975178638,1.00000000186901,0.640135043684792
17600.0000000244,18.8065296442982,1.00000000172154,0.643577194475773
17700.0000000229,18.8005077322205,1.00000000175743,0.644628842961897
17800.0000000215,18.7910426229476,1.00000000188136,0.650894982367542
17900.00000002,18.7787671239301,1.00000000183004,0.655633640523254
18000.0000000186,18.7643116946331,1.00000000181014,0.652567357075998
18100.0000000171,18.74628568284,1.00000000176651,0.651961403319922
18200.0000000156,18.7240354833913,1.00000000184724,0.643611317435077
18300.0000000142,18.7001487359589,1.00000000173828,0.636747749325493
18400.0000000127,18.6717196923235,1.00000000196323,0.636275892558972
18500.0000000113,18.6376074727998,1.00000000191219,0.631841581322436
18600.0000000098,18.6005993055353,1.00000000191977,0.639672450773244
18700.0000000084,18.5647907896524,1.00000000178538,0.630929923862207
18800.0000000069,18.533365690524,1.00000000173468,0.627321851843135
18900.0000000055,18.508730436611,1.00000000180775,0.636599541302957
19000.000000004,18.4905257296947,1.00000000175659,0.634931891350522
19100.0000000026,18.4800587751832,1.00000000172695,0.631762459803634
19200.0000000011,18.4771270742427,1.00000000172436,0.619355769861188
19299.9999999996,18.4848727578044,1.00000000175648,0.61305389402994
19399.9999999982,18.5006424889575,1.00000000187307,0.60591138614734
19499.9999999967,18.5181318259063,1.00000000198796,0.613825668214253
19599.9999999953,18.5371681635884,1.00000000195037,0.617774774743158
19699.9999999938,18.556086760735,1.0000000018147,0.612051000635454
19799.9999999924,18.5773233926429,1.00000000188491,0.617382814206628
19899.9999999909,18.5996585587114,1.00000000191337,0.615942704130037
19999.9999999895,18.6247449177441,1.00000000188606,0.611716635427872
20099.999999988,18.6526019169707,1.00000000183281,0.605142491770687
20199.9999999865,18.6826418063275,1.00000000194474,0.600982858796749
20299.9999999851,18.7140333969902,1.00000000184778,0.610639719450775
20399.9999999836,18.7496569462971,1.00000000191308,0.612537444764296
20499.9999999822,18.783736637026,1.00000000204463,0.616275281784752
20599.9999999807,18.8138193753897,1.00000000202927,0.620346325603834
20699.9999999793,18.8416740469982,1.00000000195166,0.619882830969569
20799.9999999778,18.8715736559734,1.00000000183892,0.613967246335702
20899.9999999764,18.8997331662222,1.00000000209929,0.616887020947498
20999.9999999749,18.9216592237361,1.00000000205379,0.619108687596238
21099.9999999734,18.9361300408421,1.00000000207769,0.6256312721061
21199.999999972,18.9478450211014,1.00000000195295,0.629217328742236
21299.9999999705,18.961898892167,1.00000000182662,0.63875006589926
21399.9999999691,18.9805762755244,1.00000000186082,0.63849675779124
21499.9999999676,19.0001339779951,1.00000000201661,0.638670555395655
21599.9999999662,19.0168913998398,1.00000000198571,0.637917353305195
21699.9999999647,19.0321537267304,1.00000000211149,0.63248715129611
21799.9999999633,19.0446581294805,1.00000000205087,0.64426764499343
21899.9999999618,19.0566261388931,1.00000000206528,0.651007675028089
21999.9999999603,19.0677312555674,1.00000000202767,0.649882975639207
22099.9999999589,19.0779864555732,1.00000000204491,0.645886186967221
22199.9999999574,19.0878233891161,1.00000000203834,0.632674954514589
22299.999999956,19.0952366170149,1.00000000200652,0.637606591829557
22399.9999999545,19.1011573789525,1.00000000206867,0.638857165292026
22499.9999999531,19.1048189620091,1.00000000209507,0.639800642086383
22599.9999999516,19.1072234092365,1.00000000204186,0.647980580957497
22699.9999999502,19.1103860052992,1.00000000197037,0.651408745957344
22799.9999999487,19.1160926211321,1.00000000193641,0.658401363792324
22899.9999999473,19.1252516956878,1.00000000196741,0.653259562581162
22999.9999999458,19.1344027229338,1.00000000209976,0.663765124449282
23099.9999999443,19.1404660440323,1.00000000193427,0.665582420660556
23199.9999999429,19.1423258139641,1.00000000204525,0.658942607032393
23299.9999999414,19.1386966560834,1.00000000210633,0.652353744872489
23399.99999994,19.1316065100293,1.00000000203532,0.656475413121128
23499.9999999385,19.1252169072304,1.00000000199698,0.666243933686401
23599.9999999371,19.1181141853855,1.00000000204435,0.659462418074987
23699.9999999356,19.1096962754898,1.00000000209365,0.654276768846228
23799.9999999342,19.0974256822901,1.00000000216043,0.664819216199501
23899.9999999327,19.082848570857,1.00000000196551,0.659403295496601
23999.9999999312,19.0684820924367,1.00000000204286,0.659552074926433
24099.9999999298,19.0537572958488,1.00000000197069,0.658792253076617
24199.9999999283,19.0370641619755,1.00000000218605,0.670790443699043
24299.9999999269,19.0180744942749,1.00000000197212,0.676182740307864
24399.9999999254,18.9989449160574,1.00000000209229,0.675893985945291
24499.999999924,18.977776601674,1.00000000200134,0.67038796051896
24599.9999999225,18.9557889087328,1.00000000202094,0.668494699480288
24699.9999999211,18.9313219889315,1.00000000220969,0.679161989480347
24799.9999999196,18.905008966029,1.00000000217645,0.673727354333014
24899.9999999181,18.8766839298449,1.00000000208313,0.666687868838251
24999.9999999167,18.8486514967678,1.00000000205424,0.665930353162267
25099.9999999152,18.8235670556055,1.00000000214032,0.657124483252621
25199.9999999138,18.8031413822371,1.00000000192225,0.650316363467454
25299.9999999123,18.7873460353306,1.00000000209746,0.645171112025991
25399.9999999109,18.7784708189852,1.00000000193378,0.643400203413958
25499.9999999094,18.7753411448027,1.00000000199655,0.647418799692779
25599.999999908,18.7795751613822,1.00000000195082,0.646248069479215
25699.9999999065,18.7923718312131,1.00000000188714,0.638759120387003
25799.9999999051,18.814127548392,1.00000000195791,0.632778228200284
25899.9999999036,18.8429155026943,1.00000000206023,0.636055464033886
25999.9999999021,18.8743929883386,1.00000000210099,0.634927550500998
26099.9999999007,18.9071034506129,1.00000000226402,0.640813040483271
26199.9999998992,18.9409592041086,1.00000000216051,0.634613153727844
26299.9999998978,18.9773113979212,1.00000000212261,0.640016868376995
26399.9999998963,19.0149742822419,1.00000000214708,0.640848508682851
26499.9999998949,19.054010145128,1.00000000216268,0.635831666536191
26599.9999998934,19.0968372608673,1.00000000206242,0.635020058916283
26699.999999892,19.1432387856008,1.00000000207431,0.632546741075559
26799.9999998905,19.1913154086158,1.00000000215835,0.626869934464022
26899.999999889,19.2419203256696,1.00000000197388,0.630447074647801
26999.9999998876,19.295218584566,1.0000000022824,0.630709793995362
27099.9999998861,19.3494383464786,1.00000000205009,0.63301348006861
27199.9999998847,19.405874108359,1.00000000208482,0.636860477607795
27299.9999998832,19.4637240918219,1.00000000223463,0.643918845690013
27399.9999998818,19.5176937617289,1.00000000224561,0.650574192355334
27499.9999998803,19.5712653619621,1.00000000209311,0.649395797371912
27599.9999998789,19.6246819182271,1.00000000225892,0.655212391695266
27699.9999998774,19.6765393458691,1.00000000217424,0.641861895761868
27799.9999998759,19.7301536399456,1.00000000224939,0.644725671680411
27899.9999998745,19.7782259465523,1.00000000222457,0.652487776232138
27999.999999873,19.8216420852696,1.00000000232138,0.649689622146787
28099.9999998716,19.8620113310554,1.00000000230399,0.656819111139265
28199.9999998701,19.8962425959318,1.00000000225496,0.653835066290929
28299.9999998687,19.9324203034031,1.00000000211691,0.651454897338725
28399.9999998672,19.9705201941017,1.00000000224245,0.64891889242517
28499.9999998658,20.0077853760258,1.00000000221738,0.663330186477739
28599.9999998643,20.0451353872423,1.00000000227937,0.661801324713744
28699.9999998629,20.080178175374,1.00000000235145,0.66867089791358
28799.9999998614,20.1122116307005,1.00000000234077,0.672103785854273
28899.9999998599,20.1453226275463,1.000000002246,0.665602459460009
28999.9999998585,20.177339573988,1.00000000228572,0.668512355532418
