Time,AGPnorm,Energy,Entropy
0,0,1,2.64282686564728e-18
99.9999999999986,0.00436278295221824,0.999999999997359,0.0133811164984875
199.999999999993,0.0114623300911108,1.00000000000056,0.0394291730939534
300,0.0244776066654795,0.999999999996992,0.0771301314520273
400.000000000022,0.0379709109777338,1.00000000000171,0.12567703649322
500.000000000045,0.0536454864527202,1.00000000000975,0.19077071971948
600.000000000068,0.0758703935134313,1.00000000014413,0.278387668921977
700.000000000091,0.131656783467519,1.00000000051806,0.377039619984035
800.000000000113,0.435796442193383,1.00000000096679,0.456781627906675
900.000000000136,1.25677500360982,1.00000000136146,0.510617466738524
1000.00000000016,2.8623964882314,1.00000000170315,0.541542734795871
1100.0000000001,5.30445393707177,1.0000000017868,0.55897844310951
1200,8.44495274834902,1.00000000182929,0.564590730360521
1299.99999999991,12.0480744363334,1.00000000178289,0.566297519271377
1399.99999999982,15.8383737224858,1.00000000163884,0.562124248004886
1499.99999999973,19.5340892205897,1.00000000152169,0.555271793874185
1599.99999999964,22.9604035472902,1.00000000141744,0.547583283654767
1699.99999999955,25.9449954296296,1.00000000139985,0.539193151466777
1799.99999999946,28.4477105828761,1.00000000122127,0.533527011347661
1899.99999999937,30.4020667087165,1.0000000012478,0.524304192921548
1999.99999999928,31.8163748652731,1.00000000109514,0.520836951991317
2099.99999999919,32.7614500666165,1.00000000114871,0.523392433952809
2199.99999999909,33.2015725473879,1.00000000083212,0.484257268021028
2299.999999999,33.3177960750255,1.00000000125261,0.556368701722584
2399.99999999891,33.1832448237671,1.00000000077979,0.461973907027513
2499.99999999882,32.6848938927358,1.00000000091858,0.488701220918207
2599.99999999873,32.1585542250432,1.00000000139015,0.574237927646628
2699.99999999864,31.5951357042197,1.0000000007167,0.439962628741355
2799.99999999855,30.7926715784186,1.0000000006295,0.399939366757072
2899.99999999846,29.970980369671,1.00000000143276,0.552770288760753
2999.99999999837,29.2792626144882,1.00000000138543,0.560738103498606
3099.99999999828,28.5834011630676,1.00000000063015,0.388871372872136
3199.99999999819,27.7892352263171,1.000000000491,0.340402187521669
3299.99999999809,26.9859259976855,1.00000000118967,0.502555476118598
3399.999999998,26.2483398485885,1.00000000142125,0.54701026455523
3499.99999999791,25.6045292091234,1.00000000127868,0.553934136140166
3599.99999999782,24.9757565707894,1.00000000073158,0.408379122843696
3699.99999999773,24.3453876928416,1.00000000049735,0.312682425867777
3799.99999999764,23.7534844493999,1.00000000085126,0.419305500937723
3899.99999999755,23.1696917662578,1.00000000114664,0.53014056687701
3999.99999999746,22.601222743301,1.00000000108409,0.501653776542346
4099.99999999738,22.0546756914766,1.00000000136505,0.541121478711582
4199.99999999775,21.5441261789209,1.00000000128533,0.566195701893629
4299.99999999811,21.0635662729248,1.00000000073242,0.444240601963851
4399.99999999848,20.6442153783809,1.00000000040846,0.318717478247012
4499.99999999884,20.3247166822084,1.00000000074208,0.354880230142722
4599.9999999992,20.0485160202095,1.00000000107797,0.461019685634308
4699.99999999957,19.7383130336116,1.0000000012971,0.529947256485241
4799.99999999993,19.3959684868152,1.00000000108758,0.544068106132979
4900.00000000029,19.071770719069,1.00000000079633,0.487492906321241
5000.00000000066,18.749780003815,1.00000000117281,0.493625503411157
5100.00000000102,18.4027822113302,1.0000000014945,0.535102742798443
5200.00000000139,18.0527675054412,1.00000000140801,0.576041966909115
5300.00000000175,17.7185658773557,1.0000000010744,0.539701641727344
5400.00000000211,17.4242064302865,1.00000000053427,0.419180510691431
5500.00000000248,17.2345629515849,1.00000000046603,0.338127048417932
5600.00000000284,17.1868702083436,1.00000000063004,0.338364512578934
5700.00000000321,17.2141231823734,1.00000000104227,0.423028836166304
5800.00000000357,17.2140402998507,1.00000000116035,0.504235524423817
5900.00000000393,17.1705420639671,1.00000000102639,0.5322815303592
6000.0000000043,17.0969636087039,1.00000000100897,0.525256560338083
6100.00000000466,16.9815191487237,1.00000000120679,0.5461653407649
6200.00000000502,16.8262998915929,1.00000000115361,0.546412578692058
6300.00000000539,16.6619458179897,1.00000000097557,0.533398561033875
6400.00000000575,16.505823725719,1.00000000088144,0.523569969120984
6500.00000000612,16.3551600860108,1.00000000086325,0.531189133271325
6600.00000000648,16.1964293945599,1.0000000009721,0.528835590553364
6700.00000000684,16.0157362835853,1.00000000119477,0.543064976587579
6800.00000000721,15.8105619781623,1.00000000143333,0.546433668466707
6900.00000000757,15.5913639519802,1.0000000014442,0.575582715768754
7000.00000000793,15.3733124851788,1.00000000124049,0.578789033524175
7100.0000000083,15.1649995718581,1.00000000089733,0.522425591997236
7200.00000000866,14.9978476912754,1.0000000005389,0.435388817939629
7300.00000000903,14.9319914519045,1.00000000043871,0.363290221518793
7400.00000000939,15.0141397888244,1.00000000050241,0.347189815596899
7500.00000000975,15.2359548932762,1.00000000073549,0.368845186400153
7600.00000001012,15.5137497994125,1.00000000101537,0.432370987329675
7700.00000001048,15.7745474045704,1.00000000114457,0.486111076187863
7800.00000001084,15.9759857506107,1.00000000116132,0.52795538400408
7900.00000001121,16.1239370157055,1.00000000106987,0.542415176658384
8000.00000001157,16.2370429951326,1.000000001028,0.552608796978563
8100.00000001194,16.306578231892,1.00000000112167,0.575482717318109
8200.0000000123,16.323824139235,1.00000000114756,0.582552318548084
8300.00000001266,16.3056904975634,1.00000000100228,0.568327282031358
8400.00000001303,16.267141883922,1.00000000102369,0.556476756131058
8500.00000001339,16.2146650398997,1.00000000109663,0.548310629465452
8600.00000001376,16.1426762133819,1.00000000121162,0.548600605221477
8700.00000001412,16.0599416686682,1.00000000096947,0.547654054697951
8800.00000001448,15.9869237145821,1.00000000087636,0.541213655429348
8900.00000001485,15.923960911085,1.00000000100648,0.538904353234024
9000.00000001521,15.8544685979602,1.00000000111176,0.542422371037074
9100.00000001557,15.7818721096144,1.00000000099929,0.544813637033757
9200.00000001594,15.7118795038979,1.00000000099587,0.544525474344213
9300.0000000163,15.6396650407112,1.00000000100642,0.549822864529878
9400.00000001667,15.5551151266826,1.00000000115056,0.554206190814072
9500.00000001703,15.4550226762393,1.00000000104511,0.56889437218996
9600.00000001739,15.348020836,1.00000000104682,0.585578469445429
9700.00000001776,15.241469939697,1.00000000082625,0.571804986054918
9800.00000001812,15.1368485318858,1.00000000088939,0.578072013912931
9900.00000001848,15.0250846123511,1.00000000101995,0.581506142213531
10000.0000000188,14.903402513304,1.00000000116689,0.57960274860797
10100.0000000192,14.7731858555103,1.00000000129313,0.591486032297698
10200.0000000196,14.6398646572216,1.00000000134889,0.593153024034717
10300.0000000199,14.5111907771625,1.00000000141999,0.593224727493597
10400.0000000203,14.3899052872202,1.00000000153191,0.59901461012157
10500.0000000207,14.2715509088803,1.00000000122601,0.589015565072932
10600.000000021,14.1471721271235,1.00000000098802,0.559890437656479
10700.0000000214,14.0183508983115,1.00000000071329,0.506331426639101
10800.0000000218,13.9095203016812,1.00000000055349,0.44879608190607
10900.0000000221,13.8643119293676,1.00000000046586,0.395900449083069
11000.0000000225,13.9253748579712,1.00000000051238,0.364713958019062
11100.0000000229,14.1266221882053,1.00000000047655,0.359194120359325
11200.0000000232,14.4604549340069,1.00000000078078,0.375233236807239
11300.0000000236,14.8887627096913,1.00000000083495,0.399928087279506
11400.0000000239,15.3576915744399,1.00000000111694,0.434055965075415
11500.0000000243,15.8079783480801,1.00000000119683,0.470482438481976
11600.0000000247,16.2249192797604,1.00000000119225,0.494494034383115
11700.000000025,16.5920266795517,1.00000000115232,0.525420114597376
11800.0000000254,16.9098704994625,1.00000000110211,0.543887732006743
11900.0000000258,17.188569413928,1.0000000011437,0.549903744948589
12000.0000000261,17.4270591246066,1.00000000105586,0.561313098175248
12100.0000000265,17.6251007895474,1.00000000117903,0.586844363885069
12200.0000000269,17.7853461959811,1.00000000104447,0.590798717741212
12300.0000000272,17.907827721943,1.00000000117061,0.594122401168713
12400.0000000276,17.9920352170312,1.00000000113874,0.596035789726418
12500.0000000279,18.0466418187355,1.00000000108614,0.600304388216136
12600.0000000283,18.0721893166184,1.0000000011359,0.607617425488508
12700.0000000287,18.0763491341768,1.00000000106674,0.591507739547729
12800.000000029,18.0731413298043,1.0000000010155,0.577485005532887
12900.0000000294,18.0535809204778,1.00000000115169,0.575228646980559
13000.0000000298,18.0229466751873,1.00000000097661,0.568909608691555
13100.0000000301,17.9896830655504,1.00000000103032,0.571135099547308
13200.0000000305,17.9429292567836,1.00000000111816,0.575119207865109
13300.0000000309,17.8848535485967,1.00000000107037,0.583535519537153
13400.0000000312,17.8184859546222,1.00000000116627,0.591540608034922
13500.0000000316,17.7449765510946,1.00000000111569,0.587804470284483
13600.0000000319,17.6638388502434,1.0000000011218,0.596699520152837
13700.0000000323,17.5772193320703,1.00000000105685,0.595903568187549
13800.0000000327,17.4920552762273,1.00000000100797,0.583895362062539
13900.000000033,17.4125459709622,1.00000000084242,0.562627382588003
14000.0000000334,17.3433857965221,1.00000000098928,0.551486568616688
14100.0000000338,17.2766467411054,1.00000000109252,0.556167192976325
14200.0000000341,17.2089398451019,1.00000000113592,0.567077722425126
14300.0000000345,17.1402483069578,1.00000000105145,0.564933046662433
14400.0000000349,17.0667282676357,1.00000000115165,0.573160219188861
14500.0000000352,16.993270571184,1.00000000107553,0.576765046286436
14600.0000000356,16.9272730843541,1.00000000096316,0.576139055205712
14700.0000000359,16.8700454727087,1.00000000104648,0.570755527230613
14800.0000000363,16.8124894275521,1.00000000115374,0.569967461312114
14900.0000000367,16.7575815949123,1.00000000098064,0.572578163902735
15000.000000037,16.7120452162109,1.00000000097331,0.550976253548521
15100.0000000374,16.6705910431779,1.00000000108567,0.540341267279406
15200.0000000378,16.6254427046196,1.00000000118602,0.544303614329992
15300.0000000381,16.5835036203947,1.00000000092946,0.547173715612056
15400.0000000385,16.5492880817926,1.00000000100596,0.561294900395224
15500.0000000389,16.5128799435347,1.00000000111578,0.586963693145896
15600.0000000392,16.4726564040003,1.00000000114595,0.599248281926139
15700.0000000396,16.4310281505106,1.00000000106977,0.591270811826084
15800.0000000399,16.3856726740288,1.00000000121963,0.57420300945288
15900.0000000403,16.3375958328671,1.00000000100846,0.569221036681486
16000.0000000407,16.2959718842167,1.00000000100155,0.579970487458732
16100.000000041,16.2579445899458,1.00000000108871,0.589057457952601
16200.0000000414,16.2139896826754,1.00000000115899,0.597208010313758
16300.0000000418,16.169358010359,1.00000000098385,0.603742243944453
16400.0000000418,16.1240058578657,1.00000000115459,0.603285251535
16500.0000000404,16.0717995814295,1.00000000119847,0.613891944808315
16600.0000000389,16.0135224830786,1.00000000114653,0.612508240351223
16700.0000000375,15.9526557825774,1.00000000111701,0.600465162654832
16800.000000036,15.887932414608,1.00000000118123,0.610446205452686
16900.0000000346,15.8211713479651,1.00000000118206,0.615726651394114
17000.0000000331,15.7592716024127,1.00000000095221,0.608941310116491
17100.0000000317,15.7014166741116,1.00000000106333,0.601849300510305
17200.0000000302,15.6413367415694,1.00000000124494,0.600750404544265
17300.0000000287,15.5775649056222,1.00000000116015,0.5950070505335
17400.0000000273,15.5140115689127,1.00000000094436,0.6022448145192
17500.0000000258,15.453645325383,1.00000000107157,0.610726970809535
17600.0000000244,15.3910728833056,1.00000000120776,0.611893355966498
17700.0000000229,15.3285625088991,1.00000000104731,0.59888925684497
17800.0000000215,15.2699915317187,1.0000000009695,0.605207143489222
17900.00000002,15.2109320856279,1.00000000114412,0.599165068028763
18000.0000000186,15.1480973701641,1.00000000108289,0.603558155789595
18100.0000000171,15.083568735425,1.00000000113743,0.606099660794445
18200.0000000156,15.0173344735117,1.00000000115635,0.610384034855253
18300.0000000142,14.9487342487893,1.00000000117546,0.608954123002377
18400.0000000127,14.8782865286465,1.0000000011911,0.614793265166105
18500.0000000113,14.804775503824,1.0000000012218,0.627420406216336
18600.0000000098,14.7296804306727,1.00000000122325,0.624601133876603
18700.0000000084,14.6560453502169,1.00000000098406,0.611233271500081
18800.0000000069,14.5837038270825,1.00000000117279,0.626764864131958
18900.0000000055,14.5089144267725,1.00000000132281,0.633927925243291
19000.000000004,14.4331678994977,1.00000000112586,0.625937475731587
19100.0000000026,14.3584071104394,1.00000000105888,0.616470901209777
19200.0000000011,14.2841816738596,1.00000000105878,0.606452851695045
19299.9999999996,14.2106106395708,1.00000000112676,0.622992402358258
19399.9999999982,14.1378730393296,1.00000000098398,0.623594195244039
19499.9999999967,14.0659042442853,1.00000000091428,0.613493545218998
19599.9999999953,13.9949252486857,1.0000000010457,0.615459610411099
19699.9999999938,13.9257823986316,1.00000000106787,0.622546338353674
19799.9999999924,13.8591122771879,1.00000000114973,0.624169321932282
19899.9999999909,13.7969556173177,1.00000000115869,0.616478233348503
19999.9999999895,13.7412491544361,1.00000000125776,0.62973467774653
20099.999999988,13.6943164543644,1.00000000126865,0.631020019541529
20199.9999999865,13.6619672994335,1.00000000132733,0.633423390824915
20299.9999999851,13.6429663365267,1.00000000140475,0.639198212556046
20399.9999999836,13.6485965045309,1.00000000143559,0.635691642424843
20499.9999999822,13.6717734802341,1.00000000155448,0.639690353182114
20599.9999999807,13.7281140142811,1.00000000143673,0.633048679966966
20699.9999999793,13.8000114923874,1.00000000153463,0.621455042108268
20799.9999999778,13.9036817077646,1.00000000158782,0.613144629375561
20899.9999999764,14.0146405926691,1.00000000149342,0.601548158548175
20999.9999999749,14.1339748024994,1.00000000142324,0.59644287241209
21099.9999999734,14.2346696733387,1.0000000012836,0.587849209944062
21199.999999972,14.3066970050378,1.00000000113791,0.572572944761674
21299.9999999705,14.3411408327029,1.00000000094313,0.544850782800425
21399.9999999691,14.3343282441862,1.0000000008494,0.515093379899647
21499.9999999676,14.2970246295725,1.00000000072764,0.486633742602338
21599.9999999662,14.2427122516693,1.00000000071277,0.456332121969987
21699.9999999647,14.1919084686846,1.00000000064994,0.430353325034341
21799.9999999633,14.1733243602175,1.00000000059615,0.406615335871136
21899.9999999618,14.212926735674,1.00000000052238,0.38778747156467
21999.9999999603,14.3350902178076,1.00000000055439,0.375482689692759
22099.9999999589,14.5686250781805,1.00000000062337,0.369569339900449
22199.9999999574,14.9056429853406,1.00000000065973,0.373249586335631
22299.999999956,15.3778089511033,1.00000000074536,0.379678663572896
22399.9999999545,15.9391941637928,1.00000000082109,0.393003932641709
22499.9999999531,16.6114708474901,1.00000000100599,0.401604344100703
22599.9999999516,17.3356454372708,1.00000000100732,0.416514705884779
22699.9999999502,18.1097817018926,1.00000000110123,0.42730714517552
22799.9999999487,18.9005366882633,1.00000000126332,0.446141656146864
22899.9999999473,19.6763622227004,1.00000000126146,0.459829543999796
22999.9999999458,20.4546847575322,1.00000000131335,0.47052083998975
23099.9999999443,21.188549387744,1.00000000129595,0.489641104199698
23199.9999999429,21.9211146394365,1.0000000012558,0.497719699581017
23299.9999999414,22.6038999263587,1.00000000136701,0.507467038859856
23399.99999994,23.2584018295013,1.0000000012598,0.519606164199032
23499.9999999385,23.8799955932749,1.00000000121034,0.530965857163892
23599.9999999371,24.4626999646,1.00000000134528,0.53877100710214
23699.9999999356,25.0196014712353,1.00000000128647,0.54907705343312
23799.9999999342,25.5337619472977,1.00000000122066,0.560272472353744
23899.9999999327,26.0359030535453,1.00000000122318,0.577915336954361
23999.9999999312,26.498423471896,1.0000000013051,0.581529066959448
24099.9999999298,26.9382095972182,1.00000000126783,0.579274906376489
24199.9999999283,27.340816442508,1.00000000129605,0.603890990069328
24299.9999999269,27.7084438495355,1.00000000124623,0.615044791695035
24399.9999999254,28.0535177731198,1.00000000128351,0.61390636310951
24499.999999924,28.3627115053837,1.00000000123228,0.602817795485613
24599.9999999225,28.6475772730035,1.0000000013386,0.62133432098338
24699.9999999211,28.8810021809506,1.00000000147583,0.638517226984092
24799.9999999196,29.0904428375264,1.00000000118154,0.632187053110246
24899.9999999181,29.2718415641273,1.00000000124403,0.623589325990707
24999.9999999167,29.4356355546422,1.00000000131646,0.620046570620961
25099.9999999152,29.5754596391272,1.00000000131379,0.631915236332897
25199.9999999138,29.685127083579,1.00000000132544,0.63912379869362
25299.9999999123,29.7716844644056,1.00000000135153,0.642222015253726
25399.9999999109,29.8431069373853,1.00000000113888,0.629110697531222
25499.9999999094,29.9139325808274,1.0000000012215,0.618915003838034
25599.999999908,29.973855289823,1.00000000124752,0.61437040621862
25699.9999999065,30.0228008548505,1.00000000113833,0.622298105007887
25799.9999999051,30.0488082765088,1.00000000147786,0.640773178158517
25899.9999999036,30.0557147009166,1.00000000130033,0.632655861417515
25999.9999999021,30.0577814723834,1.00000000123427,0.625170392273542
26099.9999999007,30.0587016106879,1.00000000121489,0.616613935369553
26199.9999998992,30.0608301891866,1.0000000012669,0.621046199839683
26299.9999998978,30.0531087343113,1.00000000130861,0.606627136310519
26399.9999998963,30.0401312297627,1.00000000143041,0.595214409995778
26499.9999998949,30.018237790437,1.00000000132116,0.612621598657772
26599.9999998934,29.9897666383813,1.00000000124862,0.626204050653219
26699.999999892,29.9534359091495,1.00000000132958,0.6309650313327
26799.9999998905,29.9156298139653,1.00000000120733,0.607604434350525
26899.999999889,29.8848216070374,1.00000000121829,0.582264661627766
26999.9999998876,29.8558284771316,1.00000000134216,0.599254421225085
27099.9999998861,29.8199197958796,1.00000000134586,0.601660726902465
27199.9999998847,29.7706088905779,1.00000000130699,0.598249976275496
27299.9999998832,29.7179050452044,1.0000000013053,0.593677512146983
27399.9999998818,29.6660719335204,1.00000000119902,0.589111396455272
27499.9999998803,29.6169608508222,1.00000000128105,0.60351761759664
27599.9999998789,29.5646133187239,1.00000000135891,0.622706843466206
27699.9999998774,29.5020555317262,1.00000000145663,0.631429855987527
27799.9999998759,29.4352145342689,1.00000000127199,0.624707221734699
27899.9999998745,29.3702348995519,1.00000000117319,0.609257423092373
27999.999999873,29.3102198711538,1.00000000114138,0.607136169582735
28099.9999998716,29.2504673397131,1.00000000134903,0.616893234294205
28199.9999998701,29.1879058839369,1.00000000137542,0.613833934860212
28299.9999998687,29.126406249357,1.00000000111891,0.587170308333497
28399.9999998672,29.0752293212297,1.00000000110551,0.572312778305217
28499.9999998658,29.0302027150248,1.00000000136363,0.592190608763483
28599.9999998643,28.9800399144437,1.00000000132898,0.60598822507139
28699.9999998629,28.9243873498316,1.00000000132694,0.611543641060083
28799.9999998614,28.8666693193811,1.00000000128302,0.603060213686186
28899.9999998599,28.8137042319473,1.00000000113132,0.593634371954087
28999.9999998585,28.7639420350511,1.0000000013243,0.620889752611462
29099.999999857,28.7108258113499,1.00000000155445,0.618739726621
