Time,AGPnorm,Energy,Entropy
0,0,1,-1.14722711667871e-17
99.9999999999986,1.47518774688706e-05,1.00000000000023,0.000681401288925595
199.999999999993,0.00124907585149231,1.00000000000152,0.001050498925565
300,0.00325835325238377,0.999999999999352,0.00187167702739457
400.000000000022,0.00443967812689751,1.00000000000139,0.00323549864952317
500.000000000045,0.00528182970866835,1.00000000000038,0.00430896255054132
600.000000000068,0.0077718283888546,0.99999999999991,0.00607655708692526
700.000000000091,0.00970516716424157,1.00000000000165,0.00773957791092642
800.000000000113,0.0123577669826409,0.999999999999485,0.00954926603223111
900.000000000136,0.0152295049526731,1.00000000000104,0.0118290345125954
1000.00000000016,0.0178274851303511,1.00000000000075,0.0138369401959441
1100.0000000001,0.0218338884746671,0.999999999999717,0.0163049179119182
1200,0.0255303631120485,1.00000000000163,0.018808803336618
1299.99999999991,0.0291633163055775,0.999999999999683,0.0213246636183241
1399.99999999982,0.0333764364606897,1.00000000000069,0.0242678485059133
1499.99999999973,0.0377584496764599,1.0000000000011,0.0269939464757787
1599.99999999964,0.0430337986782211,0.999999999999625,0.030054040811841
1699.99999999955,0.0479136590800701,1.00000000000144,0.0332501131955378
1799.99999999946,0.0526350152071719,0.999999999999943,0.0363686604383825
1899.99999999937,0.0582530784379427,1.00000000000043,0.0398876420434933
1999.99999999928,0.0640787799353888,1.00000000000136,0.0432832495853878
2099.99999999919,0.0700992011593981,0.999999999999582,0.0469153164949167
2199.99999999909,0.0758270843329982,1.00000000000114,0.050746132877829
2299.999999999,0.0817524694655388,1.00000000000028,0.0544654800344793
2399.99999999891,0.0886182336211899,1.00000000000027,0.0585755968313425
2499.99999999882,0.0953841845598016,1.00000000000145,0.0626707088350839
2599.99999999873,0.101748233454393,0.999999999999584,0.0669017985442579
2699.99999999864,0.108211479808525,1.00000000000087,0.0713971531247559
2799.99999999855,0.115271621972743,1.00000000000069,0.0758121291941599
2899.99999999846,0.122952712313426,1.00000000000014,0.0806191797570161
2999.99999999837,0.130119833711426,1.00000000000131,0.0855035442451057
3099.99999999828,0.136761802680951,0.999999999999658,0.0904501999855666
3199.99999999819,0.143954072166636,1.00000000000073,0.0957627731996205
3299.99999999809,0.151838929950547,1.00000000000106,0.101077036310164
3399.999999998,0.159719881761647,0.999999999999972,0.106790166410099
3499.99999999791,0.166879504907339,1.00000000000104,0.112679978968635
3599.99999999782,0.173904597782783,0.999999999999892,0.118641790162595
3699.99999999773,0.18172247783187,1.00000000000078,0.125133216585963
3799.99999999764,0.189899087814434,1.00000000000134,0.131786811145094
3899.99999999755,0.197467101569439,0.999999999999968,0.1388619725578
3999.99999999746,0.204463469362025,1.00000000000107,0.146353145153974
4099.99999999738,0.211889980948619,1.00000000000078,0.154081060222349
4199.99999999775,0.220212779654115,1.00000000000179,0.162631865422012
4299.99999999811,0.227874762308879,1.00000000000326,0.171608721650076
4399.99999999848,0.23528418758829,1.0000000000035,0.18110096244855
4499.99999999884,0.242383133781586,1.00000000000714,0.191297692625331
4599.9999999992,0.249868734024043,1.00000000001125,0.201823322365408
4699.99999999957,0.260126466970585,1.00000000001643,0.213124473056117
4799.99999999993,0.266998198109483,1.00000000002504,0.224624550429747
4900.00000000029,0.277652138597135,1.00000000003331,0.236126722256171
5000.00000000066,0.291184773853394,1.00000000004383,0.247962010251714
5100.00000000102,0.304832839345455,1.00000000005716,0.259620094985576
5200.00000000139,0.332836554747668,1.00000000006939,0.271356110682818
5300.00000000175,0.360060801534368,1.00000000008296,0.282893564244541
5400.00000000211,0.404904280524149,1.00000000009704,0.293915256746136
5500.00000000248,0.472607570810884,1.00000000011358,0.305061628107436
5600.00000000284,0.551281079636821,1.0000000001356,0.315839152945179
5700.00000000321,0.676480952483822,1.00000000014507,0.326386032360148
5800.00000000357,0.828055114731625,1.00000000017013,0.336654013506213
5900.00000000393,1.0283206774948,1.0000000001912,0.346428656458243
6000.0000000043,1.29880486658729,1.00000000020849,0.356326623308892
6100.00000000466,1.61563778016252,1.00000000021483,0.36588794780803
6200.00000000502,2.03137500421578,1.00000000023075,0.374900411170885
6300.00000000539,2.52932346132053,1.00000000025128,0.383763252404542
6400.00000000575,3.12225975931673,1.00000000027432,0.392286643225707
6500.00000000612,3.85109672162646,1.00000000027586,0.400785999378464
6600.00000000648,4.68229362158767,1.00000000031108,0.408753619098225
6700.00000000684,5.66976667045994,1.00000000031892,0.416317793126088
6800.00000000721,6.80691346546301,1.0000000003333,0.423903228131062
6900.00000000757,8.0897703298479,1.00000000033979,0.431204778168097
7000.00000000793,9.57153329132996,1.00000000035702,0.438070919926592
7100.0000000083,11.2147425069711,1.00000000036965,0.444734284809135
7200.00000000866,13.0595684468993,1.00000000036681,0.451059348968969
7300.00000000903,15.1120134844973,1.00000000037415,0.457436364218518
7400.00000000939,17.3524813414093,1.00000000038466,0.463371549024331
7500.00000000975,19.8338321441165,1.00000000039581,0.468828394234469
7600.00000001012,22.521225140511,1.00000000039188,0.474367503064313
7700.00000001048,25.4343454877731,1.0000000004154,0.479518476259472
7800.00000001084,28.5892558938819,1.00000000040873,0.484592112366644
7900.00000001121,31.9571163898625,1.00000000042072,0.489270376252322
8000.00000001157,35.5790666700518,1.00000000043386,0.493613387565964
8100.00000001194,39.4264212767322,1.00000000042889,0.498157263048244
8200.0000000123,43.5015502931923,1.00000000044561,0.502213525427508
8300.00000001266,47.8250449566511,1.00000000044434,0.506046293297458
8400.00000001303,52.3635713119337,1.00000000045146,0.509774014809526
8500.00000001339,57.1430765110018,1.00000000043515,0.513313717920238
8600.00000001376,62.1415163814852,1.00000000044462,0.51683145177758
8700.00000001412,67.3508816552132,1.00000000045796,0.51991396009828
8800.00000001448,72.7893042794244,1.00000000046445,0.522835139951463
8900.00000001485,78.4233839052699,1.00000000046658,0.525713183847302
9000.00000001521,84.2655114223581,1.00000000045387,0.528453944524091
9100.00000001557,90.2996162654986,1.00000000046649,0.531068699373723
9200.00000001594,96.5124319657482,1.00000000046966,0.533404294321462
9300.0000000163,102.916685763413,1.00000000046704,0.5355470117638
9400.00000001667,109.480350346624,1.00000000045341,0.537886888012477
9500.00000001703,116.207840065009,1.00000000046434,0.539788852671639
9600.00000001739,123.086022716552,1.00000000045792,0.541730880788487
9700.00000001776,130.100447051665,1.00000000045384,0.543500041966296
9800.00000001812,137.257535589424,1.00000000045613,0.545021908587572
9900.00000001848,144.527872592165,1.00000000044592,0.546841962562697
10000.0000000188,151.912653096284,1.0000000004449,0.548231054330894
10100.0000000192,159.400117072644,1.00000000046112,0.549429166756102
10200.0000000196,166.97510716624,1.00000000044999,0.550813118960197
10300.0000000199,174.641155383337,1.0000000004522,0.551722734302087
10400.0000000203,182.36988444399,1.00000000044349,0.553028252161941
10500.0000000207,190.163262393242,1.00000000045389,0.554038623822581
10600.000000021,198.010520229224,1.00000000046492,0.554451942163541
10700.0000000214,205.894845044315,1.00000000044806,0.555792309016599
10800.0000000218,213.820377714883,1.00000000044974,0.55639279944213
10900.0000000221,221.759938283113,1.00000000043946,0.557171869455959
11000.0000000225,229.714993540617,1.00000000043325,0.558118745584169
11100.0000000229,237.678929051614,1.00000000042408,0.558111035734095
11200.0000000232,245.631389213455,1.00000000042824,0.558992764219473
11300.0000000236,253.57926190305,1.00000000042812,0.559553075890682
11400.0000000239,261.498435886792,1.00000000041281,0.55932381341467
11500.0000000243,269.387633505814,1.00000000041545,0.560211960909752
11600.0000000247,277.246188471377,1.00000000041362,0.560271143932317
11700.000000025,285.051041147127,1.00000000039975,0.560265751196151
11800.0000000254,292.809886322923,1.00000000041235,0.560998360970207
11900.0000000258,300.503943486588,1.00000000040828,0.560674463515005
12000.0000000261,308.129854560688,1.00000000039863,0.560931652554906
12100.0000000265,315.68936818406,1.00000000040424,0.561314910280363
12200.0000000269,323.162705445942,1.00000000038852,0.560802159930751
12300.0000000272,330.554558413546,1.0000000003922,0.561205722846046
12400.0000000276,337.853119191074,1.00000000038764,0.561244334304099
12500.0000000279,345.053953790081,1.00000000037378,0.560819199724147
12600.0000000283,352.159245172014,1.00000000038348,0.561167933820584
12700.0000000287,359.152736127941,1.00000000038939,0.560743285485339
12800.000000029,366.037981212002,1.00000000036903,0.56061221227042
12900.0000000294,372.807050793489,1.00000000038115,0.560779777716647
13000.0000000298,379.455772365326,1.00000000037239,0.560245733523415
13100.0000000301,385.986996824186,1.00000000036802,0.56005642497051
13200.0000000305,392.386464074155,1.00000000036411,0.560396102493222
13300.0000000309,398.659949749352,1.00000000035472,0.559605620163978
13400.0000000312,404.800435125726,1.00000000036253,0.559705979465318
13500.0000000316,410.804380051042,1.00000000036786,0.559453167454971
13600.0000000319,416.677430642239,1.00000000035258,0.558709749092686
13700.0000000323,422.403473287382,1.0000000003478,0.55877137099352
13800.0000000327,427.991611094442,1.00000000034151,0.558963016424518
13900.000000033,433.439388043333,1.00000000033736,0.558132435672057
14000.0000000334,438.738519688106,1.0000000003376,0.557794689965445
14100.0000000338,443.8971617,1.00000000034521,0.557758388402583
14200.0000000341,448.90520190525,1.00000000034078,0.557199258607787
14300.0000000345,453.766381996612,1.00000000031607,0.556884415974381
14400.0000000349,458.482796973345,1.00000000032453,0.55678924341867
14500.0000000352,463.047825169351,1.00000000032101,0.556588733050575
14600.0000000356,467.467307840193,1.00000000032974,0.555765297589554
14700.0000000359,471.734059071913,1.00000000030977,0.555719149354452
14800.0000000363,475.852918931364,1.00000000031274,0.555390146597222
14900.0000000367,479.827273900654,1.00000000031311,0.555035549361332
15000.000000037,483.648149625213,1.00000000030687,0.554801176809138
15100.0000000374,487.324715096056,1.00000000031041,0.554584523680976
15200.0000000378,490.851584786903,1.00000000030272,0.553836390832299
15300.0000000381,494.232187154316,1.00000000030543,0.553159277512877
15400.0000000385,497.469864142107,1.00000000029613,0.553279101764612
15500.0000000389,500.558693365586,1.00000000029219,0.553462324881083
15600.0000000392,503.507619910677,1.00000000029459,0.553639954771453
15700.0000000396,506.312483761961,1.00000000029388,0.552471453145317
15800.0000000399,508.977901920194,1.00000000028894,0.55170641478353
15900.0000000403,511.50477221871,1.00000000028247,0.550898370208053
16000.0000000407,513.891986596647,1.0000000002831,0.551450566221161
16100.000000041,516.14282451752,1.00000000028311,0.55258822583791
16200.0000000414,518.263720524237,1.00000000027678,0.553107084722451
16300.0000000418,520.251040854748,1.00000000026991,0.5517020075618
16400.0000000418,522.11194455968,1.00000000026911,0.548811827904309
16500.0000000404,523.836212573828,1.00000000026317,0.547495992260509
16600.0000000389,525.432208323695,1.00000000026858,0.548712030587886
16700.0000000375,526.903071630097,1.00000000027024,0.551769599614324
16800.000000036,528.252705796594,1.00000000027439,0.553634383395588
16900.0000000346,529.489194317754,1.00000000026728,0.552611623530949
17000.0000000331,530.606857075938,1.00000000025899,0.548347812094919
17100.0000000317,531.606364133222,1.00000000025526,0.543991609272738
17200.0000000302,532.483940534343,1.00000000024415,0.542835068646675
17300.0000000287,533.240591840022,1.00000000026047,0.54767056448368
17400.0000000273,533.89091370167,1.00000000025591,0.553905146627059
17500.0000000258,534.443446991287,1.00000000026827,0.55692933225231
17600.0000000244,534.906230556587,1.00000000025849,0.552946408453392
17700.0000000229,535.273309102402,1.00000000025016,0.544527432475695
17800.0000000215,535.531579152174,1.00000000022679,0.537355481427052
17900.00000002,535.677468573254,1.0000000002172,0.536806150942856
18000.0000000186,535.716200984002,1.00000000023398,0.544848502029363
18100.0000000171,535.667356721338,1.00000000025126,0.555283660213927
18200.0000000156,535.550695845694,1.00000000028325,0.560574236811407
18300.0000000142,535.370881464815,1.00000000027596,0.556724581610215
18400.0000000127,535.124106689592,1.00000000025049,0.545334398399555
18500.0000000113,534.790866799935,1.00000000022451,0.531780886362003
18600.0000000098,534.357557330871,1.00000000019546,0.526043095076341
18700.0000000084,533.826478364717,1.00000000020693,0.532852975998278
18800.0000000069,533.214974452377,1.00000000024246,0.548413917169751
18900.0000000055,532.552691134449,1.00000000027618,0.5615303055726
19000.000000004,531.857399549896,1.00000000029195,0.563973846912886
19100.0000000026,531.130026972315,1.00000000027856,0.555033087384874
19200.0000000011,530.355361668588,1.00000000023815,0.536856778882416
19299.9999999996,529.506663169746,1.00000000019655,0.519096797917046
19399.9999999982,528.570226509399,1.00000000017312,0.511742124710538
19499.9999999967,527.548672695142,1.00000000019693,0.523069464709623
19599.9999999953,526.468064959084,1.00000000024956,0.5454287690591
19699.9999999938,525.359864336154,1.00000000028154,0.563073820493049
19799.9999999924,524.243724578982,1.00000000031867,0.568067013768468
19899.9999999909,523.123902924704,1.00000000030737,0.559542116618946
19999.9999999895,521.984254390485,1.00000000025957,0.538913931032486
20099.999999988,520.796863026904,1.00000000020168,0.512843488445094
20199.9999999865,519.538402089424,1.00000000016033,0.495641642593787
20299.9999999851,518.202195151796,1.00000000016227,0.499490006631759
20399.9999999836,516.808297757338,1.00000000021658,0.524206416538555
20499.9999999822,515.38674303449,1.00000000027514,0.55197807231397
20599.9999999807,513.965677601002,1.00000000032255,0.568337947399421
20699.9999999793,512.561834678746,1.00000000033858,0.570639004408058
20799.9999999778,511.171167480028,1.00000000031614,0.557955216873902
20899.9999999764,509.774617816346,1.00000000026659,0.531942219808663
20999.9999999749,508.343562006245,1.00000000019343,0.500532203496741
21099.9999999734,506.854278100334,1.00000000014997,0.479300324846515
21199.999999972,505.302079448926,1.00000000015277,0.481055857042928
21299.9999999705,503.700060902105,1.00000000019829,0.507941256597764
21399.9999999691,502.077513858153,1.00000000027093,0.542321136318508
21499.9999999676,500.462804314065,1.00000000034301,0.566356682071505
21599.9999999662,498.873250090818,1.00000000035863,0.574490463158971
21699.9999999647,497.313690946021,1.00000000035301,0.568125613806129
21799.9999999633,495.771476048039,1.00000000030836,0.548716828533888
21899.9999999618,494.224436889526,1.00000000024216,0.517040040674935
21999.9999999603,492.647544624873,1.00000000017992,0.482664149191649
22099.9999999589,491.022397921595,1.00000000013577,0.462693739431582
22199.9999999574,489.348896312924,1.00000000015007,0.468399305022867
22299.999999956,487.639742478342,1.00000000020233,0.499546176388548
22399.9999999545,485.920234662016,1.00000000027755,0.537573144009985
22499.9999999531,484.214204410495,1.00000000034574,0.563576852248978
22599.9999999516,482.536390428954,1.00000000036852,0.574088628100235
22699.9999999502,480.89255494633,1.00000000037338,0.570761742303007
22799.9999999487,479.275840262754,1.00000000033481,0.556771224718651
22899.9999999473,477.670457418464,1.0000000002893,0.530390001285986
22999.9999999458,476.056718384908,1.0000000002176,0.494851552458882
23099.9999999443,474.415174689261,1.00000000015841,0.463623014458826
23199.9999999429,472.738851839492,1.00000000013457,0.45073159392652
23299.9999999414,471.028351359247,1.00000000015264,0.463038424289304
23399.99999994,469.297940000021,1.00000000021687,0.496119074280621
23499.9999999385,467.566046451381,1.0000000002813,0.532600582607831
23599.9999999371,465.848758821505,1.00000000033994,0.558568793357065
23699.9999999356,464.158336344991,1.00000000037392,0.569626364935278
23799.9999999342,462.499512109036,1.00000000037552,0.567806314036026
23899.9999999327,460.868142875886,1.00000000035437,0.55702289113783
23999.9999999312,459.255823697432,1.00000000032219,0.537222985744861
24099.9999999298,457.64837142469,1.0000000002573,0.508853560814796
24199.9999999283,456.03246803399,1.00000000019751,0.476307919076356
24299.9999999269,454.397884455313,1.00000000016088,0.453192999030529
24399.9999999254,452.741090728988,1.00000000014726,0.447313246132571
24499.999999924,451.066902665568,1.00000000016714,0.460331318117948
24599.9999999225,449.382547508517,1.00000000021795,0.488651140504354
24699.9999999211,447.701192947396,1.00000000027123,0.522200777137059
24799.9999999196,446.03303114203,1.00000000031759,0.546405467984076
24899.9999999181,444.385272798419,1.00000000036906,0.559982430441815
24999.9999999167,442.762677695433,1.00000000036824,0.559710651346285
25099.9999999152,441.164265669439,1.00000000035976,0.55290147256584
25199.9999999138,439.585811565478,1.00000000031819,0.538743078229266
25299.9999999123,438.02015372923,1.00000000027861,0.520840914052874
25399.9999999109,436.458763457735,1.00000000025021,0.498029336076157
25499.9999999094,434.894809909666,1.00000000020589,0.474040378951017
25599.999999908,433.322747284399,1.00000000017806,0.456617220124573
25699.9999999065,431.742383647599,1.00000000017194,0.44964284105829
25799.9999999051,430.155276804033,1.00000000017664,0.457221579385605
25899.9999999036,428.56530527456,1.00000000020565,0.475611113053676
25999.9999999021,426.978888039857,1.00000000024995,0.49975443583895
26099.9999999007,425.401127369663,1.00000000029742,0.523829924351257
26199.9999998992,423.837017183635,1.00000000032952,0.540160219673331
26299.9999998978,422.289979269303,1.00000000034694,0.545179387567921
26399.9999998963,420.760674610847,1.00000000035559,0.54453009680911
26499.9999998949,419.248532141263,1.00000000033305,0.537044204618268
26599.9999998934,417.751142718851,1.00000000031319,0.527124201046248
26699.999999892,416.264598853502,1.00000000028525,0.515451968354446
26799.9999998905,414.785525275131,1.00000000026039,0.502291554601665
26899.999999889,413.310302173942,1.0000000002388,0.488481610772576
26999.9999998876,411.837320942094,1.00000000021184,0.473811757195328
27099.9999998861,410.36524995904,1.00000000019309,0.464010647082212
27199.9999998847,408.894639434794,1.00000000019572,0.459234944622294
27299.9999998832,407.426826103255,1.00000000019823,0.463627816337555
27399.9999998818,405.962799033689,1.0000000002236,0.475209694264148
27499.9999998803,404.505449850722,1.0000000002454,0.491287572440263
27599.9999998789,403.056399166821,1.00000000027001,0.507365952071258
27699.9999998774,401.617325540303,1.00000000030021,0.520777607982505
27799.9999998759,400.189943790658,1.00000000032478,0.527302429318715
27899.9999998745,398.774643164259,1.00000000032316,0.528420114225617
27999.999999873,397.371047590585,1.00000000032915,0.526867776251248
28099.9999998716,395.979137124743,1.00000000031882,0.521273166024921
28199.9999998701,394.597024709569,1.00000000028412,0.516384717105736
28299.9999998687,393.224202564943,1.00000000026741,0.510412070305728
28399.9999998672,391.859339345126,1.00000000024967,0.504612234246453
28499.9999998658,390.501722744725,1.00000000025658,0.500595754728041
28599.9999998643,389.151333034612,1.00000000023156,0.493847679272422
28699.9999998629,387.807686960503,1.0000000002315,0.485709223191593
28799.9999998614,386.471696379237,1.00000000021582,0.478278258593442
