Time,AGPnorm,Energy,Entropy
0,0,1,-1.19527851423594e-17
99.9999999999986,4.2303603152738e-05,1.0000000000026,0.00169112311679887
199.999999999993,0.00381582431542811,0.999999999999133,0.00271453857909488
300,0.00953773808426725,1.00000000000196,0.00484735374367586
400.000000000022,0.0133655272276274,1.00000000000115,0.00807678347866078
500.000000000045,0.0164101050012397,0.999999999999436,0.0110288234230231
600.000000000068,0.0229849936147819,1.00000000000283,0.0151817071427259
700.000000000091,0.0285134292666748,0.999999999999329,0.0193730272870899
800.000000000113,0.0363538142394028,1.00000000000148,0.0240346873064742
900.000000000136,0.0452495880364818,1.00000000000174,0.0292627152981763
1000.00000000016,0.05276043901026,0.999999999998954,0.034585027623148
1100.0000000001,0.0625008672044609,1.00000000000288,0.0405012466857521
1200,0.0732924517444762,0.999999999999791,0.0466487999448132
1299.99999999991,0.0838894321823512,1.00000000000083,0.0533151723278674
1399.99999999982,0.0949327498866403,1.00000000000226,0.0602919237587947
1499.99999999973,0.106059436768959,0.999999999998744,0.0676091658137988
1599.99999999964,0.118272104078859,1.00000000000271,0.0755027802707528
1699.99999999955,0.131780025343103,1.00000000000035,0.083729472168174
1799.99999999946,0.144147380771028,1.00000000000009,0.0926564501917109
1899.99999999937,0.156449079850407,1.00000000000265,0.101961554912794
1999.99999999928,0.169712285970617,0.999999999998913,0.111917127137323
2099.99999999919,0.18301257967254,1.00000000000233,0.122856701717694
2199.99999999909,0.19688870789064,1.00000000000104,0.134510134869701
2299.999999999,0.209784794539767,1.00000000000001,0.147487413539103
2399.99999999891,0.222688342673248,1.00000000000488,0.161800950954151
2499.99999999882,0.235986341469117,1.000000000007,0.177894074875287
2599.99999999873,0.249792861381887,1.00000000002226,0.196124906235099
2699.99999999864,0.262671491029469,1.00000000004941,0.215651233460119
2799.99999999855,0.27422812406376,1.00000000009391,0.236224052688793
2899.99999999846,0.294580665093833,1.00000000015053,0.257189482374967
2999.99999999837,0.310837518148942,1.00000000021754,0.277832477334689
3099.99999999828,0.345410170824464,1.00000000030194,0.298337575358647
3199.99999999819,0.39884199189849,1.00000000038155,0.317938752893914
3299.99999999809,0.472524078399945,1.00000000043731,0.337220832396078
3399.999999998,0.605144169121427,1.00000000053093,0.355827768513972
3499.99999999791,0.784742577819405,1.0000000006216,0.373299393908353
3599.99999999782,1.04844928470929,1.00000000074581,0.390447511328321
3699.99999999773,1.4140516254617,1.00000000080449,0.406309250857027
3799.99999999764,1.89013287597838,1.00000000088735,0.421561779250228
3899.99999999755,2.51028811856285,1.00000000096655,0.436266798576523
3999.99999999746,3.28467866109372,1.00000000102457,0.449305231803003
4099.99999999738,4.23655657918269,1.00000000106366,0.462425855547791
4199.99999999775,5.37098177292177,1.00000000118563,0.474128860118844
4299.99999999811,6.71664943868458,1.00000000116393,0.485179430149688
4399.99999999848,8.26540129514861,1.00000000123763,0.495869064284343
4499.99999999884,10.0320107846399,1.00000000125051,0.504951530043707
4599.9999999992,12.0368572183253,1.00000000121941,0.514124189365811
4699.99999999957,14.2386293377574,1.00000000125178,0.522630623657352
4799.99999999993,16.6872336472289,1.00000000126214,0.529638041827056
4900.00000000029,19.3442725733938,1.00000000133116,0.53707714509547
5000.00000000066,22.1977541996551,1.00000000134926,0.543195466064884
5100.00000000102,25.288517136732,1.00000000139115,0.548992528537865
5200.00000000139,28.5314820671674,1.00000000132981,0.555030512638543
5300.00000000175,31.9781007432579,1.00000000136956,0.559275153268286
5400.00000000211,35.5955757734489,1.00000000133295,0.564218423326939
5500.00000000248,39.3307297221477,1.0000000013779,0.568532102132582
5600.00000000284,43.2485478164065,1.00000000136569,0.571792608250508
5700.00000000321,47.2493304660947,1.00000000132224,0.576028442349395
5800.00000000357,51.3629624986412,1.00000000136181,0.578446873339086
5900.00000000393,55.5860835605141,1.00000000136857,0.581143631305636
6000.0000000043,59.8353776017525,1.00000000130809,0.584273610162505
6100.00000000466,64.182681548482,1.00000000124353,0.5858683442452
6200.00000000502,68.5442085992452,1.00000000123014,0.588391435634519
6300.00000000539,72.9202575662225,1.00000000124523,0.590028950411781
6400.00000000575,77.3367088104777,1.00000000126449,0.591040879896882
6500.00000000612,81.7016607403286,1.00000000126567,0.592877049634206
6600.00000000648,86.0778878925608,1.00000000123026,0.593568730526468
6700.00000000684,90.4109286895378,1.00000000123083,0.594772876323176
6800.00000000721,94.677421383896,1.00000000122767,0.595732579888142
6900.00000000757,98.9204002146687,1.00000000119474,0.595414029543423
7000.00000000793,103.058164516476,1.00000000118235,0.596952624195273
7100.0000000083,107.134658040281,1.00000000115707,0.596786807213002
7200.00000000866,111.125469991121,1.00000000110116,0.597213822323071
7300.00000000903,114.995543484689,1.00000000111039,0.59771769549514
7400.00000000939,118.791560563242,1.00000000107794,0.597067044956258
7500.00000000975,122.449722674002,1.00000000110953,0.597639200043519
7600.00000001012,125.998722698697,1.00000000104874,0.597239359586026
7700.00000001048,129.434890582568,1.00000000104096,0.596858436886051
7800.00000001084,132.719053656517,1.0000000010314,0.597650588202261
7900.00000001121,135.897784900182,1.00000000100852,0.596049973616284
8000.00000001157,138.923615174448,1.00000000099991,0.596894415470187
8100.00000001194,141.816344310061,1.00000000096878,0.59599947498613
8200.0000000123,144.58050452076,1.0000000009599,0.59577706277404
8300.00000001266,147.185884628044,1.00000000096581,0.59533476385991
8400.00000001303,149.667376025135,1.00000000093917,0.595202282389827
8500.00000001339,151.998854911269,1.00000000092312,0.594100629718312
8600.00000001376,154.18497725204,1.00000000092531,0.594801642301996
8700.00000001412,156.244209821879,1.00000000091759,0.592662020536703
8800.00000001448,158.143712442048,1.0000000008839,0.593935662658226
8900.00000001485,159.920512783958,1.00000000087214,0.592128928719296
9000.00000001521,161.55182858337,1.00000000083656,0.592236885362896
9100.00000001557,163.045785482263,1.00000000084361,0.59220395673381
9200.00000001594,164.415312652178,1.00000000083508,0.59060905105175
9300.0000000163,165.64174287978,1.00000000083488,0.591936946267946
9400.00000001667,166.748602271834,1.00000000081013,0.589692454323999
9500.00000001703,167.727766628505,1.00000000077957,0.591015610133602
9600.00000001739,168.580427305586,1.0000000007856,0.589911393829407
9700.00000001776,169.321855741747,1.00000000077371,0.589161343602787
9800.00000001812,169.939407901108,1.00000000073817,0.590275125440672
9900.00000001848,170.452437331876,1.00000000073862,0.588023087547649
10000.0000000188,170.856367676787,1.00000000072389,0.587713880982899
10100.0000000192,171.154560543006,1.00000000070505,0.589455639729005
10200.0000000196,171.363289564379,1.00000000072196,0.585721789036654
10300.0000000199,171.469309338181,1.00000000071744,0.586288706007538
10400.0000000203,171.493109332641,1.00000000075082,0.589024992368691
10500.0000000207,171.43680222801,1.000000000728,0.584372724209919
10600.000000021,171.293636347935,1.00000000070542,0.582616100596343
10700.0000000214,171.083913005372,1.00000000076828,0.588107748290743
10800.0000000218,170.806129536585,1.00000000073062,0.583968245277787
10900.0000000221,170.461105423523,1.00000000067714,0.576050467326333
11000.0000000225,170.053262509162,1.000000000757,0.585856950278175
11100.0000000229,169.595947931465,1.00000000077574,0.585521878574031
11200.0000000232,169.089589818445,1.00000000067229,0.570255387547685
11300.0000000236,168.521809375186,1.00000000071152,0.578706954569938
11400.0000000239,167.921738484512,1.00000000081355,0.586005600817472
11500.0000000243,167.290630343193,1.00000000072043,0.574075274743289
11600.0000000247,166.609285310846,1.00000000064318,0.562942904927647
11700.000000025,165.895747476645,1.00000000078467,0.583658782848158
11800.0000000254,165.162468856817,1.00000000077491,0.579759930716242
11900.0000000258,164.405213874391,1.00000000069549,0.565884305916454
12000.0000000261,163.60974016263,1.00000000066615,0.559580743755902
12100.0000000265,162.791444341839,1.00000000085263,0.584037348799129
12200.0000000269,161.969969660833,1.00000000079051,0.574481798167715
12300.0000000272,161.129268142503,1.00000000069608,0.560898784399879
12400.0000000276,160.2627444152,1.00000000071224,0.554155925646894
12500.0000000279,159.381797190929,1.00000000083085,0.579157794558538
12600.0000000283,158.500215926789,1.00000000084349,0.574410613081579
12700.0000000287,157.614885419292,1.00000000071753,0.558541736773756
12800.000000029,156.709541967131,1.00000000068928,0.549637794623504
12900.0000000294,155.791393615845,1.00000000073904,0.562927638931246
13000.0000000298,154.876888801787,1.00000000091726,0.580806952232909
13100.0000000301,153.964952151643,1.00000000075933,0.5548386408362
13200.0000000305,153.048499107194,1.00000000071062,0.551856339342058
13300.0000000309,152.119565984477,1.00000000068345,0.546240035841393
13400.0000000312,151.187704103858,1.00000000086401,0.568584835685137
13500.0000000316,150.266504407155,1.00000000088783,0.571539330003744
13600.0000000319,149.347632883231,1.00000000074453,0.544768067072226
13700.0000000323,148.428634930928,1.00000000074095,0.549716384348049
13800.0000000327,147.503943924389,1.00000000071144,0.545750906676977
13900.000000033,146.58050567431,1.00000000084934,0.562234917278677
14000.0000000334,145.667768424893,1.00000000089025,0.567523320880933
14100.0000000338,144.760223949426,1.0000000007335,0.541374938065733
14200.0000000341,143.856095087238,1.00000000072794,0.542683710448783
14300.0000000345,142.951912590681,1.00000000075282,0.550038574077986
14400.0000000349,142.050609679026,1.00000000080012,0.551405236366971
14500.0000000352,141.157272184472,1.00000000087606,0.557424125269434
14600.0000000356,140.271689615449,1.00000000083331,0.551784913213027
14700.0000000359,139.392526131421,1.0000000007401,0.531153002701495
14800.0000000363,138.517509372982,1.00000000078523,0.544584000396058
14900.0000000367,137.647420678172,1.00000000076645,0.553928147792539
15000.000000037,136.783941179005,1.00000000078997,0.547899692108142
15100.0000000374,135.926584688916,1.00000000080884,0.54643892570774
15200.0000000378,135.077696585008,1.00000000083708,0.544767861971373
15300.0000000381,134.235943218719,1.00000000075732,0.532765556887407
15400.0000000385,133.400294905306,1.00000000075152,0.538390506311177
15500.0000000389,132.572361890091,1.00000000077964,0.553521652741125
15600.0000000392,131.750784341932,1.00000000080375,0.550695768329491
15700.0000000396,130.936927937335,1.0000000007601,0.539540677657583
15800.0000000399,130.130438810372,1.00000000076447,0.535913394460694
15900.0000000403,129.330860348516,1.00000000080495,0.542777560175834
16000.0000000407,128.53978908659,1.00000000079618,0.536323235158026
16100.000000041,127.756295677008,1.00000000074782,0.540357668557175
16200.0000000414,126.981125478211,1.00000000080435,0.554443488167457
16300.0000000418,126.213740243211,1.000000000759,0.548170364029147
16400.0000000418,125.453679598975,1.00000000076826,0.536558492440369
16500.0000000404,124.701661564344,1.00000000075316,0.532970373669584
16600.0000000389,123.957333823973,1.00000000076857,0.540139160477602
16700.0000000375,123.221113078016,1.0000000007678,0.543485965665553
16800.000000036,122.493427241349,1.00000000075479,0.540868227919845
16900.0000000346,121.774024718389,1.00000000078585,0.548809477391425
17000.0000000331,121.063354406512,1.00000000075188,0.551966003373466
17100.0000000317,120.360630853014,1.00000000072246,0.540101411108889
17200.0000000302,119.66610826879,1.00000000074358,0.535824715957267
17300.0000000287,118.980052005221,1.00000000074233,0.533005194175535
17400.0000000273,118.302411140112,1.00000000074549,0.539891770949466
17500.0000000258,117.632956019351,1.00000000080358,0.550313108241583
17600.0000000244,116.971352552551,1.00000000077717,0.547772286427343
17700.0000000229,116.317987764928,1.00000000077831,0.547285298027448
17800.0000000215,115.67306607353,1.00000000073345,0.550027312139759
17900.00000002,115.037295743372,1.00000000070072,0.541159501426126
18000.0000000186,114.410716998597,1.00000000070438,0.532454706461957
18100.0000000171,113.792712964324,1.00000000076747,0.533738801808788
18200.0000000156,113.183284256162,1.00000000073787,0.535234899894959
18300.0000000142,112.582135483829,1.00000000081239,0.542629580782898
18400.0000000127,111.987906514733,1.00000000081513,0.554306283569484
18500.0000000113,111.40047693506,1.00000000080487,0.551709932002251
18600.0000000098,110.820365362401,1.00000000081195,0.548895492979047
18700.0000000084,110.248042625695,1.00000000075406,0.547795818350587
18800.0000000069,109.685295155524,1.00000000069865,0.540626516484604
18900.0000000055,109.133216640072,1.00000000067429,0.527589577692815
19000.000000004,108.590952545019,1.00000000072723,0.528120965609057
19100.0000000026,108.056816868795,1.00000000081333,0.535030807563838
19200.0000000011,107.529406463955,1.00000000080509,0.538916643083526
19299.9999999996,107.008936909393,1.00000000076639,0.540180857947804
19399.9999999982,106.493962316129,1.00000000081482,0.553353115973066
19499.9999999967,105.983595721894,1.00000000081075,0.559129237790436
19599.9999999953,105.478819526352,1.00000000082218,0.549402825726595
19699.9999999938,104.980952414852,1.00000000077529,0.545011666530445
19799.9999999924,104.492856038277,1.00000000069875,0.534810234510127
19899.9999999909,104.016544430939,1.00000000067798,0.527858645878721
19999.9999999895,103.551028554572,1.000000000696,0.526314508415082
20099.999999988,103.093792094214,1.00000000080967,0.52960366293329
20199.9999999865,102.642181950638,1.00000000082944,0.535716919872057
20299.9999999851,102.196006167277,1.00000000074235,0.532443119398809
20399.9999999836,101.75538186231,1.00000000079627,0.539363432840075
20499.9999999822,101.317327370998,1.00000000085513,0.552003933940388
20599.9999999807,100.881145921451,1.00000000084688,0.56044784573843
20699.9999999793,100.448680258258,1.00000000080522,0.551314429974803
20799.9999999778,100.022351697663,1.00000000072806,0.53762237651607
20899.9999999764,99.6050426790913,1.00000000070883,0.534414856007468
20999.9999999749,99.1993730729389,1.00000000069064,0.529454408495113
21099.9999999734,98.8044577391009,1.00000000074513,0.530735811029026
21199.999999972,98.4184215305424,1.00000000075458,0.529415884178689
21299.9999999705,98.0388186452483,1.00000000080815,0.527698685182157
21399.9999999691,97.6643505124886,1.00000000079906,0.530137490325738
21499.9999999676,97.2937920792771,1.00000000077244,0.531088516256847
21599.9999999662,96.9271552433009,1.00000000079531,0.536631034815725
21699.9999999647,96.5617046393733,1.00000000088871,0.544490190290968
21799.9999999633,96.1951529798477,1.00000000087594,0.553206793992058
21899.9999999618,95.8300829436922,1.00000000079561,0.554320373066937
21999.9999999603,95.469763607703,1.0000000007591,0.543709239624459
22099.9999999589,95.116741806326,1.00000000071353,0.534080615775677
22199.9999999574,94.7730311300037,1.00000000075042,0.537512623072782
22299.999999956,94.4387102502538,1.00000000073551,0.538021428687348
22399.9999999545,94.1143177439224,1.00000000074793,0.535051861919948
22499.9999999531,93.7980096237786,1.000000000717,0.538155094443299
22599.9999999516,93.4883028522908,1.00000000075678,0.532251451470202
22699.9999999502,93.1847214044881,1.00000000078325,0.531946051808772
22799.9999999487,92.8841576956288,1.00000000082125,0.536112624828641
22899.9999999473,92.586432493462,1.00000000078678,0.537094870537189
22999.9999999458,92.2908563953541,1.00000000081841,0.543172976046423
23099.9999999443,91.9949987798864,1.00000000082843,0.542376852730756
23199.9999999429,91.6986100751435,1.0000000008468,0.545528364580231
23299.9999999414,91.4021261032567,1.00000000079715,0.555115575440434
23399.99999994,91.1090059820433,1.00000000078328,0.553625089943143
23499.9999999385,90.8221500723192,1.000000000754,0.54549290843813
23599.9999999371,90.5424172581263,1.00000000075192,0.542417315259692
23699.9999999356,90.2708796358027,1.00000000074098,0.543482494542184
23799.9999999342,90.0076738562834,1.00000000072227,0.545243084273844
23899.9999999327,89.753498774389,1.00000000072104,0.540061699320998
23999.9999999312,89.5077260617513,1.00000000073323,0.540924683514347
24099.9999999298,89.2673161822369,1.00000000079449,0.545976920457117
24199.9999999283,89.0310102633012,1.00000000078584,0.54320453321612
24299.9999999269,88.7984431811351,1.00000000076223,0.541023674507787
24399.9999999254,88.5687148074375,1.00000000080038,0.542687258848126
24499.999999924,88.3412265313025,1.00000000077029,0.543101984715011
24599.9999999225,88.1160140027386,1.00000000078047,0.543240439389109
24699.9999999211,87.891315647804,1.00000000084944,0.545862654596384
24799.9999999196,87.6646476711969,1.00000000087182,0.545175745680126
24899.9999999181,87.437187496,1.00000000084228,0.550649138405954
24999.9999999167,87.210450189433,1.00000000079386,0.561392078999389
25099.9999999152,86.9858835152963,1.00000000081159,0.560914564568396
25199.9999999138,86.7660056065632,1.00000000074086,0.554329472317371
25299.9999999123,86.5523176041263,1.00000000074934,0.551924083583641
25399.9999999109,86.3456018997871,1.00000000074615,0.550461382774326
25499.9999999094,86.1475112995799,1.00000000072372,0.544331891193355
25599.999999908,85.9586980748185,1.00000000072861,0.543266114861734
25699.9999999065,85.7781835941735,1.00000000074767,0.544980268831013
25799.9999999051,85.6020787969841,1.00000000085035,0.552637540566704
25899.9999999036,85.4270175622218,1.00000000083564,0.555571731171067
25999.9999999021,85.2527632865871,1.00000000085089,0.552198395236201
26099.9999999007,85.0808225756685,1.00000000079067,0.547493374227096
26199.9999998992,84.9125410367798,1.00000000076712,0.54682213942978
26299.9999998978,84.7464251504526,1.00000000078967,0.549766545969559
26399.9999998963,84.5825165534878,1.00000000074897,0.550110903541756
26499.9999998949,84.4204360554969,1.00000000081276,0.549318238810508
26599.9999998934,84.2565928760714,1.00000000084584,0.551617450658782
26699.999999892,84.0912510474406,1.00000000079787,0.550713602924787
26799.9999998905,83.9243999522359,1.00000000086143,0.561453273524177
26899.999999889,83.7555151660684,1.00000000084281,0.570848559226207
26999.9999998876,83.5864502346913,1.00000000082524,0.573570076283525
27099.9999998861,83.4185199812233,1.0000000008251,0.567854313282883
27199.9999998847,83.2551473061799,1.00000000072696,0.556403117712628
27299.9999998832,83.0992116385698,1.0000000007458,0.551136991771676
27399.9999998818,82.9509339922971,1.00000000072228,0.549966911495393
27499.9999998803,82.8118233577087,1.00000000071714,0.546282362217745
27599.9999998789,82.6794032163252,1.00000000076123,0.551869385503199
27699.9999998774,82.5521060134103,1.00000000077586,0.554920244241068
27799.9999998759,82.4279126806609,1.00000000079089,0.559919787298604
27899.9999998745,82.3037361556072,1.00000000083766,0.560985206117929
27999.999999873,82.1791086244951,1.00000000084693,0.559170536084541
28099.9999998716,82.0552104795868,1.00000000078248,0.556032240510817
28199.9999998701,81.9344022898913,1.00000000072962,0.553906429230996
28299.9999998687,81.8157908331801,1.00000000075275,0.555760902595971
28399.9999998672,81.6976876443626,1.00000000084278,0.558745469851668
28499.9999998658,81.5805616239656,1.00000000080101,0.561090047712366
28599.9999998643,81.4652615199899,1.00000000077698,0.557678625378886
28699.9999998629,81.3511598010446,1.00000000080848,0.56005137146087
28799.9999998614,81.2353352526977,1.00000000081242,0.566145067695215
28899.9999998599,81.1163781839659,1.00000000085381,0.573362734916479
