Time,AGPnorm,Energy,Entropy
0,0,1,-1.35745198099156e-17
99.9999999999986,2.99461655354615e-05,1.00000000000103,0.00125573481767422
199.999999999993,0.00255762383745182,1.0000000000019,0.00195397066601041
300,0.00647480887718704,0.99999999999962,0.00346612717250817
400.000000000022,0.00901346030698962,1.00000000000227,0.00588807565234734
500.000000000045,0.0108990314815957,1.00000000000039,0.00782942800160572
600.000000000068,0.0155103788746307,1.00000000000061,0.0109796282852921
700.000000000091,0.0191512807701819,1.00000000000213,0.0139494146548655
800.000000000113,0.0248287361569011,0.99999999999972,0.0171823907141471
900.000000000136,0.0309128094550741,1.00000000000193,0.0211482931516337
1000.00000000016,0.0357157392820158,1.00000000000074,0.0247310112605803
1100.0000000001,0.0426304640688305,1.00000000000033,0.029098393864226
1200,0.0499054707087565,1.00000000000226,0.0335207971378757
1299.99999999991,0.0576549914530986,0.999999999999893,0.0380269356206676
1399.99999999982,0.0657763810861616,1.00000000000152,0.0432024752684886
1499.99999999973,0.0733663103799708,1.00000000000108,0.048098850637441
1599.99999999964,0.0824947507990765,1.00000000000022,0.0536092215144817
1699.99999999955,0.0920253718927787,1.00000000000224,0.0593672471705773
1799.99999999946,0.101189531756153,1.00000000000008,0.06513093304778
1899.99999999937,0.110627004646608,1.00000000000116,0.071556191089802
1999.99999999928,0.120425010766845,1.00000000000138,0.0778728100986946
2099.99999999919,0.13103375778274,1.0000000000002,0.0847600043832788
2199.99999999909,0.141708589454762,1.00000000000206,0.0920786022113614
2299.999999999,0.151712957825853,1.00000000000029,0.0994263129730254
2399.99999999891,0.161898344903086,1.00000000000097,0.107544434967188
2499.99999999882,0.172982232984933,1.00000000000162,0.115876672486256
2599.99999999873,0.184077599911414,1.00000000000027,0.124847409274613
2699.99999999864,0.19497499246542,1.00000000000182,0.134654429595308
2799.99999999855,0.205289852008696,1.00000000000086,0.144772616804205
2899.99999999846,0.216013195095305,1.00000000000175,0.156181637814137
2999.99999999837,0.227033218921899,1.00000000000461,0.168562094635626
3099.99999999828,0.238101719874854,1.00000000000722,0.182092488662892
3199.99999999819,0.248755257303204,1.00000000001623,0.197145507544009
3299.99999999809,0.257869762906614,1.00000000003059,0.212772327704637
3399.999999998,0.272255414925826,1.00000000005216,0.229412076644385
3499.99999999791,0.282565888610735,1.0000000000792,0.246418767079712
3599.99999999782,0.299597951911234,1.00000000011579,0.263071484655016
3699.99999999773,0.326488103597241,1.00000000015733,0.279911697151924
3799.99999999764,0.352696451411111,1.00000000018561,0.296158281028289
3899.99999999755,0.414642507970798,1.00000000024934,0.312068797049403
3999.99999999746,0.489135488093783,1.00000000029091,0.327860841552017
4099.99999999738,0.602939792054667,1.00000000034051,0.34262097215253
4199.99999999775,0.780966770959282,1.00000000039141,0.357340858454368
4299.99999999811,0.997086194991309,1.0000000004185,0.371367769021871
4399.99999999848,1.31820922665518,1.00000000047057,0.384814209523008
4499.99999999884,1.7230296503883,1.00000000053202,0.397797830436358
4599.9999999992,2.23285619561053,1.00000000055521,0.410091365216721
4699.99999999957,2.89606747677985,1.00000000062528,0.421837763642454
4799.99999999993,3.67396285149531,1.00000000065797,0.433238592684994
4900.00000000029,4.63529268707788,1.00000000067991,0.443810060176155
5000.00000000066,5.76892877535558,1.00000000070731,0.454115383726638
5100.00000000102,7.0752104313057,1.00000000073078,0.463645804749224
5200.00000000139,8.60732467529281,1.00000000076927,0.472787423690603
5300.00000000175,10.3229700276929,1.0000000008097,0.481401844530351
5400.00000000211,12.2697356815905,1.00000000079543,0.489469901382816
5500.00000000248,14.4423559720464,1.00000000083848,0.497030467245936
5600.00000000284,16.8242496394707,1.00000000082523,0.504150117386414
5700.00000000321,19.4556227439378,1.00000000082311,0.51091592174783
5800.00000000357,22.2972500463202,1.00000000090772,0.517008693419615
5900.00000000393,25.3722121770254,1.00000000087104,0.522888694377448
6000.0000000043,28.6732971089739,1.00000000086377,0.528457533756934
6100.00000000466,32.1777873914694,1.00000000091394,0.533425520161949
6200.00000000502,35.907334104803,1.00000000088579,0.538276000929708
6300.00000000539,39.8258488960225,1.00000000089413,0.542582894841301
6400.00000000575,43.9417913851343,1.00000000090886,0.54651870340561
6500.00000000612,48.2420599122391,1.0000000008942,0.550497912153816
6600.00000000648,52.7027561207023,1.00000000091831,0.553989306542854
6700.00000000684,57.3343679505124,1.00000000093087,0.557162474464352
6800.00000000721,62.1002067607575,1.00000000092646,0.560185784210351
6900.00000000757,67.0044762429381,1.00000000089249,0.562835086878892
7000.00000000793,72.0287338480941,1.00000000086528,0.565732150502521
7100.0000000083,77.1490660404597,1.00000000092426,0.567713851106517
7200.00000000866,82.3735551295823,1.00000000084796,0.569943847887779
7300.00000000903,87.6639110976645,1.000000000865,0.572021991338208
7400.00000000939,93.0241855550737,1.00000000086135,0.573667697790702
7500.00000000975,98.4359540222278,1.00000000086003,0.57526358520362
7600.00000001012,103.87436605493,1.0000000008727,0.576522966370333
7700.00000001048,109.349864537577,1.00000000087316,0.577585922708214
7800.00000001084,114.825092872228,1.000000000896,0.578996836411055
7900.00000001121,120.303147560933,1.00000000085273,0.579821490540966
8000.00000001157,125.771791581811,1.00000000084167,0.580715562342306
8100.00000001194,131.204155829612,1.00000000079131,0.581855331013107
8200.0000000123,136.614091349237,1.0000000007983,0.582242216476354
8300.00000001266,141.967842442551,1.00000000080893,0.583033229656243
8400.00000001303,147.26838173968,1.00000000081402,0.582843147327129
8500.00000001339,152.508906258775,1.00000000079559,0.583798138421605
8600.00000001376,157.663612888193,1.00000000076786,0.583805241954907
8700.00000001412,162.747910416092,1.00000000079274,0.584029747930055
8800.00000001448,167.735375831217,1.00000000077783,0.584009961673263
8900.00000001485,172.624629440266,1.00000000073354,0.584523367554236
9000.00000001521,177.418582956208,1.00000000074314,0.583954882120156
9100.00000001557,182.089893200806,1.00000000076776,0.584276611876461
9200.00000001594,186.658639228856,1.00000000075188,0.583704163485725
9300.0000000163,191.09967727056,1.0000000007243,0.583547908057674
9400.00000001667,195.41568879464,1.00000000071911,0.584187742405048
9500.00000001703,199.609977484533,1.00000000069269,0.582485036331657
9600.00000001739,203.661474629675,1.00000000069457,0.58381943520369
9700.00000001776,207.58717893159,1.00000000067651,0.582150149713266
9800.00000001812,211.370560926647,1.00000000067935,0.582399142684305
9900.00000001848,215.011893585254,1.00000000067064,0.58244916782601
10000.0000000188,218.518468654717,1.00000000064886,0.58121669483259
10100.0000000192,221.873261902016,1.00000000065211,0.582044746158938
10200.0000000196,225.089670461546,1.00000000065572,0.581288609620377
10300.0000000199,228.161373360235,1.0000000006567,0.58087766287537
10400.0000000203,231.083047416714,1.00000000064551,0.580731852529055
10500.0000000207,233.867924551213,1.00000000062813,0.580652205539961
10600.000000021,236.501989394633,1.00000000062972,0.579298002880942
10700.0000000214,238.994130259737,1.000000000595,0.579484585155978
10800.0000000218,241.345900964847,1.00000000060303,0.579193333363635
10900.0000000221,243.54961953178,1.00000000058874,0.577720092354145
11000.0000000225,245.618228867556,1.00000000057444,0.578515481148937
11100.0000000229,247.544364645463,1.00000000057677,0.577891558949395
11200.0000000232,249.333311684129,1.00000000057521,0.576396318865553
11300.0000000236,250.987938905895,1.00000000058248,0.578037428736416
11400.0000000239,252.506465122527,1.00000000055884,0.576747028428944
11500.0000000243,253.896652618721,1.00000000054814,0.574769260793593
11600.0000000247,255.153529683631,1.00000000054094,0.576891501222453
11700.000000025,256.287550443364,1.00000000054914,0.576221486334983
11800.0000000254,257.299404832745,1.0000000005328,0.574194707429148
11900.0000000258,258.184682972353,1.0000000005294,0.574464309751319
12000.0000000261,258.956403982493,1.00000000049743,0.575360285657492
12100.0000000265,259.611747140341,1.00000000051584,0.576492492803956
12200.0000000269,260.158879847473,1.0000000005102,0.573719318806045
12300.0000000272,260.597393522251,1.00000000049328,0.570334818741254
12400.0000000276,260.924558165372,1.00000000050482,0.57515505282324
12500.0000000279,261.161273109698,1.00000000051309,0.577273967483678
12600.0000000283,261.305099340055,1.00000000046739,0.570834728382951
12700.0000000287,261.349596527398,1.00000000045946,0.566642816807322
12800.000000029,261.302030719535,1.00000000047309,0.572988116698027
12900.0000000294,261.174620816742,1.00000000051195,0.577645730799741
13000.0000000298,260.979935991072,1.00000000049492,0.571385314130251
13100.0000000301,260.705161224336,1.00000000042867,0.562538799776265
13200.0000000305,260.346272623682,1.00000000044629,0.563647258568662
13300.0000000309,259.921144209514,1.00000000051854,0.576571583968824
13400.0000000312,259.445840888061,1.00000000052022,0.575977432949965
13500.0000000316,258.920073604679,1.00000000047012,0.564079276907333
13600.0000000319,258.324882615637,1.00000000040155,0.552801890888244
13700.0000000323,257.662141958941,1.00000000047434,0.563337224545098
13800.0000000327,256.961048418476,1.00000000054984,0.580135871465098
13900.000000033,256.233339855998,1.00000000053894,0.573323777888743
14000.0000000334,255.468873346492,1.00000000045483,0.554786165624973
14100.0000000338,254.645205852413,1.00000000039415,0.543712157726386
14200.0000000341,253.769267952565,1.00000000048519,0.560857054876761
14300.0000000345,252.872524708938,1.00000000055415,0.580305782964647
14400.0000000349,251.967209474386,1.00000000059698,0.574311591892759
14500.0000000352,251.041118932413,1.00000000045449,0.549585206506094
14600.0000000356,250.069812009645,1.00000000039321,0.534803156195849
14700.0000000359,249.052661373185,1.00000000046468,0.546923424121123
14800.0000000363,248.019751983512,1.00000000055369,0.575641932507861
14900.0000000367,246.989553197203,1.00000000066121,0.581196660773893
15000.000000037,245.961242223699,1.00000000050344,0.554179271293226
15100.0000000374,244.906426447495,1.00000000043254,0.532094445538522
15200.0000000378,243.813293091179,1.00000000039451,0.524660922600679
15300.0000000381,242.694613688837,1.00000000051245,0.551755154949798
15400.0000000385,241.576706301719,1.00000000063762,0.581905415531425
15500.0000000389,240.475081874251,1.00000000064077,0.573911214209832
15600.0000000392,239.377144944589,1.00000000051165,0.542821223692791
15700.0000000396,238.258385991963,1.00000000040155,0.52109783602306
15800.0000000399,237.111137466192,1.00000000040203,0.517653675842847
15900.0000000403,235.944816705394,1.00000000050834,0.543842033777104
16000.0000000407,234.785609326594,1.00000000065699,0.579458143117638
16100.000000041,233.64704113095,1.00000000067478,0.576284259716795
16200.0000000414,232.518141628022,1.00000000053162,0.543036981958933
16300.0000000418,231.382953118672,1.00000000043466,0.518813737087777
16400.0000000418,230.227746670038,1.00000000040149,0.512777631333355
16500.0000000404,229.057348178268,1.00000000044265,0.523139113846064
16600.0000000389,227.885757747773,1.0000000005879,0.556765278109133
16700.0000000375,226.729205845825,1.00000000067854,0.579988617998601
16800.000000036,225.593216882702,1.00000000064168,0.562199511937734
16900.0000000346,224.464423707065,1.00000000048323,0.528355710481188
17000.0000000331,223.331586838359,1.0000000004322,0.512087455544995
17100.0000000317,222.188389831063,1.00000000040794,0.511954620648854
17200.0000000302,221.03673548742,1.00000000046271,0.521817344994874
17300.0000000287,219.888145643363,1.00000000056429,0.545716412775827
17400.0000000273,218.752611857552,1.00000000064705,0.568599501913543
17500.0000000258,217.633834675862,1.00000000064828,0.562541236705229
17600.0000000244,216.527958289129,1.00000000055128,0.534283267498512
17700.0000000229,215.424397275524,1.00000000047729,0.510957971815965
17800.0000000215,214.319434958671,1.0000000004278,0.510422084618704
17900.00000002,213.21108735706,1.00000000046891,0.518480512176969
18000.0000000186,212.104131233487,1.00000000051497,0.526720129269978
18100.0000000171,211.004174267743,1.00000000055058,0.540299178818438
18200.0000000156,209.915478867754,1.00000000061893,0.555906168063341
18300.0000000142,208.840756811113,1.00000000060565,0.552646065056766
18400.0000000127,207.777032640528,1.00000000055285,0.530589075466396
18500.0000000113,206.718930783992,1.00000000047176,0.511761213270465
18600.0000000098,205.664541336962,1.00000000046211,0.512990803976404
18700.0000000084,204.612597082808,1.00000000046792,0.52010808102937
18800.0000000069,203.565382289692,1.00000000049545,0.525042925351008
18900.0000000055,202.52353469516,1.00000000049513,0.5263581868888
19000.000000004,201.489938100279,1.00000000056179,0.535137794217327
19100.0000000026,200.467167183698,1.00000000058207,0.542382923059822
19200.0000000011,199.454755869037,1.00000000059967,0.541200307494537
19299.9999999996,198.451468916539,1.00000000055124,0.528472533909079
19399.9999999982,197.456056873158,1.00000000050429,0.518788860867644
19499.9999999967,196.467349594688,1.00000000047808,0.517966032540492
19599.9999999953,195.485554735549,1.00000000047681,0.524282247515565
19699.9999999938,194.509550218877,1.00000000049282,0.524778951869657
19799.9999999924,193.540679068599,1.00000000048478,0.523014810723963
19899.9999999909,192.579369054432,1.00000000051154,0.522479792379833
19999.9999999895,191.626352608314,1.00000000055454,0.52708030339485
20099.999999988,190.682684451004,1.00000000056764,0.534710531538984
20199.9999999865,189.747782949766,1.00000000055325,0.538092277391781
20299.9999999851,188.821405963035,1.00000000053624,0.533817223362907
20399.9999999836,187.903560341889,1.00000000050511,0.525753731931326
20499.9999999822,186.993933366657,1.00000000049524,0.526630020134961
20599.9999999807,186.09297643069,1.00000000048658,0.529335219155488
20699.9999999793,185.199895480644,1.00000000050628,0.526828144356954
20799.9999999778,184.315158106925,1.00000000047763,0.520696900817721
20899.9999999764,183.4385681309,1.00000000048224,0.517044719108791
20999.9999999749,182.570416155954,1.00000000051071,0.518960768739812
21099.9999999734,181.711149825045,1.00000000052212,0.523990294050681
21199.999999972,180.860151371314,1.00000000055568,0.533564208687654
21299.9999999705,180.016924308422,1.00000000055395,0.541704128731069
21399.9999999691,179.181839166857,1.00000000053078,0.538813950298582
21499.9999999676,178.354670234091,1.00000000050752,0.533753788346055
21599.9999999662,177.535894141465,1.00000000050632,0.53539008535804
21699.9999999647,176.725648446178,1.00000000052253,0.535165312431079
21799.9999999633,175.924661336519,1.00000000050032,0.532095512994016
21899.9999999618,175.133228159199,1.00000000042205,0.519924881855997
21999.9999999603,174.35197079259,1.00000000043115,0.508520826626635
22099.9999999589,173.580834820505,1.00000000046827,0.508619410240435
22199.9999999574,172.818782049477,1.00000000053744,0.518503766592268
22299.999999956,172.064387048522,1.00000000055149,0.5256442252994
22399.9999999545,171.317167466859,1.00000000055571,0.530065034116224
22499.9999999531,170.57639231719,1.00000000054029,0.538785408152679
22599.9999999516,169.842819379281,1.00000000050296,0.540116222391745
22699.9999999502,169.116438642352,1.00000000052641,0.536948799890426
22799.9999999487,168.39692517104,1.000000000535,0.540636553902687
22899.9999999473,167.683866303764,1.00000000056836,0.546354534856699
22999.9999999458,166.978293220206,1.00000000052324,0.536158125740942
23099.9999999443,166.28281341916,1.00000000045262,0.523620401856531
23199.9999999429,165.59916992288,1.00000000038797,0.508799950926375
23299.9999999414,164.928811788275,1.00000000039383,0.497961056435427
23399.99999994,164.26989193458,1.0000000004756,0.502891028756185
23499.9999999385,163.619619651694,1.00000000054704,0.514393513950856
23599.9999999371,162.97533303578,1.00000000057795,0.523081700272912
23699.9999999356,162.336357374676,1.00000000056377,0.521932401444407
23799.9999999342,161.702683855941,1.00000000051937,0.525304778349517
23899.9999999327,161.074616188952,1.00000000052561,0.535937948196609
23999.9999999312,160.451824975251,1.00000000052607,0.540639927566805
24099.9999999298,159.833732421993,1.00000000055662,0.542647600827403
24199.9999999283,159.219553112489,1.00000000057113,0.545423748393069
24299.9999999269,158.609632386014,1.00000000057768,0.545392042968071
24399.9999999254,158.005611138471,1.00000000053639,0.536097016343943
24499.999999924,157.410996675982,1.00000000046529,0.517965242726669
24599.9999999225,156.82987409933,1.00000000040252,0.506082673438234
24699.9999999211,156.263162325208,1.00000000040213,0.499898082881395
24799.9999999196,155.709926805867,1.00000000044269,0.496905349982843
24899.9999999181,155.166357926347,1.00000000050933,0.503283534740137
24999.9999999167,154.629193716794,1.00000000055157,0.512609951119155
25099.9999999152,154.096257373655,1.00000000057484,0.517568281008596
25199.9999999138,153.567301989837,1.0000000005528,0.515264634267694
25299.9999999123,153.042118050562,1.00000000052908,0.516303902829593
25399.9999999109,152.520352715125,1.00000000052935,0.527689405988761
25499.9999999094,152.000930721096,1.00000000052331,0.539336958797845
25599.999999908,151.483267823741,1.00000000053871,0.544740240914874
25699.9999999065,150.967249050231,1.00000000055097,0.544549635170161
25799.9999999051,150.453444555295,1.00000000056694,0.543106700519031
25899.9999999036,149.943241728556,1.00000000055493,0.53828810077616
25999.9999999021,149.439171362423,1.00000000050591,0.526899820554853
26099.9999999007,148.945151495953,1.00000000046837,0.513520334111382
26199.9999998992,148.463469157484,1.00000000042825,0.505374550647863
26299.9999998978,147.995529853394,1.00000000044298,0.505834557772887
26399.9999998963,147.539874717711,1.00000000045101,0.506206838493576
26499.9999998949,147.09497047692,1.00000000046636,0.501691454242795
26599.9999998934,146.658718968239,1.00000000051163,0.503626690552963
26699.999999892,146.228262392968,1.00000000055527,0.508216571440325
26799.9999998905,145.801987769685,1.0000000005378,0.513487482281202
26899.999999889,145.378162910651,1.0000000005432,0.517763475685566
26999.9999998876,144.955638126301,1.00000000055386,0.519674652980567
27099.9999998861,144.53424332355,1.00000000052652,0.52527864293955
27199.9999998847,144.112414807595,1.00000000058243,0.535826898883708
27299.9999998832,143.689654584883,1.0000000005582,0.541718333100869
27399.9999998818,143.266382825577,1.00000000054622,0.544891423793453
27499.9999998803,142.844037130456,1.00000000054322,0.54014277149953
27599.9999998789,142.424945209835,1.00000000052456,0.534529619727448
27699.9999998774,142.010595123585,1.00000000049513,0.531812372001879
27799.9999998759,141.602337049061,1.00000000050153,0.527049174045456
27899.9999998745,141.201070759542,1.00000000049646,0.523001979085425
27999.999999873,140.808353218638,1.00000000047024,0.517513425900327
28099.9999998716,140.426653407844,1.00000000045445,0.511976713700457
28199.9999998701,140.056093958318,1.00000000045673,0.513891853822407
28299.9999998687,139.696963929396,1.000000000459,0.51002894223633
28399.9999998672,139.348095452427,1.00000000047122,0.508001777212027
28499.9999998658,139.008196157231,1.0000000004934,0.505426391504308
28599.9999998643,138.675319151784,1.00000000050883,0.51069645492442
28699.9999998629,138.347412451216,1.00000000051175,0.515079326673371
28799.9999998614,138.022062051222,1.00000000055217,0.522747736416342
28899.9999998599,137.696743769256,1.00000000055825,0.532005621021251
