Time,AGPnorm,Energy,Entropy
0,0,1,-7.32898220837095e-17
99.9999999999986,0.00163033816830689,0.999999999998602,0.00503977294852794
199.999999999993,0.0111087733857538,0.999999999998488,0.0145243834513766
300,0.0217383214823916,1.00000000000016,0.0269006890593563
400.000000000022,0.0328112722895314,1.00000000000071,0.0426166048178868
500.000000000045,0.0456771996198715,0.999999999998691,0.0616479626687761
600.000000000068,0.0636951909270641,0.999999999998202,0.0837454532980211
700.000000000091,0.0792357905293188,0.999999999999452,0.109121740354363
800.000000000113,0.0964222869606628,1.00000000000177,0.139355769777564
900.000000000136,0.112281320962507,1.00000000000616,0.176948115315484
1000.00000000016,0.129197894021761,1.00000000005474,0.224500685422361
1100.0000000001,0.149070701554696,1.00000000024051,0.280480998617638
1200,0.198236906603284,1.00000000057249,0.336004414134224
1299.99999999991,0.298058276527897,1.00000000094342,0.386284574193029
1399.99999999982,0.52936903108071,1.0000000013147,0.428802482471479
1499.99999999973,1.02100657636569,1.00000000162278,0.464394434364982
1599.99999999964,1.84985175744937,1.00000000188467,0.493799610273384
1699.99999999955,3.05472863128022,1.00000000206093,0.518832190979402
1799.99999999946,4.69664512605403,1.00000000205964,0.538372803295194
1899.99999999937,6.78075814576807,1.00000000227425,0.553019789300555
1999.99999999928,9.23578279044074,1.00000000222451,0.565066053715584
2099.99999999919,11.9925842706534,1.00000000234576,0.574805990606161
2199.99999999909,15.0216640012098,1.00000000229621,0.580955092698311
2299.999999999,18.2459492600742,1.00000000212276,0.585023277821543
2399.99999999891,21.5429374265897,1.00000000211132,0.58750351403501
2499.99999999882,24.8250035436426,1.0000000019772,0.590238627067698
2599.99999999873,28.0551647332322,1.00000000196101,0.589858672318373
2699.99999999864,31.1900905570221,1.00000000193082,0.58892698167122
2799.99999999855,34.1547846756441,1.00000000185505,0.58776418225488
2899.99999999846,36.8919826961694,1.00000000182697,0.586757045658666
2999.99999999837,39.3840817290161,1.00000000170496,0.584452864843086
3099.99999999828,41.6327030357133,1.00000000159167,0.580609472613707
3199.99999999819,43.6227316222195,1.0000000015353,0.578581879978286
3299.99999999809,45.3295608963753,1.00000000149371,0.57713890110089
3399.999999998,46.7524242563351,1.00000000149698,0.575600700495608
3499.99999999791,47.9085014791602,1.00000000143914,0.573240720827138
3599.99999999782,48.8146752269626,1.00000000135937,0.574179127099655
3699.99999999773,49.4767600514361,1.00000000128995,0.567956405231387
3799.99999999764,49.9168063979713,1.00000000128756,0.571155607869016
3899.99999999755,50.1320483066206,1.00000000126339,0.570352637122932
3999.99999999746,50.1870381555211,1.00000000121066,0.565411356609966
4099.99999999738,50.0665961486044,1.00000000120892,0.56102450854696
4199.99999999775,49.8363923408535,1.00000000132013,0.569325722574414
4299.99999999811,49.4779151281901,1.00000000104926,0.540682942905544
4399.99999999848,49.0318015984986,1.00000000153896,0.581663622101449
4499.99999999884,48.5342578851722,1.00000000108231,0.537233050122261
4599.9999999992,47.9437085139945,1.00000000129789,0.552784305009857
4699.99999999957,47.3537559560645,1.00000000140447,0.564886494553021
4799.99999999993,46.7188143171581,1.00000000094447,0.508947450426098
4900.00000000029,46.0346024793826,1.00000000154393,0.566890479654577
5000.00000000066,45.3799955574858,1.00000000148967,0.552309320509774
5100.00000000102,44.7045569609243,1.00000000094109,0.495238162522188
5200.00000000139,43.9971632405776,1.0000000013977,0.538713878023794
5300.00000000175,43.3202080535629,1.00000000166567,0.563456439660365
5400.00000000211,42.6534212792458,1.00000000110735,0.495548502943106
5500.00000000248,41.9666093871522,1.00000000106079,0.492108337924972
5600.00000000284,41.2886129168177,1.00000000168127,0.549819064781444
5700.00000000321,40.6413410636576,1.00000000149589,0.532402655223111
5800.00000000357,40.0034010921604,1.00000000111281,0.487097028568948
5900.00000000393,39.3632230147963,1.00000000114589,0.498707194165624
6000.0000000043,38.734036827063,1.00000000145433,0.527318935302249
6100.00000000466,38.1276915771337,1.00000000157553,0.536791276365255
6200.00000000502,37.5390654623894,1.00000000117951,0.494805201766454
6300.00000000539,36.9626572562131,1.00000000109095,0.500283700621785
6400.00000000575,36.3971995789839,1.00000000124807,0.515782826502612
6500.00000000612,35.8467999297675,1.00000000141025,0.516623004812234
6600.00000000648,35.3123736873729,1.00000000147276,0.528743882535058
6700.00000000684,34.7942434563897,1.00000000123032,0.50705781131592
6800.00000000721,34.2951836210769,1.00000000106346,0.498965725551452
6900.00000000757,33.8113400531957,1.00000000135816,0.526429239102621
7000.00000000793,33.3428283448664,1.00000000120541,0.512008302307038
7100.0000000083,32.8915620202411,1.00000000123988,0.509987095916737
7200.00000000866,32.452115210324,1.00000000162171,0.528979045970521
7300.00000000903,32.0247630503742,1.00000000136483,0.513973854295663
7400.00000000939,31.6187085290777,1.00000000112743,0.499195792227624
7500.00000000975,31.229243542338,1.00000000136364,0.52538997771393
7600.00000001012,30.8482549933295,1.00000000137778,0.531404397808502
7700.00000001048,30.4847329688176,1.00000000111016,0.499497196035799
7800.00000001084,30.1397906870856,1.00000000128191,0.502599221632445
7900.00000001121,29.8034332442001,1.00000000152668,0.530246330117692
8000.00000001157,29.4716174877742,1.00000000137414,0.513871985342105
8100.00000001194,29.1567786939726,1.0000000011953,0.506471978643487
8200.0000000123,28.8593147312684,1.00000000124652,0.516946684627243
8300.00000001266,28.5716550786251,1.00000000146937,0.526130905064197
8400.00000001303,28.2865795158547,1.00000000139596,0.525463465439642
8500.00000001339,28.0148813810391,1.00000000116026,0.517149285639542
8600.00000001376,27.7615205943568,1.00000000127991,0.504768067803715
8700.00000001412,27.5176695436997,1.00000000138765,0.526472948378814
8800.00000001448,27.2788322423754,1.00000000145123,0.531691134995225
8900.00000001485,27.044519124811,1.00000000136884,0.525477365362575
9000.00000001521,26.8239621025771,1.00000000122505,0.516916248598891
9100.00000001557,26.6164012583998,1.00000000136472,0.533365219476184
9200.00000001594,26.4171432077888,1.00000000125154,0.530127092274714
9300.0000000163,26.2258363847846,1.00000000138553,0.52872107094805
9400.00000001667,26.0384553640529,1.00000000139331,0.520517639206729
9500.00000001703,25.8551849262727,1.00000000138972,0.544523784302482
9600.00000001739,25.6787370809493,1.00000000131412,0.537656503201348
9700.00000001776,25.5127946569696,1.00000000118302,0.52320560823013
9800.00000001812,25.3566464633584,1.00000000140688,0.537454787201949
9900.00000001848,25.2051973984517,1.00000000141343,0.541290317401983
10000.0000000188,25.0553940385794,1.00000000141589,0.536416993707706
10100.0000000192,24.9159912066347,1.00000000130221,0.535525379807999
10200.0000000196,24.7898884551366,1.0000000012312,0.532416787854247
10300.0000000199,24.665684344641,1.00000000149074,0.541553936348075
10400.0000000203,24.5411798250927,1.00000000131695,0.540944858060696
10500.0000000207,24.4294803885312,1.00000000113634,0.521422685464726
10600.000000021,24.3293555307485,1.00000000137348,0.534390825852644
10700.0000000214,24.2289247714736,1.00000000146203,0.53505642732797
10800.0000000218,24.1205968570066,1.00000000148417,0.553650446235734
10900.0000000221,24.0081256527199,1.00000000136127,0.562063102026731
11000.0000000225,23.8998143899913,1.00000000124098,0.549250208529536
11100.0000000229,23.7988376086448,1.00000000128681,0.548669981349892
11200.0000000232,23.7041475948251,1.00000000135233,0.548492955617332
11300.0000000236,23.6139506052755,1.00000000137647,0.545325068604642
11400.0000000239,23.5286712003738,1.00000000139086,0.540259233630857
11500.0000000243,23.4491832172209,1.00000000138719,0.543674761489095
11600.0000000247,23.3787486876367,1.00000000134142,0.549219143916455
11700.000000025,23.3151948833923,1.00000000137777,0.554659333258063
11800.0000000254,23.2542774500589,1.00000000138153,0.545493823930848
11900.0000000258,23.1911991313342,1.00000000141311,0.548637125862929
12000.0000000261,23.1315496105947,1.00000000128673,0.544377935359435
12100.0000000265,23.0821564881529,1.00000000126572,0.532647828265438
12200.0000000269,23.0402079879902,1.00000000137995,0.549123023811909
12300.0000000272,22.9968657893523,1.00000000143308,0.565639018654838
12400.0000000276,22.9520796985935,1.00000000129147,0.551790791783876
12500.0000000279,22.9027767606178,1.00000000137857,0.560786231671851
12600.0000000283,22.847343469815,1.00000000139304,0.563897967164388
12700.0000000287,22.7845662822399,1.00000000151439,0.581638870530349
12800.000000029,22.7154978339451,1.00000000140339,0.584095772934572
12900.0000000294,22.6462139039981,1.00000000129064,0.580749293071477
13000.0000000298,22.5840755057499,1.00000000131701,0.569554469645071
13100.0000000301,22.531068521321,1.00000000130191,0.559692200078754
13200.0000000305,22.4838966005938,1.00000000130833,0.550459563461868
13300.0000000309,22.4424153622973,1.00000000148798,0.552893594523437
13400.0000000312,22.4061676636384,1.00000000137058,0.555663886680765
13500.0000000316,22.3759738270827,1.00000000135754,0.566556034555711
13600.0000000319,22.3518549574797,1.00000000134944,0.567935967440793
13700.0000000323,22.3283071442706,1.00000000141698,0.567292897865316
13800.0000000327,22.3026503473979,1.00000000139572,0.566940320884775
13900.000000033,22.2809167309638,1.00000000127775,0.555946511223593
14000.0000000334,22.2657240167402,1.00000000131842,0.552942814662948
14100.0000000338,22.2541189826946,1.00000000145075,0.556263552862362
14200.0000000341,22.2438666674065,1.00000000142531,0.564186711015748
14300.0000000345,22.235080198916,1.00000000136883,0.570228410239029
14400.0000000349,22.2269031638722,1.00000000141679,0.580263815182003
14500.0000000352,22.2170355537745,1.00000000147501,0.58966678628396
14600.0000000356,22.201146318563,1.00000000145207,0.592705433836725
14700.0000000359,22.183101941866,1.0000000014001,0.591441184605252
14800.0000000363,22.1643137348737,1.00000000136591,0.59437614991791
14900.0000000367,22.1455573825773,1.00000000135603,0.592096847492436
15000.000000037,22.1225620845219,1.00000000136849,0.590633444774412
15100.0000000374,22.0903375027305,1.00000000158825,0.593808252842795
15200.0000000378,22.0473730923768,1.00000000153414,0.592724398620533
15300.0000000381,21.9969329594349,1.00000000151065,0.601587621308704
15400.0000000385,21.943049617802,1.00000000139155,0.604035833881153
15500.0000000389,21.8912206138661,1.00000000133996,0.595538437728895
15600.0000000392,21.8466344911698,1.00000000132967,0.588785042122248
15700.0000000396,21.8111806659331,1.00000000133647,0.583883028116901
15800.0000000399,21.7825736130233,1.00000000143675,0.582057046332134
15900.0000000403,21.7602598489327,1.00000000150553,0.58410655113675
16000.0000000407,21.7451062348392,1.00000000139016,0.58045951847212
16100.000000041,21.7341724337005,1.00000000149016,0.583118805366132
16200.0000000414,21.7277218232935,1.00000000137757,0.589468152722974
16300.0000000418,21.7274083779147,1.00000000140416,0.592042210751564
16400.0000000418,21.7274717515054,1.00000000148592,0.586028365022484
16500.0000000404,21.7271151566337,1.00000000146988,0.58794538774192
16600.0000000389,21.7295196625491,1.0000000014314,0.579774493547875
16700.0000000375,21.7348461772927,1.00000000146832,0.572212729467108
16800.000000036,21.742853760552,1.00000000138774,0.574633083768175
16900.0000000346,21.7546543251047,1.00000000146103,0.584638068510523
17000.0000000331,21.7699616891059,1.00000000140461,0.588814908784228
17100.0000000317,21.7852528127462,1.0000000014764,0.586754230445037
17200.0000000302,21.7972205021297,1.00000000154027,0.590138155816747
17300.0000000287,21.8071429360089,1.00000000147601,0.573607220700244
17400.0000000273,21.8163137806076,1.00000000154305,0.582128454146987
17500.0000000258,21.8258810631516,1.00000000145254,0.597810725395813
17600.0000000244,21.8364032112522,1.00000000143675,0.606468081260557
17700.0000000229,21.8439449174647,1.00000000150458,0.609988720658278
17800.0000000215,21.84825220884,1.00000000151091,0.62515447001703
17900.00000002,21.8495437032173,1.00000000149557,0.626690647048986
18000.0000000186,21.848352501065,1.00000000154814,0.621684023705567
18100.0000000171,21.8431753869444,1.00000000144567,0.626549314631944
18200.0000000156,21.8360549457577,1.00000000147885,0.638116597288505
18300.0000000142,21.8255152032607,1.00000000141864,0.638187260624778
18400.0000000127,21.8104183817479,1.00000000149562,0.643292814370021
18500.0000000113,21.7930847369996,1.00000000137636,0.63696734317119
18600.0000000098,21.773356946398,1.00000000143413,0.632573044519858
18700.0000000084,21.7481206797689,1.00000000149853,0.636141033925719
18800.0000000069,21.7182553132714,1.00000000143783,0.631107439140221
18900.0000000055,21.6822317603139,1.00000000159057,0.635556285543458
19000.000000004,21.6408564264673,1.00000000149913,0.631044175013124
19100.0000000026,21.5943601705236,1.000000001505,0.62901728745278
19200.0000000011,21.5456915348771,1.00000000148066,0.633210514771007
19299.9999999996,21.4998483318079,1.00000000147189,0.634400243201524
19399.9999999982,21.4580486538833,1.00000000142904,0.634241770010806
19499.9999999967,21.4223145834031,1.00000000138084,0.634693922443454
19599.9999999953,21.3934161333962,1.00000000142377,0.627496162121054
19699.9999999938,21.370961378607,1.0000000014783,0.624004545685279
19799.9999999924,21.3538261992323,1.00000000151795,0.624585451643583
19899.9999999909,21.343427650506,1.00000000150786,0.611614778433606
19999.9999999895,21.3388007136169,1.00000000145713,0.597298057428177
20099.999999988,21.3395505929924,1.00000000150918,0.595818147795258
20199.9999999865,21.344004784211,1.00000000149448,0.60137540414405
20299.9999999851,21.352722578307,1.00000000144475,0.60416958749382
20399.9999999836,21.3650787384964,1.0000000015437,0.607177904427418
20499.9999999822,21.3783370459115,1.00000000156955,0.612759248206757
20599.9999999807,21.3934391900782,1.00000000147765,0.606580640264257
20699.9999999793,21.4082743782502,1.00000000156285,0.604357497921944
20799.9999999778,21.4254890649053,1.00000000145564,0.600288704516114
20899.9999999764,21.4456586623161,1.00000000155487,0.592627518396113
20999.9999999749,21.4689315649948,1.0000000014418,0.593608098053702
21099.9999999734,21.4941910916881,1.00000000152533,0.599595414097363
21199.999999972,21.5212425268724,1.00000000157979,0.603123827285188
21299.9999999705,21.5481031647253,1.00000000160443,0.59814039208697
21399.9999999691,21.5737110268439,1.00000000156296,0.605268009328121
21499.9999999676,21.6003966919932,1.0000000014839,0.599857417924527
21599.9999999662,21.6263442267202,1.00000000154702,0.600656727744535
21699.9999999647,21.6491716732236,1.0000000016812,0.606102616688882
21799.9999999633,21.6652009326541,1.00000000176991,0.60756085613448
21899.9999999618,21.6780499570279,1.00000000149958,0.608818496466538
21999.9999999603,21.6916266604606,1.00000000149934,0.623305975401449
22099.9999999589,21.7070879268602,1.00000000156101,0.633180349298542
22199.9999999574,21.7221504905338,1.00000000165145,0.632174642248816
22299.999999956,21.7359490606154,1.00000000170146,0.635621884611557
22399.9999999545,21.7467720890736,1.00000000160113,0.636171662901476
22499.9999999531,21.7558190050882,1.00000000153934,0.637288781827962
22599.9999999516,21.7671239221815,1.00000000153479,0.635351278493029
22699.9999999502,21.7791721528762,1.00000000157555,0.636523207861366
22799.9999999487,21.7896007805733,1.00000000159205,0.637299299557586
22899.9999999473,21.7984905118367,1.00000000159766,0.633654809373234
22999.9999999458,21.8022997165407,1.00000000167139,0.630389827880463
23099.9999999443,21.8035200744523,1.00000000162535,0.637506867065172
23199.9999999429,21.8034376435575,1.00000000159204,0.63728317479261
23299.9999999414,21.8024778721893,1.00000000156003,0.635618186915817
23399.99999994,21.7998109264518,1.00000000158197,0.641578687850393
23499.9999999385,21.7959595964223,1.00000000157436,0.646175285073254
23599.9999999371,21.792639618641,1.00000000144122,0.636964136976491
23699.9999999356,21.7905382418864,1.00000000148681,0.638129818004681
23799.9999999342,21.7865112817328,1.0000000016324,0.642201290124174
23899.9999999327,21.7792562709277,1.00000000156112,0.64564289232559
23999.9999999312,21.7673618405756,1.00000000158664,0.647923991681671
24099.9999999298,21.7522353648586,1.0000000016333,0.645245129732661
24199.9999999283,21.7355692037537,1.00000000160083,0.645176680117999
24299.9999999269,21.7181922727198,1.00000000162796,0.651510686919869
24399.9999999254,21.6981997047133,1.00000000159121,0.647360712135018
24499.999999924,21.6781969166261,1.00000000159217,0.649044839386129
24599.9999999225,21.6554295829391,1.0000000015858,0.652543848346449
24699.9999999211,21.6322300010649,1.00000000153054,0.647732592850752
24799.9999999196,21.6088449162096,1.00000000152065,0.644472695750889
24899.9999999181,21.5831985733446,1.00000000164375,0.643402471211768
24999.9999999167,21.5545383965332,1.00000000170696,0.649095556027266
25099.9999999152,21.5222682684597,1.00000000168291,0.649742904280104
25199.9999999138,21.4876534059483,1.00000000169428,0.654106565690268
25299.9999999123,21.4515782309285,1.00000000167948,0.65255712648128
25399.9999999109,21.4127280391961,1.00000000163827,0.652650289959035
25499.9999999094,21.3724110586799,1.00000000158573,0.652493111747099
25599.999999908,21.3308870015807,1.00000000168179,0.655176233632211
25699.9999999065,21.2883253735861,1.00000000163939,0.654759038971391
25799.9999999051,21.2471108990649,1.00000000153901,0.644326521147005
25899.9999999036,21.2087207842628,1.00000000158988,0.634174880417446
25999.9999999021,21.17440764822,1.00000000147033,0.623268502633655
26099.9999999007,21.1463875627012,1.00000000160602,0.621516048665672
26199.9999998992,21.1246297018741,1.00000000154864,0.619519413628997
26299.9999998978,21.1081137625413,1.00000000166772,0.622141501434853
26399.9999998963,21.0957316022048,1.00000000159275,0.629362302403404
26499.9999998949,21.0880698399472,1.00000000159261,0.623697096253503
26599.9999998934,21.0866864678305,1.00000000159272,0.61432932543174
26699.999999892,21.0899648557905,1.00000000154043,0.605636395911431
26799.9999998905,21.0985997898034,1.00000000161152,0.603082232190277
26899.999999889,21.1120826456141,1.00000000162573,0.599165523164591
26999.9999998876,21.1284256171986,1.0000000017049,0.602725390232681
27099.9999998861,21.1478358069409,1.00000000157666,0.602761906297913
27199.9999998847,21.1708186576335,1.00000000172345,0.607309738934351
27299.9999998832,21.193668234051,1.00000000179237,0.611113208067321
27399.9999998818,21.2175218236026,1.00000000157411,0.600863742765984
27499.9999998803,21.2436610602905,1.00000000169138,0.601087789468522
27599.9999998789,21.2702244932429,1.00000000169927,0.588739239995428
27699.9999998774,21.2990122951283,1.00000000153874,0.593060145373313
27799.9999998759,21.3319606084583,1.00000000159886,0.602800802554089
27899.9999998745,21.3642428788822,1.00000000173292,0.597574843962804
27999.999999873,21.397701607342,1.00000000169566,0.597396938310802
28099.9999998716,21.4332123409026,1.00000000158369,0.597861668309541
28199.9999998701,21.4722353119193,1.00000000164176,0.601165920154317
28299.9999998687,21.5130942476962,1.00000000166021,0.608707784962545
28399.9999998672,21.5529989151257,1.00000000166473,0.611122158326046
28499.9999998658,21.5923452868589,1.00000000166895,0.620131222419326
28599.9999998643,21.6329470080803,1.00000000166785,0.61573810805677
28699.9999998629,21.672650747154,1.00000000174834,0.61125478495011
28799.9999998614,21.7096835387609,1.00000000174552,0.613657388608969
28899.9999998599,21.7438253475605,1.00000000173792,0.616975542967206
28999.9999998585,21.7757933715472,1.0000000017748,0.629480914339827
