Time,AGPnorm,Energy,Entropy
0,0,1,-1.78857979796335e-18
99.9999999999986,0.0134897262547472,1.00000000000102,0.0334539493356983
199.999999999993,0.0338752451668296,1.00000000000166,0.100216532222578
300,0.0629059112804408,1.00000000005231,0.211943750818711
400.000000000022,0.113542453500348,1.00000000144686,0.384090115013745
500.000000000045,0.447811891490437,1.00000000377479,0.51069906992998
600.000000000068,1.50326592837873,1.0000000047674,0.574519399275632
700.000000000091,3.3292843115178,1.00000000484338,0.596363750704789
800.000000000113,5.43467774018123,1.00000000469409,0.602806682236846
900.000000000136,7.52797794944296,1.00000000429054,0.59458067291675
1000.00000000016,9.20657650220553,1.00000000385843,0.586297791547849
1100.0000000001,10.4221313237083,1.00000000333206,0.569271842720062
1200,11.1088927646488,1.00000000290662,0.566164024593313
1299.99999999991,11.3509510604482,1.00000000261684,0.548188713013426
1399.99999999982,11.2872005815231,1.00000000219871,0.521509735410533
1499.99999999973,11.0468115259937,1.00000000258376,0.527246589151061
1599.99999999964,10.675322241127,1.00000000381073,0.578379846928492
1699.99999999955,10.255813116383,1.00000000210295,0.461842969905697
1799.99999999946,9.83475788730707,1.00000000356668,0.547550983144804
1899.99999999937,9.40828653043629,1.00000000237107,0.457973483621856
1999.99999999928,8.98913633728363,1.00000000377152,0.557675052755994
2099.99999999919,8.61250061395269,1.00000000212015,0.441824885052012
2199.99999999909,8.23898840675882,1.00000000292162,0.516449030542278
2299.999999999,7.89076726245573,1.0000000036624,0.549201472480823
2399.99999999891,7.59600609147102,1.000000001891,0.440376587660955
2499.99999999882,7.31439926496321,1.00000000336814,0.537223137989509
2599.99999999873,7.05147613352114,1.00000000326068,0.545417784456864
2699.99999999864,6.79611429547791,1.00000000351921,0.548017193774354
2799.99999999855,6.60481947661993,1.00000000199316,0.450146876825205
2899.99999999846,6.43824258775702,1.00000000339912,0.525437313266712
2999.99999999837,6.26914458465591,1.00000000300161,0.534817657796477
3099.99999999828,6.10388842610251,1.00000000316517,0.57203988283355
3199.99999999819,5.93656514128192,1.00000000357521,0.558816569027857
3299.99999999809,5.79534298846496,1.00000000243024,0.503120997309296
3399.999999998,5.73482520600737,1.0000000027305,0.48947150585752
3499.99999999791,5.66663845298079,1.00000000329888,0.541521132166956
3599.99999999782,5.59201983764061,1.00000000292348,0.564579287880986
3699.99999999773,5.52341108909687,1.00000000315998,0.574828072948857
3799.99999999764,5.42874240035308,1.00000000359328,0.608461337420396
3899.99999999755,5.33317182503543,1.00000000325423,0.598007778455084
3999.99999999746,5.23356156771493,1.00000000352691,0.58604319945304
4099.99999999738,5.146295420838,1.00000000280402,0.55049858314387
4199.99999999775,5.13703816500839,1.00000000228145,0.493991757464586
4299.99999999811,5.16723626398725,1.00000000324157,0.542818357940014
4399.99999999848,5.17388963972713,1.00000000319669,0.559673535555793
4499.99999999884,5.17418977132756,1.00000000324878,0.590895006992096
4599.9999999992,5.15936892609265,1.00000000363016,0.61312343093995
4699.99999999957,5.14471018128832,1.00000000328958,0.606688375056089
4799.99999999993,5.12296787415977,1.00000000370833,0.634603756997254
4900.00000000029,5.08608102963248,1.00000000333111,0.608019447734662
5000.00000000066,5.0384964697897,1.00000000349835,0.627536555407069
5100.00000000102,4.9838049603208,1.00000000330613,0.63603161903247
5200.00000000139,4.92369009563194,1.00000000349432,0.640595269914555
5300.00000000175,4.86094792734984,1.00000000373736,0.635389753231871
5400.00000000211,4.79915200139804,1.0000000039043,0.598878006899394
5500.00000000248,4.76337215776459,1.00000000271534,0.551201741519447
5600.00000000284,4.80248016006245,1.0000000025438,0.524395218187001
5700.00000000321,4.88928503627551,1.0000000034487,0.550467931361043
5800.00000000357,4.96525760966557,1.00000000392223,0.579745911589123
5900.00000000393,5.02421853746048,1.00000000349619,0.586996208603201
6000.0000000043,5.07320203678314,1.00000000367461,0.5950746771603
6100.00000000466,5.1136933341407,1.00000000344826,0.624964257574578
6200.00000000502,5.14072251232284,1.00000000350912,0.640941366456772
6300.00000000539,5.15320843534336,1.00000000380048,0.651417217544958
6400.00000000575,5.15779488539726,1.00000000386981,0.639935554129278
6500.00000000612,5.154008216268,1.00000000401409,0.639071760207303
6600.00000000648,5.15754325335471,1.00000000352706,0.63333267279897
6700.00000000684,5.16398231405482,1.00000000361228,0.651904204415345
6800.00000000721,5.16092362552327,1.00000000402486,0.632015831282196
6900.00000000757,5.15307081475983,1.00000000362974,0.630586102552108
7000.00000000793,5.14762781528244,1.00000000361061,0.644354351878052
7100.0000000083,5.13884560637393,1.00000000400823,0.664797684655653
7200.00000000866,5.12103843378249,1.0000000037612,0.659636520122525
7300.00000000903,5.10314184215225,1.00000000364434,0.639146496467703
7400.00000000939,5.08370796867259,1.00000000394206,0.651216052525926
7500.00000000975,5.05343365650839,1.00000000394375,0.665174316835131
7600.00000001012,5.01406122564996,1.00000000414886,0.665968233934781
7700.00000001048,4.9708851784373,1.00000000362894,0.665481179921072
7800.00000001084,4.92680731321248,1.00000000387273,0.670544317611261
7900.00000001121,4.88509311504163,1.00000000429117,0.659838310994068
8000.00000001157,4.84688393074046,1.00000000418981,0.65605433085275
8100.00000001194,4.80964741340585,1.00000000399128,0.620165111335942
8200.0000000123,4.78017139009255,1.00000000387818,0.584310682005945
8300.00000001266,4.7926784566389,1.00000000306063,0.555311612232621
8400.00000001303,4.87307314999221,1.00000000309828,0.547375691280197
8500.00000001339,5.00733556021581,1.00000000383298,0.553853204176666
8600.00000001376,5.15578393280373,1.0000000042341,0.574383682754403
8700.00000001412,5.29781330845855,1.00000000439101,0.588029158784375
8800.00000001448,5.43225429468883,1.00000000387514,0.59440975632493
8900.00000001485,5.55471914285033,1.00000000391727,0.598748822735656
9000.00000001521,5.67452163333346,1.00000000428974,0.620747710263465
9100.00000001557,5.778230949774,1.00000000429498,0.637042756089902
9200.00000001594,5.87050324926816,1.00000000438286,0.653259650817853
9300.0000000163,5.95552645701243,1.00000000428358,0.658066427114266
9400.00000001667,6.03057092581892,1.00000000424368,0.659756635785415
9500.00000001703,6.08837706821027,1.00000000424009,0.655371931640247
9600.00000001739,6.13106146381753,1.00000000443596,0.677400036440271
9700.00000001776,6.17125592693031,1.00000000431306,0.687689151786907
9800.00000001812,6.21828189700267,1.00000000450253,0.680253169762919
9900.00000001848,6.26077475809458,1.00000000418695,0.682977412352121
10000.0000000188,6.29605470965725,1.000000004493,0.694877336715263
10100.0000000192,6.32819438860495,1.00000000430813,0.691484898644233
10200.0000000196,6.35898931096448,1.00000000461845,0.695476646845805
10300.0000000199,6.38114424677259,1.00000000452285,0.694426333889082
10400.0000000203,6.40096706144297,1.00000000432042,0.696179686673358
10500.0000000207,6.41368425198965,1.00000000465607,0.685586932323251
10600.000000021,6.4241254772689,1.00000000422208,0.699714501427153
10700.0000000214,6.43401698458461,1.00000000439925,0.689478482175038
10800.0000000218,6.44260417767834,1.00000000426494,0.675321868773933
10900.0000000221,6.46411155216061,1.00000000489029,0.683105823899421
11000.0000000225,6.49488481973918,1.00000000442179,0.678793309544344
11100.0000000229,6.53267510490253,1.0000000043308,0.676581368584615
11200.0000000232,6.57516419197048,1.00000000453845,0.683763763911523
11300.0000000236,6.61106988908118,1.00000000471588,0.674636098055824
11400.0000000239,6.65097563716401,1.00000000426221,0.660654358240244
11500.0000000243,6.68243219265083,1.00000000561104,0.659921950120093
11600.0000000247,6.71815773638472,1.00000000395297,0.657867614684846
11700.000000025,6.75966043390376,1.00000000500289,0.687394891261179
11800.0000000254,6.79313968814261,1.00000000437837,0.686435682239617
11900.0000000258,6.81992677352148,1.0000000048375,0.704016388235006
12000.0000000261,6.84067245848328,1.00000000434123,0.702050237097395
12100.0000000265,6.85799254431913,1.00000000468217,0.69356705136598
12200.0000000269,6.88130950166394,1.00000000443386,0.677493242089535
12300.0000000272,6.91555163728378,1.00000000455161,0.678559492639235
12400.0000000276,6.95204051886296,1.00000000463029,0.681939634225996
12500.0000000279,6.98582309090929,1.00000000474113,0.698162983601977
12600.0000000283,7.01600021896894,1.00000000487956,0.702561057214832
12700.0000000287,7.04142579279476,1.00000000420728,0.673173727858875
12800.000000029,7.06942244157292,1.00000000455858,0.66733780771074
12900.0000000294,7.098710794444,1.00000000478508,0.68515861842324
13000.0000000298,7.13686590334445,1.0000000044535,0.684456487543526
13100.0000000301,7.1754171440962,1.00000000506433,0.709737427603579
13200.0000000305,7.20650265010193,1.00000000471024,0.694580196152869
13300.0000000309,7.23674159673495,1.00000000457096,0.708562140727458
13400.0000000312,7.26164082106616,1.00000000484881,0.704040012650215
13500.0000000316,7.28209291503856,1.00000000509174,0.697855611141421
13600.0000000319,7.30772009699115,1.00000000469816,0.70294048808688
13700.0000000323,7.32476968134004,1.00000000505862,0.697909685521012
13800.0000000327,7.34270383966113,1.00000000478607,0.704660163829341
13900.000000033,7.36367623528092,1.00000000445224,0.690638096911945
14000.0000000334,7.38258258890993,1.0000000049458,0.703367383366088
14100.0000000338,7.4001696965365,1.00000000455802,0.692256209236221
14200.0000000341,7.41709820750301,1.00000000502465,0.703606489553221
14300.0000000345,7.4272676896216,1.00000000486146,0.705314086865074
14400.0000000349,7.43662247875128,1.00000000489974,0.70001637834576
14500.0000000352,7.44523137872668,1.00000000501193,0.693406183934489
14600.0000000356,7.45459211869945,1.00000000491748,0.688827253755292
14700.0000000359,7.45647816042624,1.00000000529154,0.700094603165501
14800.0000000363,7.45319173371076,1.00000000529579,0.696167168770016
14900.0000000367,7.44319581959056,1.00000000470673,0.677258220424732
15000.000000037,7.42891565987601,1.00000000533461,0.68034241110413
15100.0000000374,7.40789469724167,1.00000000473553,0.685408744487517
15200.0000000378,7.38580651934537,1.00000000509968,0.693955775145325
15300.0000000381,7.3578186916089,1.00000000523461,0.691261830049799
15400.0000000385,7.33026578411641,1.00000000517573,0.688878958950492
15500.0000000389,7.30040898687613,1.00000000496994,0.697888831310039
15600.0000000392,7.27166785177082,1.00000000455369,0.701013902467085
15700.0000000396,7.24530688764002,1.00000000536596,0.690912324893081
15800.0000000399,7.22006497653292,1.00000000526876,0.719515591526674
15900.0000000403,7.20015326139458,1.00000000475832,0.719974560627388
16000.0000000407,7.18171839687942,1.00000000532369,0.713961307891612
16100.000000041,7.17356749352748,1.0000000055722,0.702126816810144
16200.0000000414,7.16289403747016,1.00000000529403,0.69517886101322
16300.0000000418,7.16579947959786,1.00000000499021,0.67641233632513
16400.0000000418,7.18126575723564,1.00000000479056,0.656820497720278
16500.0000000404,7.2252691110257,1.00000000512459,0.63660382762719
16600.0000000389,7.30709964347823,1.00000000471031,0.626463551604652
16700.0000000375,7.44938848434373,1.00000000442289,0.611426352920677
16800.000000036,7.64778905987226,1.000000004767,0.624867538684962
16900.0000000346,7.91854994836441,1.00000000480639,0.62780270495498
17000.0000000331,8.22620174033396,1.0000000049014,0.62794423935121
17100.0000000317,8.57713661583585,1.00000000518767,0.637847528509626
17200.0000000302,8.9090579659272,1.00000000585843,0.64486726035878
17300.0000000287,9.24971800078565,1.00000000534401,0.652295787743897
17400.0000000273,9.56742082690039,1.00000000529885,0.654869373832325
17500.0000000258,9.89039356684897,1.00000000546334,0.654736095140119
17600.0000000244,10.2037650749096,1.00000000541687,0.652534556580932
17700.0000000229,10.5187130870232,1.00000000557167,0.649789709424583
17800.0000000215,10.8482714896239,1.00000000515447,0.652238203853896
17900.00000002,11.1664188746515,1.00000000546568,0.653189245090008
18000.0000000186,11.4982262869336,1.00000000543801,0.663973292691449
18100.0000000171,11.8268188414536,1.00000000540883,0.666777342864878
18200.0000000156,12.162863371547,1.00000000588673,0.677212282479269
18300.0000000142,12.4791470489847,1.00000000557806,0.695684880498826
18400.0000000127,12.8066311051554,1.00000000574048,0.695144897745647
18500.0000000113,13.1266680199739,1.00000000560651,0.703636451577955
18600.0000000098,13.4220538683556,1.00000000535533,0.697291914775132
18700.0000000084,13.7179633704391,1.00000000504527,0.69427807216582
18800.0000000069,13.9998179532625,1.00000000575232,0.717061412240755
18900.0000000055,14.2863535151849,1.00000000556362,0.695234110486657
19000.000000004,14.557059602284,1.00000000555297,0.701732136226747
19100.0000000026,14.8080482199677,1.00000000590555,0.711052215526213
19200.0000000011,15.0631292589926,1.00000000573195,0.710631038365787
19299.9999999996,15.3154583443223,1.0000000059609,0.691517747821985
19399.9999999982,15.574095015742,1.00000000577251,0.708305263549975
19499.9999999967,15.8167333384292,1.00000000584455,0.716721804470775
19599.9999999953,16.0548170194893,1.00000000592284,0.713354565820174
19699.9999999938,16.2880499481438,1.00000000573918,0.724632081082159
19799.9999999924,16.5170908214929,1.00000000556749,0.717119769974374
19899.9999999909,16.7484093249363,1.0000000063699,0.7250331904857
19999.9999999895,16.9817653971099,1.00000000574269,0.726015959969504
20099.999999988,17.2376205924504,1.00000000576179,0.723383004836185
20199.9999999865,17.4993040890753,1.00000000560807,0.726484471350374
20299.9999999851,17.7619532129764,1.00000000543496,0.716575989837131
20399.9999999836,18.0197853262541,1.00000000551531,0.725558703278112
20499.9999999822,18.2693363204262,1.00000000568591,0.730537573565266
20599.9999999807,18.5259504700602,1.00000000624804,0.741358995218387
20699.9999999793,18.7578575488016,1.00000000607021,0.728106968926349
20799.9999999778,18.9856034670048,1.00000000569701,0.71738984932039
20899.9999999764,19.2296050385646,1.00000000530861,0.7104415754058
20999.9999999749,19.4927732908891,1.00000000532412,0.718794144636949
21099.9999999734,19.7648872615393,1.00000000643786,0.722701148405533
21199.999999972,20.0343833217275,1.000000006123,0.724700430179264
21299.9999999705,20.3106693862614,1.00000000561924,0.727489192928859
21399.9999999691,20.5962412764242,1.00000000620609,0.70815931465018
21499.9999999676,20.8817407115083,1.00000000568838,0.709718472668412
21599.9999999662,21.1507980410604,1.00000000618717,0.726154652372078
21699.9999999647,21.4207690651967,1.00000000592286,0.726016409268305
21799.9999999633,21.6947666325414,1.00000000632105,0.725297466375903
21899.9999999618,21.9806395244723,1.0000000061455,0.723538675392245
21999.9999999603,22.2673200759428,1.00000000636199,0.721627454468863
22099.9999999589,22.5687734368941,1.00000000669818,0.723374777766563
22199.9999999574,22.8771963642874,1.00000000582739,0.719750515814447
22299.999999956,23.1713706140764,1.00000000633579,0.736458148448975
22399.9999999545,23.4606491839509,1.00000000605928,0.734555757350403
22499.9999999531,23.7570159052992,1.00000000591711,0.717105926018647
22599.9999999516,24.043485562782,1.00000000629875,0.723359950235062
22699.9999999502,24.3425702760027,1.00000000653285,0.716727673588911
22799.9999999487,24.641722488748,1.00000000639632,0.719899555917213
22899.9999999473,24.9479841071947,1.00000000663466,0.724824802356617
22999.9999999458,25.2511957875028,1.0000000062344,0.719771084477568
23099.9999999443,25.5496260006381,1.00000000676511,0.722232892402646
23199.9999999429,25.8515524595476,1.00000000669805,0.728103994744643
23299.9999999414,26.1454349272233,1.00000000607595,0.728761203638052
23399.99999994,26.4481188252054,1.00000000619376,0.731704953661256
23499.9999999385,26.7565547555016,1.00000000629188,0.730094037977746
23599.9999999371,27.0873983032728,1.00000000614467,0.711007754431934
23699.9999999356,27.4331914603503,1.00000000640797,0.718975213737073
23799.9999999342,27.7697848602572,1.00000000678522,0.731021155884095
23899.9999999327,28.0895888163788,1.00000000666936,0.728788792966656
23999.9999999312,28.3920825888403,1.00000000664797,0.722856761110805
24099.9999999298,28.6979765046687,1.00000000604359,0.726457218690843
24199.9999999283,29.0208924139861,1.00000000621466,0.716425591757407
24299.9999999269,29.3674040421407,1.00000000607154,0.717239885553241
24399.9999999254,29.7290171821349,1.00000000625539,0.727114728994656
24499.999999924,30.1071816030058,1.00000000638866,0.720564059639526
24599.9999999225,30.4946371551201,1.00000000639445,0.726257766008911
24699.9999999211,30.8838458993009,1.00000000658146,0.735061607189555
24799.9999999196,31.2718821606907,1.00000000589703,0.731440165303953
24899.9999999181,31.6458977329572,1.00000000736655,0.732957302339664
24999.9999999167,32.0145836954239,1.00000000631509,0.719054121503813
25099.9999999152,32.3792735270826,1.00000000657939,0.728216559189061
25199.9999999138,32.735214920429,1.00000000698802,0.725487672910152
25299.9999999123,33.0938247816112,1.00000000667763,0.723894768841669
25399.9999999109,33.4548830579773,1.00000000606634,0.715154406181943
25499.9999999094,33.8416819299184,1.00000000598556,0.723407562264723
25599.999999908,34.2272687837551,1.00000000669615,0.733067080686627
25699.9999999065,34.6037854065278,1.00000000686328,0.726311132065202
25799.9999999051,34.9924923387249,1.00000000655438,0.716727532883871
25899.9999999036,35.4044306725665,1.00000000647623,0.714249120975774
25999.9999999021,35.8325699666629,1.00000000645353,0.730829444249855
26099.9999999007,36.2497470170747,1.00000000689318,0.734482975118118
26199.9999998992,36.6685284775872,1.00000000706089,0.74630586461743
26299.9999998978,37.0798811485779,1.00000000618527,0.735237511442875
26399.9999998963,37.4889979268281,1.00000000657093,0.73793392154534
26499.9999998949,37.8902719858198,1.00000000716059,0.740755090408873
26599.9999998934,38.3016420158377,1.00000000668802,0.728382571110366
26699.999999892,38.7319269010148,1.00000000585746,0.729238125681434
26799.9999998905,39.1816804875338,1.00000000721595,0.732532649408097
26899.999999889,39.6440965467644,1.00000000709197,0.727194836125508
26999.9999998876,40.1221838048849,1.00000000699472,0.728054546890829
27099.9999998861,40.6014324967652,1.00000000714464,0.741079757472726
27199.9999998847,41.0763115736918,1.00000000736511,0.733241653755761
27299.9999998832,41.5505198370044,1.00000000766887,0.743289653699249
27399.9999998818,42.0135854277046,1.00000000711322,0.73640090552383
27499.9999998803,42.4783115759954,1.00000000774098,0.735109922375485
27599.9999998789,42.9377611539585,1.00000000673801,0.731380309875593
27699.9999998774,43.3956071914787,1.00000000774024,0.735801485863269
27799.9999998759,43.854318247346,1.00000000737436,0.735501665306511
27899.9999998745,44.3141882980926,1.00000000716153,0.739052860593841
27999.999999873,44.7764629151339,1.00000000729222,0.736983033195436
28099.9999998716,45.2514825422853,1.00000000651172,0.716618668970991
28199.9999998701,45.7436582740673,1.00000000728661,0.729297343539284
28299.9999998687,46.2348783880905,1.00000000762273,0.729940211750863
28399.9999998672,46.716596554064,1.00000000756764,0.726977797515373
28499.9999998658,47.2006991632725,1.00000000721558,0.73195933856651
28599.9999998643,47.6853835989768,1.00000000784439,0.732897793472917
28699.9999998629,48.1747260292269,1.00000000687509,0.721223876371186
28799.9999998614,48.6656001304271,1.00000000714903,0.72854112005077
28899.9999998599,49.1628614749263,1.00000000724164,0.727108525405296
28999.9999998585,49.6672092034171,1.00000000720573,0.732196302613305
29099.999999857,50.1683482863113,1.00000000756247,0.72768399845485
