Time,AGPnorm,Energy,Entropy
0,0,1,-7.54635757827268e-17
99.9999999999986,0.00203633294337732,1.00000000000131,0.00612734878180843
199.999999999993,0.013697513122353,1.00000000000337,0.0179980138071122
300,0.0275519738019447,1.00000000000301,0.0333809151201353
400.000000000022,0.0414519109882151,1.00000000000096,0.0526164001011011
500.000000000045,0.0581087564731411,1.00000000000001,0.0760458184790492
600.000000000068,0.0786118972866265,1.00000000000219,0.104197580466364
700.000000000091,0.0978156695685756,1.00000000000397,0.138130160940745
800.000000000113,0.116518838770298,1.00000000001203,0.180610126726009
900.000000000136,0.134964855000136,1.0000000001067,0.236503656288669
1000.00000000016,0.149761415747864,1.00000000042926,0.301078339250506
1100.0000000001,0.208232994568039,1.00000000096404,0.362418980825544
1200,0.385025287586624,1.00000000147277,0.414982098987751
1299.99999999991,0.751757388316499,1.00000000200604,0.458603159500529
1399.99999999982,1.4154107692357,1.00000000225765,0.494344221481322
1499.99999999973,2.46838801464196,1.00000000256113,0.522542510941985
1599.99999999964,3.9435693633271,1.00000000278733,0.545413536467281
1699.99999999955,5.83749905334811,1.00000000279934,0.562933650648846
1799.99999999946,8.10960183691994,1.00000000287056,0.575471395169889
1899.99999999937,10.6608814035107,1.00000000276455,0.584450521761922
1999.99999999928,13.3866039315876,1.00000000278865,0.591537109940831
2099.99999999919,16.2299107164071,1.00000000260003,0.595726450861534
2199.99999999909,19.1242051483569,1.00000000263368,0.59722147967992
2299.999999999,21.9641768749156,1.00000000252457,0.597411993627863
2399.99999999891,24.6581694892711,1.00000000236263,0.597337932347405
2499.99999999882,27.1648585799773,1.00000000227492,0.596573043111651
2599.99999999873,29.4699718832269,1.00000000222509,0.593921411699561
2699.99999999864,31.5430722278155,1.00000000206828,0.590182629664543
2799.99999999855,33.3492315582109,1.00000000205008,0.587524467913534
2899.99999999846,34.8744232507078,1.00000000194009,0.587285009272806
2999.99999999837,36.1280874911174,1.00000000192088,0.585923253457852
3099.99999999828,37.1284756400938,1.00000000184485,0.583641622198794
3199.99999999819,37.8814814539625,1.00000000175546,0.582662324550402
3299.99999999809,38.3959492781476,1.0000000016233,0.578975840291818
3399.999999998,38.6944516337782,1.00000000163291,0.580563635458047
3499.99999999791,38.8037499830007,1.00000000154894,0.573807933765345
3599.99999999782,38.7632811443934,1.00000000161892,0.576306946782516
3699.99999999773,38.5771537030566,1.00000000161826,0.571843672576224
3799.99999999764,38.2929591412375,1.00000000154224,0.567539468151968
3899.99999999755,37.8993100090251,1.00000000169694,0.572737394775617
3999.99999999746,37.4606439762539,1.00000000150191,0.558535763072765
4099.99999999738,36.9453513201383,1.00000000168671,0.561287240429719
4199.99999999775,36.4212127545691,1.00000000168616,0.555184344367269
4299.99999999811,35.8472858071884,1.00000000140372,0.530569060947479
4399.99999999848,35.2668989828878,1.0000000019664,0.572006874923944
4499.99999999884,34.6806734669359,1.0000000013108,0.522695959422162
4599.9999999992,34.0731878001379,1.00000000174767,0.548932787472956
4699.99999999957,33.4881481245991,1.00000000187628,0.542136331877758
4799.99999999993,32.8988635646825,1.00000000144646,0.514220322594179
4900.00000000029,32.3043535634505,1.00000000174454,0.541530246981254
5000.00000000066,31.7331659348967,1.00000000188782,0.53138515820918
5100.00000000102,31.1711505914973,1.00000000139313,0.507151120981093
5200.00000000139,30.6114230351396,1.00000000175865,0.522593490659622
5300.00000000175,30.0673555871844,1.00000000197484,0.543246448908324
5400.00000000211,29.5405438076561,1.0000000015305,0.496696349879386
5500.00000000248,29.0251713088475,1.00000000154407,0.521080635797715
5600.00000000284,28.5210367836113,1.00000000167971,0.528844219993122
5700.00000000321,28.0327937499278,1.00000000182951,0.526747765424503
5800.00000000357,27.5600544273838,1.00000000165139,0.510226854092963
5900.00000000393,27.1046204575417,1.00000000146773,0.508388463203756
6000.0000000043,26.6621432875673,1.00000000174112,0.546817568331608
6100.00000000466,26.2354578762489,1.00000000156537,0.51188143976725
6200.00000000502,25.8244608718661,1.00000000171649,0.520097430972236
6300.00000000539,25.4275409316991,1.00000000166056,0.509444211049126
6400.00000000575,25.0506359602513,1.00000000141303,0.512546041446889
6500.00000000612,24.683980638569,1.00000000181868,0.549602294451584
6600.00000000648,24.3305841841795,1.00000000150947,0.520577140223593
6700.00000000684,23.9955532288909,1.00000000161368,0.510013690277663
6800.00000000721,23.6717545733643,1.00000000188402,0.523967312126645
6900.00000000757,23.3613305491095,1.00000000153408,0.504770120847728
7000.00000000793,23.067364558507,1.00000000165253,0.527136200112956
7100.0000000083,22.7795957606925,1.00000000199645,0.54486140590771
7200.00000000866,22.4996409282662,1.00000000157775,0.532018382686081
7300.00000000903,22.2362593947552,1.00000000158615,0.5084915643315
7400.00000000939,21.9859418816451,1.0000000017326,0.52764931730648
7500.00000000975,21.745023270796,1.00000000170968,0.523009560463856
7600.00000001012,21.5173110867974,1.00000000161937,0.514411928824362
7700.00000001048,21.2999000594714,1.00000000172791,0.541162001597325
7800.00000001084,21.0897254387077,1.0000000017851,0.544127164073402
7900.00000001121,20.883015469948,1.00000000171611,0.538313779624907
8000.00000001157,20.6826801737571,1.00000000165384,0.548207639745712
8100.00000001194,20.4921000203894,1.00000000163667,0.533414788672236
8200.0000000123,20.3141687291391,1.00000000166467,0.53206903044157
8300.00000001266,20.1497086203224,1.00000000167112,0.540427407683186
8400.00000001303,19.9945446547861,1.0000000017125,0.534804326248914
8500.00000001339,19.8491743021893,1.00000000164858,0.540127001274389
8600.00000001376,19.7047994939898,1.00000000184992,0.559960988901341
8700.00000001412,19.5671871075762,1.00000000157675,0.547572472942671
8800.00000001448,19.4404013123653,1.00000000173667,0.54922918094709
8900.00000001485,19.3103066207315,1.00000000184052,0.556692344492872
9000.00000001521,19.1756925160226,1.00000000189006,0.569420682466019
9100.00000001557,19.0463394462913,1.00000000161261,0.546666817166302
9200.00000001594,18.932356655587,1.0000000016669,0.542385406737048
9300.0000000163,18.82998372455,1.00000000176536,0.560690673827198
9400.00000001667,18.7354775889908,1.00000000163689,0.546346115448323
9500.00000001703,18.6475529595926,1.00000000169786,0.552052859389188
9600.00000001739,18.5650372548399,1.00000000175201,0.561798807646813
9700.00000001776,18.4809925422868,1.00000000184019,0.563230360199848
9800.00000001812,18.3977158346449,1.00000000165094,0.563465994085573
9900.00000001848,18.3247600684991,1.0000000015669,0.553319713277226
10000.0000000188,18.2567435503236,1.00000000180302,0.569080791413995
10100.0000000192,18.1816186169675,1.00000000198512,0.572848403822763
10200.0000000196,18.1015059530579,1.00000000177829,0.572072769706431
10300.0000000199,18.0192361633462,1.00000000176916,0.577499842709246
10400.0000000203,17.939892516611,1.0000000016902,0.57947065079907
10500.0000000207,17.8679728424601,1.00000000161319,0.570198741702038
10600.000000021,17.806053665764,1.0000000017858,0.577108512303542
10700.0000000214,17.7523486683939,1.00000000176964,0.568272899258704
10800.0000000218,17.709921526203,1.00000000178924,0.563466758498443
10900.0000000221,17.673772446158,1.00000000179122,0.566243875128959
11000.0000000225,17.6369607492593,1.00000000192294,0.579190039240227
11100.0000000229,17.5992453796512,1.00000000172211,0.581982112370923
11200.0000000232,17.5648106397923,1.00000000173775,0.578782594270749
11300.0000000236,17.5312633570827,1.00000000184893,0.585221313053056
11400.0000000239,17.4967632318919,1.00000000181242,0.578378146870107
11500.0000000243,17.4640091679955,1.00000000175121,0.582100193608649
11600.0000000247,17.4315328872092,1.00000000182866,0.585062999949358
11700.000000025,17.3984771710332,1.00000000177123,0.583395512233414
11800.0000000254,17.3664051757834,1.00000000192867,0.586094689487608
11900.0000000258,17.3272446951193,1.00000000190399,0.592106457581605
12000.0000000261,17.278880203633,1.00000000190228,0.599947984536418
12100.0000000265,17.2261690880521,1.00000000179798,0.60808983705775
12200.0000000269,17.1765434440246,1.00000000165078,0.596136006694829
12300.0000000272,17.135356102897,1.00000000172764,0.590550469551776
12400.0000000276,17.1053464684159,1.00000000172624,0.581740920704816
12500.0000000279,17.0859102746906,1.00000000178838,0.573207046367142
12600.0000000283,17.0772698321197,1.00000000171861,0.570797834533585
12700.0000000287,17.0740752775453,1.00000000182397,0.587691758013081
12800.000000029,17.069025943624,1.00000000184691,0.591952226480071
12900.0000000294,17.0621640960019,1.00000000169814,0.5874573674077
13000.0000000298,17.0565868772599,1.00000000174727,0.58786598781695
13100.0000000301,17.0540280395736,1.00000000167697,0.593769548425839
13200.0000000305,17.0533859772098,1.00000000175506,0.587393471828156
13300.0000000309,17.0493732861065,1.00000000193189,0.593669065975736
13400.0000000312,17.0395998987807,1.00000000189466,0.600040465419377
13500.0000000316,17.0324127239163,1.00000000171378,0.595933044087307
13600.0000000319,17.0293064568424,1.00000000188215,0.601730503816821
13700.0000000323,17.0255092814561,1.00000000194341,0.616019015589975
13800.0000000327,17.0186671600859,1.00000000187658,0.611458668070443
13900.000000033,17.0096484864439,1.00000000187024,0.617661337869508
14000.0000000334,17.0018916374996,1.00000000171216,0.619625318920964
14100.0000000338,16.9923684317969,1.0000000018289,0.619032850652427
14200.0000000341,16.9762942221142,1.000000001985,0.621360811993914
14300.0000000345,16.9510624224477,1.00000000204133,0.621895730030644
14400.0000000349,16.916867347973,1.00000000198608,0.618881274556042
14500.0000000352,16.8782736086988,1.0000000018176,0.621238580418082
14600.0000000356,16.840916333848,1.00000000174017,0.621378109877158
14700.0000000359,16.8104147338559,1.00000000186286,0.613771777417706
14800.0000000363,16.7906932050085,1.00000000182835,0.607197016566065
14900.0000000367,16.7803055111663,1.00000000181715,0.6041561727116
15000.000000037,16.7774453314506,1.00000000182173,0.598629284759422
15100.0000000374,16.7837809380026,1.00000000185057,0.591478779292594
15200.0000000378,16.7974728591537,1.00000000185171,0.592267482025919
15300.0000000381,16.813047244026,1.00000000191663,0.596906549124561
15400.0000000385,16.8268745085501,1.00000000195265,0.6088248417383
15500.0000000389,16.8416540334141,1.00000000192318,0.606914420915267
15600.0000000392,16.8551189322096,1.00000000184004,0.606380672388948
15700.0000000396,16.8735999016121,1.00000000176009,0.598314646394084
15800.0000000399,16.8932842067821,1.00000000206671,0.604652924018162
15900.0000000403,16.9082011854659,1.00000000207184,0.616245533666543
16000.0000000407,16.9185803765316,1.00000000200236,0.62155224176779
16100.000000041,16.9320282097604,1.00000000187732,0.615965491245426
16200.0000000414,16.9443017901317,1.00000000197135,0.614368191444356
16300.0000000418,16.9510212303156,1.00000000199908,0.615618846036203
16400.0000000418,16.9585838966627,1.00000000190512,0.605150769407128
16500.0000000404,16.9649887701679,1.0000000019695,0.606000482221441
16600.0000000389,16.9753020775179,1.00000000190369,0.609766236209775
16700.0000000375,16.9888117090447,1.00000000204459,0.615494311743604
16800.000000036,17.000263013111,1.00000000193589,0.622375249093784
16900.0000000346,17.0107137402591,1.00000000192862,0.637472720837207
17000.0000000331,17.0200175595537,1.00000000193255,0.635508160528869
17100.0000000317,17.0235708156388,1.00000000207577,0.633606394664978
17200.0000000302,17.0214919406548,1.00000000205674,0.645044701386851
17300.0000000287,17.018184701488,1.00000000207341,0.641348606408974
17400.0000000273,17.0129765303664,1.00000000198377,0.646763860150294
17500.0000000258,17.0068125994945,1.00000000198158,0.642879588634989
17600.0000000244,17.0010907768777,1.00000000201546,0.648594254029143
17700.0000000229,16.9904273242733,1.00000000219731,0.651904139939651
17800.0000000215,16.9726378460342,1.0000000020196,0.643141432003589
17900.00000002,16.951268494892,1.00000000197405,0.63622543376662
18000.0000000186,16.9255545263349,1.00000000207119,0.634816730630967
18100.0000000171,16.8935224805419,1.00000000222374,0.627241283645694
18200.0000000156,16.859641489518,1.00000000199377,0.634285472242041
18300.0000000142,16.8298963804778,1.00000000197769,0.633332471452682
18400.0000000127,16.8069411759828,1.00000000194148,0.617053525593566
18500.0000000113,16.7931971150477,1.0000000019221,0.613887080131708
18600.0000000098,16.7885386347167,1.00000000203635,0.615865639882488
18700.0000000084,16.7907129377913,1.00000000204742,0.618179611920773
18800.0000000069,16.8013323098081,1.00000000194074,0.606269765829858
18900.0000000055,16.8205828806138,1.00000000186719,0.596666469024863
19000.000000004,16.8473916262098,1.00000000202834,0.601514137782993
19100.0000000026,16.8757665003469,1.00000000227585,0.605115355611391
19200.0000000011,16.9035670121047,1.00000000216533,0.606492332644433
19299.9999999996,16.9319767549744,1.00000000201631,0.613433899102863
19399.9999999982,16.9622614634446,1.00000000215672,0.615509441123526
19499.9999999967,16.9920482061318,1.00000000207052,0.618996953905455
19599.9999999953,17.0265739476878,1.00000000206083,0.617270780780325
19699.9999999938,17.0611700621368,1.00000000209636,0.60280608450148
19799.9999999924,17.0920278233697,1.00000000219252,0.612193827086882
19899.9999999909,17.1239762206786,1.00000000197406,0.612599097109333
19999.9999999895,17.156091976678,1.00000000232873,0.618812984628418
20099.999999988,17.1835870259805,1.00000000222752,0.620124804720015
20199.9999999865,17.205017821121,1.0000000022904,0.626665305027602
20299.9999999851,17.226076984738,1.00000000221297,0.62126394507031
20399.9999999836,17.2501663955476,1.00000000201895,0.621457694240728
20499.9999999822,17.2759186174573,1.000000002176,0.623034196772927
20599.9999999807,17.2997878792469,1.00000000227147,0.633408283188048
20699.9999999793,17.3217095867198,1.00000000215172,0.633815800416872
20799.9999999778,17.3439957411849,1.0000000021559,0.638603704480878
20899.9999999764,17.3682412122148,1.00000000221036,0.652029615485867
20999.9999999749,17.3928561670804,1.00000000218717,0.644996021560528
21099.9999999734,17.414456959522,1.00000000229551,0.646028804143218
21199.999999972,17.433176333603,1.00000000220967,0.647965747641222
21299.9999999705,17.4517891888582,1.0000000022327,0.64848404552321
21399.9999999691,17.4690956624529,1.00000000227072,0.660306492500246
21499.9999999676,17.487228753989,1.00000000214719,0.654306493085185
21599.9999999662,17.5074869797236,1.00000000219855,0.656044569355989
21699.9999999647,17.526609053198,1.000000002306,0.661964224444777
21799.9999999633,17.5446645120324,1.00000000222159,0.668376229216867
21899.9999999618,17.564847147921,1.00000000226252,0.667186242495099
21999.9999999603,17.5847635118244,1.00000000221458,0.664018528482681
22099.9999999589,17.6005549652543,1.00000000235214,0.667257642673497
22199.9999999574,17.6127714430723,1.00000000225271,0.660437610962085
22299.999999956,17.6229739431351,1.00000000224393,0.659194172000165
22399.9999999545,17.6316188175939,1.00000000215003,0.651337285121681
22499.9999999531,17.6406075592054,1.00000000227413,0.658882681907103
22599.9999999516,17.6468455036343,1.00000000211603,0.656180490828181
22699.9999999502,17.653040744153,1.00000000234319,0.657727315899412
22799.9999999487,17.6541324908193,1.00000000241112,0.658520864069655
22899.9999999473,17.6523884717063,1.00000000228556,0.667109743674644
22999.9999999458,17.6494107884752,1.00000000227247,0.67124742546361
23099.9999999443,17.6446633168121,1.00000000230401,0.667504355284499
23199.9999999429,17.6392963304659,1.00000000224742,0.662509959405189
23299.9999999414,17.631845248436,1.00000000235782,0.674311128744063
23399.99999994,17.6237654946428,1.00000000218095,0.677497084097323
23499.9999999385,17.6152559315237,1.0000000022272,0.673735701781272
23599.9999999371,17.6054792640013,1.0000000023466,0.66370159170622
23699.9999999356,17.5924330582558,1.00000000240345,0.66327982830498
23799.9999999342,17.5758603634967,1.00000000232832,0.667637480865641
23899.9999999327,17.5550125292296,1.00000000245098,0.67547876709868
23999.9999999312,17.5314103825437,1.00000000236009,0.661760211945716
24099.9999999298,17.5079344761211,1.00000000239614,0.664024408124233
24199.9999999283,17.4829317638926,1.00000000231739,0.675653508267153
24299.9999999269,17.4599856869321,1.00000000229095,0.677306762743695
24399.9999999254,17.4393428063618,1.00000000232242,0.670281798863966
24499.999999924,17.4213250015346,1.00000000228011,0.663449872286144
24599.9999999225,17.4081120121122,1.00000000226719,0.651556206743858
24699.9999999211,17.402223949073,1.00000000231443,0.639619928540076
24799.9999999196,17.4040844776273,1.00000000228462,0.633002342550891
24899.9999999181,17.4118078272043,1.00000000235787,0.632316606627794
24999.9999999167,17.4251924039177,1.00000000222649,0.631258930670467
25099.9999999152,17.4472333475839,1.00000000220023,0.63256386065027
25199.9999999138,17.4768473060521,1.00000000225214,0.631040307798425
25299.9999999123,17.5120298479824,1.00000000233329,0.625722385456204
25399.9999999109,17.5542584398723,1.0000000023827,0.627707254364818
25499.9999999094,17.5960486886981,1.00000000248333,0.622216585025918
25599.999999908,17.6381117630989,1.00000000254628,0.626708154467827
25699.9999999065,17.6811818279538,1.0000000025727,0.631860658579066
25799.9999999051,17.7219417079627,1.00000000238267,0.633861220093247
25899.9999999036,17.7663371518169,1.00000000228669,0.626329512244171
25999.9999999021,17.8146832336815,1.00000000236033,0.624646714082213
26099.9999999007,17.8639905513458,1.00000000250696,0.628166034415385
26199.9999998992,17.9167062620919,1.00000000229576,0.628187623705164
26299.9999998978,17.9724149696214,1.00000000248344,0.62730066463575
26399.9999998963,18.025480757893,1.00000000261842,0.633880901921904
26499.9999998949,18.0768202336639,1.00000000252328,0.639100029654502
26599.9999998934,18.1270753868102,1.00000000253723,0.63399825063585
26699.999999892,18.1761159439681,1.00000000252848,0.633908723099375
26799.9999998905,18.2241261236779,1.00000000255111,0.647221295220889
26899.999999889,18.2683695282099,1.0000000024885,0.638875329388508
26999.9999998876,18.3128767924344,1.00000000252524,0.637243300124049
27099.9999998861,18.3560372099977,1.00000000255731,0.637903092415934
27199.9999998847,18.3979217977292,1.00000000248878,0.635311683327811
27299.9999998832,18.4402625378406,1.00000000247491,0.639923543517308
27399.9999998818,18.4823855283996,1.00000000263965,0.642206314256363
27499.9999998803,18.5236432311881,1.00000000259402,0.65003745266265
27599.9999998789,18.5678496597117,1.00000000243504,0.651487169338549
27699.9999998774,18.6156386719229,1.00000000261873,0.650906405594137
27799.9999998759,18.6651831599683,1.00000000259182,0.65480493922814
27899.9999998745,18.7157356189413,1.00000000251323,0.659866781523502
27999.999999873,18.7648220432027,1.00000000263759,0.659855109080665
28099.9999998716,18.8113268392251,1.00000000262213,0.668054779593779
28199.9999998701,18.855553159521,1.00000000267285,0.671505796234566
28299.9999998687,18.8991663622519,1.00000000244628,0.664921787217017
28399.9999998672,18.9408635998116,1.00000000267699,0.663697985893687
28499.9999998658,18.9805320371311,1.00000000266618,0.677871474347286
28599.9999998643,19.020560675522,1.00000000254506,0.681622923825327
28699.9999998629,19.0593141422586,1.00000000257982,0.683004675035512
28799.9999998614,19.0936471236866,1.00000000262392,0.689467500954167
28899.9999998599,19.1254118984804,1.00000000266735,0.692672131323174
28999.9999998585,19.1583484548884,1.00000000258564,0.677970410447511
