Time,AGPnorm,Energy,Entropy
0,0,1,-8.2755184681887e-19
99.9999999999986,0.0152999569160813,1.00000000000296,0.0386124977417982
199.999999999993,0.0379165181400849,1.00000000000107,0.113647520193707
300,0.0670172278101297,1.0000000001753,0.248854045374343
400.000000000022,0.158562014811222,1.00000000242125,0.431250541852222
500.000000000045,0.674377927765663,1.00000000496996,0.541718101642785
600.000000000068,1.98760727855671,1.00000000573298,0.59114718682645
700.000000000091,3.87713264475046,1.00000000547568,0.604896464739396
800.000000000113,5.85261119954267,1.00000000508962,0.60513739491188
900.000000000136,7.59626443286346,1.00000000441252,0.593350117894345
1000.00000000016,8.84611905912035,1.00000000408594,0.586328022436633
1100.0000000001,9.60560857618711,1.0000000037052,0.57970212312176
1200,9.90606226825114,1.00000000317767,0.57678705779711
1299.99999999991,9.87008576203382,1.00000000361566,0.578005678718621
1399.99999999982,9.61876509788367,1.00000000372328,0.576325185015296
1499.99999999973,9.26467661839805,1.00000000308113,0.501253060697585
1599.99999999964,8.89587846589128,1.00000000316358,0.505669377375417
1699.99999999955,8.48300194209426,1.00000000446115,0.565966145940465
1799.99999999946,8.10137015324166,1.00000000244674,0.458287413300896
1899.99999999937,7.71165682764075,1.00000000415169,0.547794729250031
1999.99999999928,7.36169213667825,1.00000000241294,0.462877861032232
2099.99999999919,7.03340994269504,1.00000000333064,0.525203265662328
2199.99999999909,6.7210873937343,1.00000000412248,0.559433743426554
2299.999999999,6.45385838172087,1.00000000238994,0.461621234621924
2399.99999999891,6.2155891853205,1.00000000427398,0.531463860084695
2499.99999999882,5.99229915424103,1.00000000351609,0.533409231725211
2599.99999999873,5.7724382416459,1.00000000400867,0.543905652015457
2699.99999999864,5.61151907129863,1.000000002525,0.468280169620755
2799.99999999855,5.47742970928448,1.00000000379473,0.5326827527602
2899.99999999846,5.3415014319616,1.00000000328631,0.548232086832696
2999.99999999837,5.2052993937501,1.00000000372387,0.579385668020025
3099.99999999828,5.0675143466144,1.00000000413827,0.562762615501438
3199.99999999819,4.96269836437695,1.00000000270958,0.503653592522342
3299.99999999809,4.92634002706235,1.00000000388717,0.524499675446647
3399.999999998,4.87852000835309,1.00000000365441,0.556185723842256
3499.99999999791,4.82791009135481,1.00000000372031,0.578687346959381
3599.99999999782,4.77783949175905,1.00000000372324,0.579463459059307
3699.99999999773,4.70697159384258,1.00000000374707,0.603496928567378
3799.99999999764,4.63069623233579,1.00000000405568,0.599525930011013
3899.99999999755,4.55441189706299,1.0000000043961,0.570511458261462
3999.99999999746,4.51168118090064,1.00000000284567,0.517454143909295
4099.99999999738,4.545578779576,1.00000000340224,0.526208742137097
4199.99999999775,4.57830987147072,1.00000000409985,0.569730076167652
4299.99999999811,4.59864144913339,1.00000000371109,0.576254134062971
4399.99999999848,4.61508189439624,1.00000000395335,0.604806410313529
4499.99999999884,4.61614035456201,1.00000000393448,0.615867740883128
4599.9999999992,4.61694701226553,1.00000000398766,0.624274279609436
4699.99999999957,4.60523305224627,1.00000000417478,0.639193284039994
4799.99999999993,4.58475916707624,1.00000000427204,0.632496643242813
4900.00000000029,4.54879017433517,1.00000000418515,0.646256070362193
5000.00000000066,4.50458447252327,1.00000000378167,0.652075010387717
5100.00000000102,4.45736002880226,1.00000000446397,0.651760399566546
5200.00000000139,4.41134067536565,1.00000000402453,0.621264824340971
5300.00000000175,4.38412135002694,1.000000003596,0.564048307415984
5400.00000000211,4.42508809833093,1.00000000321108,0.548186420356989
5500.00000000248,4.51347286195593,1.00000000388578,0.572139688371335
5600.00000000284,4.59526157344715,1.00000000403471,0.602229204591875
5700.00000000321,4.66746486558156,1.00000000430688,0.621789692945644
5800.00000000357,4.73157422919895,1.00000000425176,0.632768657520132
5900.00000000393,4.78313279414645,1.00000000419382,0.639737822442278
6000.0000000043,4.82608516046476,1.00000000447289,0.664051391916904
6100.00000000466,4.84599227319228,1.0000000041688,0.663833120643463
6200.00000000502,4.86085380181127,1.00000000475511,0.674942448560211
6300.00000000539,4.87006842978086,1.0000000046325,0.658288224186639
6400.00000000575,4.88282708006869,1.00000000397568,0.660070881250143
6500.00000000612,4.89679078532611,1.00000000472218,0.683075198082251
6600.00000000648,4.89958875391624,1.00000000441545,0.657336747222161
6700.00000000684,4.90213415569718,1.00000000400596,0.653419436331268
6800.00000000721,4.90668718764743,1.00000000468833,0.678529772980232
6900.00000000757,4.90619955576071,1.00000000464311,0.686443870751528
7000.00000000793,4.89213183770725,1.00000000405017,0.669571144082721
7100.0000000083,4.88066381172438,1.00000000441537,0.666169932938027
7200.00000000866,4.86378142647226,1.00000000443621,0.669447999317338
7300.00000000903,4.83946100951863,1.00000000474504,0.67644371690614
7400.00000000939,4.805933784951,1.00000000465431,0.659666053012453
7500.00000000975,4.76717351750582,1.00000000489155,0.667653263441334
7600.00000001012,4.72651509598923,1.00000000473539,0.677637404260383
7700.00000001048,4.68737091682047,1.00000000501871,0.690609903194889
7800.00000001084,4.65182947945327,1.00000000461982,0.681331661871361
7900.00000001121,4.62387591738597,1.00000000424437,0.633745430789489
8000.00000001157,4.62602714741583,1.0000000037732,0.586018814479885
8100.00000001194,4.68950765716329,1.00000000357089,0.581316300910819
8200.0000000123,4.80682290921133,1.00000000419844,0.59231620878014
8300.00000001266,4.93932345862952,1.00000000459985,0.606602452248974
8400.00000001303,5.06576363140485,1.00000000496931,0.611582634156434
8500.00000001339,5.18515346664581,1.00000000477686,0.61505234259294
8600.00000001376,5.29877881521789,1.00000000517653,0.625570174056132
8700.00000001412,5.4046852486151,1.00000000468976,0.634495000093797
8800.00000001448,5.49983433188585,1.00000000529333,0.660118525342353
8900.00000001485,5.58307561141055,1.00000000498842,0.675708808016223
9000.00000001521,5.65767236374152,1.00000000514488,0.691342557267299
9100.00000001557,5.73237475848397,1.00000000497492,0.68950594979376
9200.00000001594,5.79215473032133,1.00000000490953,0.671717830235303
9300.0000000163,5.83580378062452,1.00000000547362,0.68406062584682
9400.00000001667,5.87824798014837,1.0000000047361,0.693999714318149
9500.00000001703,5.93202529249384,1.00000000504912,0.701032876563915
9600.00000001739,5.98019354000486,1.00000000582721,0.700756111256112
9700.00000001776,6.02481952955015,1.00000000568169,0.715031086416364
9800.00000001812,6.06685442180483,1.00000000524031,0.705209805736359
9900.00000001848,6.11676415681918,1.0000000054469,0.719730610825007
10000.0000000188,6.15661004464634,1.00000000533768,0.703748168496359
10100.0000000192,6.19920241809862,1.00000000556896,0.704612344481374
10200.0000000196,6.23784847152541,1.00000000505185,0.704415928830931
10300.0000000199,6.279186781189,1.00000000502764,0.69822556849173
10400.0000000203,6.325975132051,1.00000000539671,0.687064443859911
10500.0000000207,6.36951271862449,1.00000000587242,0.681438466662019
10600.000000021,6.42513038347317,1.00000000544001,0.694013718409412
10700.0000000214,6.49032518598218,1.00000000540445,0.706753111205465
10800.0000000218,6.55895133905018,1.00000000552877,0.692746752871402
10900.0000000221,6.63723857964023,1.00000000554128,0.691709073509824
11000.0000000225,6.70861798608896,1.00000000531394,0.699842883724049
11100.0000000229,6.78826185135761,1.00000000572054,0.677086077316259
11200.0000000232,6.86658472944601,1.00000000586176,0.68800196675018
11300.0000000236,6.95799565446472,1.00000000532227,0.701150015489804
11400.0000000239,7.05463960839488,1.00000000554872,0.716386709290425
11500.0000000243,7.13698668485998,1.00000000570155,0.712778495326549
11600.0000000247,7.22135667457989,1.00000000683222,0.721628949204321
11700.000000025,7.30022789449415,1.00000000560963,0.717368522670472
11800.0000000254,7.38330862500658,1.00000000603398,0.713882600546023
11900.0000000258,7.47629476407116,1.00000000610086,0.699341108733941
12000.0000000261,7.57341766547713,1.00000000673758,0.718658216315106
12100.0000000265,7.66102124205367,1.0000000059885,0.71813363592751
12200.0000000269,7.74429673215097,1.00000000593208,0.708560667296826
12300.0000000272,7.82928771843389,1.00000000593944,0.710596174552554
12400.0000000276,7.91956552181762,1.00000000594678,0.721474162741054
12500.0000000279,8.01476473344373,1.00000000611405,0.705759968749889
12600.0000000283,8.1124362847881,1.00000000560757,0.720086469550826
12700.0000000287,8.22395410763153,1.00000000583079,0.715850585754125
12800.000000029,8.32727758375603,1.00000000637381,0.72454214459677
12900.0000000294,8.42143327512014,1.0000000067144,0.710836087633712
13000.0000000298,8.51221486178324,1.00000000588139,0.710194125906137
13100.0000000301,8.60812784307688,1.00000000612988,0.709676824506711
13200.0000000305,8.69946328480967,1.0000000065858,0.727357943861387
13300.0000000309,8.78731870623429,1.00000000614132,0.728922540393223
13400.0000000312,8.8688620644645,1.00000000605849,0.724948060269917
13500.0000000316,8.95897033635437,1.00000000709179,0.707682834530509
13600.0000000319,9.05952102745036,1.00000000635229,0.72155423099988
13700.0000000323,9.14832557206393,1.00000000717582,0.720967471504241
13800.0000000327,9.22928250312848,1.0000000061805,0.72231751347252
13900.000000033,9.30834319944793,1.00000000658891,0.73350147326966
14000.0000000334,9.38722650495506,1.00000000638669,0.725277202755786
14100.0000000338,9.45930921469509,1.00000000631163,0.715653030735332
14200.0000000341,9.52438994012264,1.00000000636989,0.711268440458461
14300.0000000345,9.58560154684683,1.00000000649346,0.737419079554037
14400.0000000349,9.64341272054189,1.00000000667115,0.730530924688156
14500.0000000352,9.69997198624909,1.00000000640936,0.722739083956843
14600.0000000356,9.75375838243091,1.00000000667611,0.717609789303815
14700.0000000359,9.80314688922048,1.00000000691613,0.71319092261603
14800.0000000363,9.846045444025,1.00000000705007,0.71934762930104
14900.0000000367,9.86994839315022,1.00000000697863,0.719259285573882
15000.000000037,9.89250354754935,1.00000000718812,0.711059480832653
15100.0000000374,9.9166042307886,1.00000000660213,0.731300453126634
15200.0000000378,9.9485137426565,1.00000000747317,0.735228263781555
15300.0000000381,9.9830019627767,1.00000000675215,0.725813554656057
15400.0000000385,10.0225454217066,1.0000000075823,0.741046661618453
15500.0000000389,10.0695124916577,1.0000000071348,0.728787608077038
15600.0000000392,10.1202829083058,1.00000000723149,0.724896918277384
15700.0000000396,10.1921712500051,1.00000000748561,0.71194657688694
15800.0000000399,10.2676643748474,1.00000000673974,0.692912991604676
15900.0000000403,10.3761586747013,1.00000000673958,0.671007633353959
16000.0000000407,10.511887027842,1.00000000633841,0.667944097227796
16100.000000041,10.6980631357733,1.00000000658391,0.657781035551283
16200.0000000414,10.9429202093544,1.00000000648099,0.653445716268829
16300.0000000418,11.2612170232808,1.00000000654118,0.662183378145259
16400.0000000418,11.6241043468971,1.00000000632272,0.666206434974364
16500.0000000404,12.0422196087004,1.00000000655549,0.671991655374601
16600.0000000389,12.4565501350003,1.00000000756352,0.673138062719372
16700.0000000375,12.8960532994766,1.00000000692543,0.678710322981448
16800.000000036,13.3114000997045,1.0000000067304,0.676721649757301
16900.0000000346,13.7462688550814,1.00000000794082,0.668267979191389
17000.0000000331,14.1784226169547,1.00000000699258,0.677018513653054
17100.0000000317,14.6200084040057,1.00000000740266,0.679621533177547
17200.0000000302,15.0757225762698,1.00000000705258,0.680171899213768
17300.0000000287,15.5147770861831,1.00000000686902,0.682446525234926
17400.0000000273,15.9752401965096,1.00000000759601,0.690849251679451
17500.0000000258,16.437307027634,1.0000000070002,0.697358915173103
17600.0000000244,16.9205623139555,1.00000000716319,0.701813408692666
17700.0000000229,17.3953530841664,1.00000000789996,0.713497781640129
17800.0000000215,17.8662764943982,1.00000000806388,0.726859086439155
17900.00000002,18.3464665860099,1.00000000772207,0.727616956068721
18000.0000000186,18.7990274690167,1.0000000071628,0.728104638305156
18100.0000000171,19.2450473861713,1.00000000750627,0.743510007339433
18200.0000000156,19.6759006733408,1.00000000791479,0.743758986504631
18300.0000000142,20.1079526840488,1.00000000796422,0.739538457492183
18400.0000000127,20.5326510392135,1.00000000712556,0.745413210361284
18500.0000000113,20.9616436438908,1.00000000723929,0.740759760294091
18600.0000000098,21.3824512202583,1.0000000087744,0.74839021145244
18700.0000000084,21.7907113841507,1.00000000796489,0.739295496985325
18800.0000000069,22.1914042620324,1.00000000930605,0.736477898428893
18900.0000000055,22.5641937999074,1.00000000775494,0.72768496733109
19000.000000004,22.9512276643843,1.0000000077583,0.735725964554261
19100.0000000026,23.3392464579752,1.00000000816162,0.74221850208376
19200.0000000011,23.7417785131864,1.0000000079283,0.743820071393407
19299.9999999996,24.1511008028742,1.00000000813271,0.750461499177546
19399.9999999982,24.5656592558559,1.00000000810027,0.739600671963285
19499.9999999967,24.9889526643171,1.00000000853358,0.739541849998962
19599.9999999953,25.4217338032735,1.00000000832032,0.743078144205251
19699.9999999938,25.8802512538732,1.00000000764228,0.750786811001976
19799.9999999924,26.3480305526832,1.00000000789184,0.757216245794908
19899.9999999909,26.8000359745337,1.00000000816123,0.762594951899946
19999.9999999895,27.2404838910957,1.00000000804472,0.747810058852185
20099.999999988,27.6863053398015,1.00000000829724,0.736793915154557
20199.9999999865,28.1388958471028,1.00000000762837,0.747228089657037
20299.9999999851,28.6045020482344,1.00000000797423,0.74209847850093
20399.9999999836,29.1004858874747,1.00000000701792,0.751922989628629
20499.9999999822,29.6048526595752,1.00000000877493,0.751285172011191
20599.9999999807,30.0989684375081,1.00000000884387,0.757369530654307
20699.9999999793,30.5805162611352,1.00000000926883,0.753952985593233
20799.9999999778,31.050025270588,1.00000000850159,0.739533508372203
20899.9999999764,31.5215944417637,1.00000000878624,0.73570116438899
20999.9999999749,32.0014625893183,1.00000000854766,0.744579477228743
21099.9999999734,32.4850133716994,1.00000000867959,0.758205308432219
21199.999999972,32.9747268986713,1.00000000838541,0.74891536529873
21299.9999999705,33.4621425416142,1.00000000826219,0.755156160954152
21399.9999999691,33.9544203802789,1.00000000838455,0.753652634809918
21499.9999999676,34.4527538285247,1.00000000899717,0.747978597439966
21599.9999999662,34.9535055582737,1.00000000818688,0.747454007410443
21699.9999999647,35.4522418587385,1.00000000893655,0.741961678811185
21799.9999999633,35.9596205485976,1.00000000919408,0.743485567596216
21899.9999999618,36.486799440216,1.00000000837678,0.756793060719103
21999.9999999603,37.0176443947164,1.00000000940696,0.75201566093326
22099.9999999589,37.5525194168669,1.00000000939898,0.74567814594512
22199.9999999574,38.0946742250832,1.0000000086622,0.755231905255196
22299.999999956,38.6566832526103,1.00000000866578,0.749164848808831
22399.9999999545,39.2295370912648,1.00000000893135,0.754368731232129
22499.9999999531,39.7923847298165,1.00000000926724,0.758880571767015
22599.9999999516,40.366067800738,1.00000000819694,0.748280785352284
22699.9999999502,40.9533142568698,1.00000000889295,0.756418602680013
22799.9999999487,41.5388648118915,1.00000001002182,0.750499506197622
22899.9999999473,42.131002881229,1.00000000908882,0.757002881305316
22999.9999999458,42.7306754562449,1.00000000968065,0.764216781697999
23099.9999999443,43.332034625116,1.00000000863322,0.76096958562122
23199.9999999429,43.9217147799876,1.00000000943476,0.759541369301117
23299.9999999414,44.5171807998563,1.00000000960555,0.749533687749197
23399.99999994,45.12906269683,1.00000000801416,0.750795078993916
23499.9999999385,45.7660081717741,1.0000000097181,0.761506411632908
23599.9999999371,46.409071455932,1.00000000895939,0.759138501342338
23699.9999999356,47.0654483574016,1.00000000867387,0.756929020610885
23799.9999999342,47.7326656474073,1.00000000886474,0.756616748719312
23899.9999999327,48.4116521087839,1.00000000944228,0.75176788940503
23999.9999999312,49.0974286366989,1.00000000988553,0.745533649889257
24099.9999999298,49.7930381707808,1.00000000869436,0.750207443795556
24199.9999999283,50.4743848022815,1.00000000861785,0.754648390249296
24299.9999999269,51.1437635328646,1.0000000098446,0.754978151955028
24399.9999999254,51.8019264166766,1.0000000091683,0.747989011692912
24499.999999924,52.4611017755895,1.00000000973939,0.74742288567731
24599.9999999225,53.1246139480263,1.00000000868732,0.759293256461674
24699.9999999211,53.79248281626,1.00000000957683,0.752436773212929
24799.9999999196,54.4778529910148,1.0000000093498,0.751377971578896
24899.9999999181,55.1685454436307,1.00000000810808,0.7553440809341
24999.9999999167,55.8632555553684,1.00000000971147,0.73953026537576
25099.9999999152,56.5826231775925,1.00000000908884,0.751335832306348
25199.9999999138,57.3041721989577,1.00000000972343,0.752078899812785
25299.9999999123,58.0392735698947,1.00000001060167,0.750381506583034
25399.9999999109,58.7890274223953,1.00000000911699,0.753943351988286
25499.9999999094,59.5585815265378,1.00000000944665,0.755059446243416
25599.999999908,60.3368414594551,1.00000000986811,0.759655218188501
25699.9999999065,61.112822140771,1.00000000961516,0.754456685255697
25799.9999999051,61.8956130921595,1.00000000954671,0.746332924526362
25899.9999999036,62.686336944763,1.00000000916718,0.751884875462631
25999.9999999021,63.4704490717604,1.00000000993726,0.761143049809548
26099.9999999007,64.2503470743545,1.00000000937654,0.756467693496363
26199.9999998992,65.0281929581068,1.00000000982681,0.766057381962299
26299.9999998978,65.8048621268282,1.00000001011512,0.754950346512037
26399.9999998963,66.5860429125491,1.00000000994608,0.756289931618926
26499.9999998949,67.3651102904403,1.00000001033343,0.763416054137189
26599.9999998934,68.1497020608101,1.00000001006703,0.761487306696697
26699.999999892,68.9474675625578,1.00000000962114,0.758818070869563
26799.9999998905,69.7488855009423,1.00000001040148,0.763076525397675
26899.999999889,70.5436216889455,1.00000001055111,0.764207605703344
26999.9999998876,71.3406922720141,1.00000001001719,0.757933847442191
27099.9999998861,72.1504029317537,1.00000000978884,0.750861477296509
27199.9999998847,72.9787975629173,1.00000000969854,0.75485329486985
27299.9999998832,73.8181207377503,1.00000001018903,0.761935399100772
27399.9999998818,74.653394840296,1.00000000975267,0.771398592356459
27499.9999998803,75.4865921570651,1.00000001004428,0.759503632079081
27599.9999998789,76.3121140633472,1.00000001029823,0.763375900268419
27699.9999998774,77.1309891275456,1.00000001028371,0.766523235336259
27799.9999998759,77.9472476286455,1.00000001024473,0.76147853526032
27899.9999998745,78.7841516879903,1.00000001012237,0.751935460223185
27999.999999873,79.6295237448222,1.00000000987492,0.760513658198544
28099.9999998716,80.4800879383724,1.00000001029153,0.762754296330865
28199.9999998701,81.3395330048693,1.00000000974321,0.758846281167377
28299.9999998687,82.2167009463936,1.00000001005576,0.754746071623344
28399.9999998672,83.0991694650581,1.0000000104555,0.764503859906508
28499.9999998658,83.9740118226804,1.00000000974155,0.764825342698888
28599.9999998643,84.8411190673595,1.00000001047387,0.766993872134732
28699.9999998629,85.710486747223,1.00000001048362,0.766796895866271
28799.9999998614,86.5795129155151,1.00000001006654,0.761529363229578
28899.9999998599,87.456553687005,1.00000001016932,0.765303550748524
28999.9999998585,88.3304375662731,1.00000001037429,0.765176223845443
29099.999999857,89.2020963087163,1.00000001089022,0.764744199125337
