Time,AGPnorm,Energy,Entropy
0,0,1,-7.26720184008308e-17
99.9999999999986,0.0010876819855138,1.00000000000066,0.00353872446393884
199.999999999993,0.00727641412761185,1.00000000000436,0.0106782410655447
300,0.0149150554588266,1.00000000000503,0.0201113335440823
400.000000000022,0.0227926441981122,1.00000000000154,0.0317466358649689
500.000000000045,0.033061892015249,0.999999999999616,0.0455163753981612
600.000000000068,0.045425920949414,1.00000000000243,0.0615572219065676
700.000000000091,0.0578307999391249,1.0000000000054,0.0798900667810541
800.000000000113,0.0709273920204274,1.00000000000352,0.100550560702741
900.000000000136,0.0850594341383751,1.00000000000026,0.123836529442214
1000.00000000016,0.100248945808303,1.00000000000188,0.151196950518163
1100.0000000001,0.114124896819091,1.00000000001174,0.184339104490501
1200,0.130373513260332,1.00000000004884,0.225066308359573
1299.99999999991,0.147761370208414,1.00000000014566,0.271217370102998
1399.99999999982,0.172273331170098,1.00000000032205,0.318006260664226
1499.99999999973,0.23793533505544,1.00000000052696,0.361626133386874
1599.99999999964,0.41659833930231,1.00000000080112,0.400267216912344
1699.99999999955,0.774489175316678,1.00000000097564,0.433963671972935
1799.99999999946,1.38675888929668,1.00000000119621,0.461976132429487
1899.99999999937,2.32517271407682,1.00000000128153,0.485965992373998
1999.99999999928,3.64781742548806,1.00000000139769,0.506413661102495
2099.99999999919,5.4076826022757,1.00000000150567,0.523792148779159
2199.99999999909,7.63005038520235,1.00000000154348,0.537246550494931
2299.999999999,10.2745260434478,1.00000000156921,0.548148029447015
2399.99999999891,13.2707700206159,1.00000000160519,0.557042843626148
2499.99999999882,16.5801048985222,1.00000000162231,0.564845806411251
2599.99999999873,20.1927470906963,1.00000000164888,0.569455355602664
2699.99999999864,24.0263039950318,1.00000000159297,0.573085394876616
2799.99999999855,27.9637344590781,1.00000000153841,0.575592610219181
2899.99999999846,31.9271860880071,1.00000000161673,0.578014313930561
2999.99999999837,35.8969362908578,1.00000000148489,0.578530115870235
3099.99999999828,39.8354627024248,1.00000000140368,0.577823025140376
3199.99999999819,43.6553245100079,1.00000000136881,0.576679659597781
3299.99999999809,47.2870099377354,1.00000000141785,0.575788881053387
3399.999999998,50.7114831111327,1.00000000130809,0.574809398233707
3499.99999999791,53.9328167176449,1.00000000127468,0.572737143343237
3599.99999999782,56.918925669572,1.00000000121326,0.571915879312476
3699.99999999773,59.6269296473173,1.00000000118399,0.568774692466199
3799.99999999764,62.0494498016071,1.00000000111544,0.566868792270379
3899.99999999755,64.1908262481885,1.00000000114152,0.566350581125686
3999.99999999746,66.0649903997636,1.00000000103638,0.563484689825024
4099.99999999738,67.6697299021414,1.00000000102439,0.560115825887212
4199.99999999775,68.9910020877246,1.00000000100532,0.561044653432706
4299.99999999811,70.0499448540447,1.00000000099636,0.560283647243395
4399.99999999848,70.8613155403022,1.00000000088765,0.552333750160826
4499.99999999884,71.4513682981004,1.00000000096805,0.564477592862859
4599.9999999992,71.8365489832264,1.00000000086804,0.547569910882662
4699.99999999957,71.9986282121863,1.00000000088237,0.553923713402412
4799.99999999993,72.0102895453977,1.00000000101864,0.567765120481591
4900.00000000029,71.8695932105489,1.00000000079313,0.533143934092039
5000.00000000066,71.565505273945,1.00000000090572,0.556825904914579
5100.00000000102,71.1974709223289,1.0000000010386,0.568428955223035
5200.00000000139,70.7218508892806,1.00000000068315,0.515451746943414
5300.00000000175,70.1117496713429,1.00000000084925,0.543709243715614
5400.00000000211,69.4907262393203,1.00000000114817,0.577360592920735
5500.00000000248,68.8421868392885,1.00000000074847,0.515213714547624
5600.00000000284,68.0851295643417,1.0000000006269,0.496188113923091
5700.00000000321,67.2941241440548,1.00000000114666,0.574177064062188
5800.00000000357,66.5424470694813,1.00000000114341,0.559478266946938
5900.00000000393,65.7625196335004,1.00000000058654,0.477590818405683
6000.0000000043,64.9116116240828,1.00000000068113,0.485693489231374
6100.00000000466,64.0612926764718,1.00000000122803,0.569274339273139
6200.00000000502,63.2620981356517,1.00000000109319,0.557313162809213
6300.00000000539,62.4655814393904,1.00000000071782,0.474238822549879
6400.00000000575,61.6277036864361,1.00000000059781,0.448761966659155
6500.00000000612,60.7763839642552,1.0000000010033,0.521190167765857
6600.00000000648,59.9608436100752,1.00000000130724,0.5657663165655
6700.00000000684,59.1846584499905,1.00000000111532,0.52902537473698
6800.00000000721,58.4114448513115,1.00000000067377,0.456518129735793
6900.00000000757,57.6237209585561,1.00000000066869,0.448370654308053
7000.00000000793,56.8358775868011,1.00000000096862,0.497155453401232
7100.0000000083,56.0700031329287,1.00000000115562,0.545817759244656
7200.00000000866,55.3358785712362,1.00000000116663,0.542765834988028
7300.00000000903,54.6217398157035,1.00000000088745,0.490385482123114
7400.00000000939,53.9140430257876,1.00000000068756,0.4569389663977
7500.00000000975,53.2143761758911,1.00000000075219,0.46745457293673
7600.00000001012,52.525515691334,1.00000000084857,0.492252159116544
7700.00000001048,51.8522206127413,1.00000000105894,0.520760171709175
7800.00000001084,51.1975289069408,1.00000000114163,0.535229008581763
7900.00000001121,50.560259955025,1.00000000104817,0.523125001475707
8000.00000001157,49.9389888889687,1.00000000074659,0.477575605781301
8100.00000001194,49.3356806769497,1.00000000072325,0.466926260678556
8200.0000000123,48.7504796757484,1.00000000084583,0.482736804671659
8300.00000001266,48.1802714507065,1.00000000088868,0.502714479851985
8400.00000001303,47.6264001569642,1.0000000008563,0.496057376688182
8500.00000001339,47.0868489211723,1.00000000098955,0.514802034734103
8600.00000001376,46.5562367669246,1.0000000011664,0.53506273993045
8700.00000001412,46.0344466124772,1.00000000102191,0.521884583506109
8800.00000001448,45.5307853201121,1.00000000075661,0.483428633060055
8900.00000001485,45.0522439879312,1.00000000072126,0.466612537889019
9000.00000001521,44.594080488783,1.00000000091057,0.487440903564457
9100.00000001557,44.1461829515187,1.00000000102716,0.504282520720066
9200.00000001594,43.7086699485444,1.00000000092056,0.507014381793906
9300.0000000163,43.2898858440812,1.00000000076195,0.484854666202424
9400.00000001667,42.8863949501638,1.00000000089064,0.504796597094581
9500.00000001703,42.4866649056915,1.00000000108583,0.530858082096541
9600.00000001739,42.085378424781,1.00000000118036,0.535075892217963
9700.00000001776,41.6904191904731,1.0000000009495,0.511962204564574
9800.00000001812,41.3162064881812,1.00000000075187,0.48416877700305
9900.00000001848,40.9685169848658,1.00000000074304,0.476309225127633
10000.0000000188,40.6404375968894,1.00000000086126,0.489111191535054
10100.0000000192,40.31952387657,1.00000000103644,0.502129337001629
10200.0000000196,40.0002004500191,1.00000000101711,0.507083012488873
10300.0000000199,39.6887312518219,1.00000000082817,0.512257835573346
10400.0000000203,39.3930541873968,1.00000000074631,0.501928537764307
10500.0000000207,39.1097561397798,1.00000000092163,0.50860447225383
10600.000000021,38.8301244736434,1.0000000009679,0.52499045648328
10700.0000000214,38.5495616971768,1.00000000108378,0.535457070559217
10800.0000000218,38.2667307967716,1.00000000109507,0.537833262997762
10900.0000000221,37.987601871845,1.00000000088974,0.523334637887117
11000.0000000225,37.7258903609068,1.00000000075132,0.501022508245813
11100.0000000229,37.48778632801,1.00000000079879,0.489301051626944
11200.0000000232,37.2676026818852,1.00000000089068,0.500995204673653
11300.0000000236,37.0591208704768,1.00000000089138,0.503347870772208
11400.0000000239,36.8594344659935,1.00000000089779,0.510085284721495
11500.0000000243,36.6660803504984,1.0000000009032,0.506205639630829
11600.0000000247,36.4780614744921,1.00000000093768,0.511032528366107
11700.000000025,36.2892636150491,1.00000000103217,0.534487649723047
11800.0000000254,36.0998442019055,1.00000000098116,0.543541610828871
11900.0000000258,35.911965712682,1.00000000091631,0.539261219420129
12000.0000000261,35.7284590186864,1.00000000084681,0.53436574749162
12100.0000000265,35.5513744316571,1.00000000086948,0.526410687990503
12200.0000000269,35.3770138630637,1.00000000101108,0.531407781390171
12300.0000000272,35.2004184323119,1.00000000112578,0.540036932438328
12400.0000000276,35.0203859407616,1.00000000101514,0.539336135534446
12500.0000000279,34.8465284572833,1.00000000090163,0.528341525608146
12600.0000000283,34.6923804937396,1.0000000007751,0.513676026439187
12700.0000000287,34.5597568615512,1.00000000075216,0.500122949435479
12800.000000029,34.4426488211991,1.0000000009353,0.506739710507618
12900.0000000294,34.3266901802376,1.00000000099543,0.519877703712464
13000.0000000298,34.211330526801,1.00000000094132,0.518290281772902
13100.0000000301,34.1037549003113,1.00000000082188,0.506175186777716
13200.0000000305,34.007892335898,1.00000000084103,0.517175115352882
13300.0000000309,33.9209205915766,1.00000000093228,0.527806326288015
13400.0000000312,33.8365328013992,1.00000000098549,0.53136901704998
13500.0000000316,33.7461301729724,1.0000000010405,0.538815470453528
13600.0000000319,33.6443098050382,1.00000000104362,0.549400708354557
13700.0000000323,33.5319594279344,1.00000000100765,0.555929626692891
13800.0000000327,33.4151359471484,1.00000000093054,0.560715623134794
13900.000000033,33.2972057809976,1.00000000089799,0.558834918241063
14000.0000000334,33.1821198008637,1.00000000089858,0.554040053303939
14100.0000000338,33.0715331440095,1.00000000089957,0.54597248036208
14200.0000000341,32.9641040803722,1.00000000099467,0.538817637368324
14300.0000000345,32.8580451890364,1.00000000102199,0.538500190731372
14400.0000000349,32.7518387736272,1.00000000102012,0.54484867976733
14500.0000000352,32.645012162137,1.00000000095084,0.545676510374026
14600.0000000356,32.5465736607866,1.00000000089356,0.540927771261319
14700.0000000359,32.4652150898946,1.00000000079918,0.533793854402088
14800.0000000363,32.4015670662754,1.00000000085169,0.524014470396833
14900.0000000367,32.3486991351171,1.00000000090693,0.524581031686804
15000.000000037,32.3026666792203,1.00000000093798,0.525976327784856
15100.0000000374,32.2613018752529,1.00000000095135,0.521721026965242
15200.0000000378,32.2210536860888,1.00000000095256,0.519719273323295
15300.0000000381,32.1862469603496,1.00000000086447,0.51818454889497
15400.0000000385,32.1585948788329,1.0000000008826,0.526898117488913
15500.0000000389,32.1337129130304,1.00000000092939,0.539821596498926
15600.0000000392,32.1062183763273,1.00000000100235,0.553337656114359
15700.0000000396,32.07528634287,1.00000000094513,0.559452007017212
15800.0000000399,32.0424817102195,1.00000000095968,0.560141667217681
15900.0000000403,32.0112895224663,1.00000000089919,0.561053124982717
16000.0000000407,31.9824816925131,1.00000000088561,0.557037791774806
16100.000000041,31.9514067548346,1.00000000095135,0.561254425835211
16200.0000000414,31.9116402565985,1.00000000099939,0.568834013361946
16300.0000000418,31.8604234174128,1.00000000103989,0.562107392047799
16400.0000000418,31.7955986984364,1.00000000105586,0.565280398478786
16500.0000000404,31.7190233831869,1.0000000009991,0.574284680704707
16600.0000000389,31.6354422137944,1.00000000093313,0.58062915278353
16700.0000000375,31.5517996464821,1.00000000086289,0.574160789177594
16800.000000036,31.4733476550531,1.00000000083157,0.564567944518081
16900.0000000346,31.4010337090527,1.00000000087963,0.557253251146321
17000.0000000331,31.334007916184,1.00000000095258,0.556379219532022
17100.0000000317,31.2695193610126,1.00000000100821,0.552274854278065
17200.0000000302,31.2065453967597,1.00000000103779,0.555406630197199
17300.0000000287,31.1437426953722,1.0000000010136,0.558557448080664
17400.0000000273,31.0811953587202,1.00000000099493,0.559759116644839
17500.0000000258,31.0250460399027,1.00000000086657,0.558732249023761
17600.0000000244,30.9821411690529,1.00000000083191,0.554443056848558
17700.0000000229,30.9538185565574,1.00000000087154,0.549267201201046
17800.0000000215,30.9368741063172,1.00000000090003,0.544004100526062
17900.00000002,30.9290538307142,1.00000000089304,0.539159242863777
18000.0000000186,30.9259629325784,1.00000000100295,0.537117919610873
18100.0000000171,30.9232915195202,1.00000000099555,0.537223758045343
18200.0000000156,30.924347886433,1.00000000087721,0.536390284425593
18300.0000000142,30.9328336721069,1.00000000085545,0.536517894887007
18400.0000000127,30.9464718401674,1.00000000092701,0.53905766567283
18500.0000000113,30.9600751465331,1.00000000097713,0.544733066516898
18600.0000000098,30.9726808017573,1.00000000099162,0.545401262898309
18700.0000000084,30.9848224449814,1.00000000095917,0.541944644503064
18800.0000000069,30.9942164723413,1.00000000097767,0.547736529924875
18900.0000000055,31.0005207557868,1.00000000097343,0.562005258220332
19000.000000004,31.0038443622249,1.00000000092838,0.56921232817646
19100.0000000026,31.0057400352797,1.00000000096859,0.571039658860027
19200.0000000011,31.0084318945111,1.00000000093179,0.577714739155303
19299.9999999996,31.0122866955275,1.00000000091536,0.583317344483723
19399.9999999982,31.0133534918571,1.00000000103238,0.588577939719492
19499.9999999967,31.0071708528207,1.00000000102295,0.595446370003567
19599.9999999953,30.9953213185994,1.00000000095251,0.600609029093165
19699.9999999938,30.9797878491253,1.00000000094721,0.605061310894926
19799.9999999924,30.9611009163672,1.00000000096854,0.606058851559688
19899.9999999909,30.9367975403389,1.00000000096051,0.607757446349974
19999.9999999895,30.9083116496354,1.00000000093083,0.602797799861776
20099.999999988,30.8759144269084,1.00000000096998,0.59753218212612
20199.9999999865,30.8371886406571,1.00000000101119,0.590367643106559
20299.9999999851,30.7921153073845,1.00000000101953,0.588367619485333
20399.9999999836,30.7405267357561,1.00000000103862,0.592806798187169
20499.9999999822,30.6811815902958,1.00000000105259,0.602965807809335
20599.9999999807,30.6144001409403,1.00000000107499,0.60402609478081
20699.9999999793,30.5426928193434,1.00000000102429,0.60378919336233
20799.9999999778,30.4713963587621,1.00000000091892,0.604542899441186
20899.9999999764,30.4028526025642,1.00000000090142,0.603642949615319
20999.9999999749,30.3385591720905,1.00000000089811,0.604348290177874
21099.9999999734,30.2785951399034,1.00000000089602,0.605206510997516
21199.999999972,30.2216635918099,1.00000000095009,0.599065506531872
21299.9999999705,30.1686938808498,1.00000000097074,0.594720067866764
21399.9999999691,30.1180518115428,1.00000000102709,0.595603840146074
21499.9999999676,30.0702136868579,1.00000000104846,0.592672525092564
21599.9999999662,30.0242005638819,1.00000000103501,0.582346533545002
21699.9999999647,29.9797356766294,1.00000000097004,0.570144371326624
21799.9999999633,29.9386132656896,1.00000000095195,0.57198966607064
21899.9999999618,29.9046970243141,1.00000000091094,0.569896515099463
21999.9999999603,29.8812574434636,1.00000000092891,0.569382512764032
22099.9999999589,29.8690893808545,1.00000000088174,0.573181554456317
22199.9999999574,29.8680034590358,1.00000000090579,0.569069776379503
22299.999999956,29.8755375368611,1.00000000094251,0.564632929025536
22399.9999999545,29.8883673017181,1.00000000095512,0.565826943526069
22499.9999999531,29.9040564397004,1.00000000095804,0.559777068358978
22599.9999999516,29.9219502162488,1.00000000101538,0.557514450681305
22699.9999999502,29.944612696291,1.00000000091724,0.551420016688034
22799.9999999487,29.9718391511364,1.0000000008911,0.551240805682722
22899.9999999473,30.0028656269701,1.00000000096901,0.557874863715462
22999.9999999458,30.0352622291452,1.00000000100331,0.558638255862714
23099.9999999443,30.0684289401416,1.00000000095046,0.557122212421691
23199.9999999429,30.103371811902,1.0000000009458,0.560388426410623
23299.9999999414,30.1386167159032,1.00000000099396,0.562991358562999
23399.99999994,30.1710014733597,1.00000000106429,0.564894380856738
23499.9999999385,30.1983624887036,1.00000000103675,0.56935247147388
23599.9999999371,30.2209290496889,1.00000000101812,0.576763213915219
23699.9999999356,30.2409516034482,1.00000000097511,0.580918006159724
23799.9999999342,30.2599639730793,1.00000000098972,0.591649096964243
23899.9999999327,30.2781416831015,1.0000000009882,0.598514429336677
23999.9999999312,30.2942985775852,1.00000000098802,0.60578217869218
24099.9999999298,30.3082136863552,1.00000000100343,0.606946008725321
24199.9999999283,30.3192726178891,1.00000000103377,0.605752666489195
24299.9999999269,30.3278904419697,1.00000000103098,0.60992485036352
24399.9999999254,30.3350709557536,1.00000000104117,0.61298820798127
24499.999999924,30.3408045646314,1.00000000101075,0.610751859001242
24599.9999999225,30.3452296034719,1.00000000096584,0.605708597595966
24699.9999999211,30.3489698587869,1.00000000102524,0.60464394384711
24799.9999999196,30.349580609759,1.00000000109587,0.599973464439037
24899.9999999181,30.345996441574,1.00000000101573,0.609528462623995
24999.9999999167,30.3397233728534,1.00000000105148,0.617537788997825
25099.9999999152,30.3305392468232,1.00000000100716,0.614351448171289
25199.9999999138,30.3204255163203,1.00000000101719,0.614055569364442
25299.9999999123,30.3080777020996,1.00000000100697,0.618436678347059
25399.9999999109,30.2929429680307,1.00000000101738,0.621675733930417
25499.9999999094,30.2768229587271,1.00000000094742,0.61242054089051
25599.999999908,30.2610868423307,1.00000000098728,0.605955384287636
25699.9999999065,30.2444121167049,1.00000000100398,0.604339064824551
25799.9999999051,30.2249800172024,1.00000000103489,0.60482424488595
25899.9999999036,30.2011141065226,1.00000000106164,0.612258269579881
25999.9999999021,30.1722592830104,1.00000000105291,0.610470205518099
26099.9999999007,30.14066264721,1.00000000103477,0.612993254978101
26199.9999998992,30.1084345770739,1.00000000103185,0.617809658658198
26299.9999998978,30.0744442621681,1.00000000100969,0.617757574513514
26399.9999998963,30.0401533491038,1.00000000101199,0.615270994170032
26499.9999998949,30.0055024918857,1.00000000099397,0.622439219602542
26599.9999998934,29.9685949732402,1.00000000097445,0.619337319533673
26699.999999892,29.9300293706793,1.0000000010195,0.608309215443837
26799.9999998905,29.8902793657124,1.00000000097731,0.607864143276771
26899.999999889,29.8479877616013,1.00000000103836,0.611139666200077
26999.9999998876,29.8018628494445,1.00000000106605,0.616099082461707
27099.9999998861,29.7515644442567,1.00000000110281,0.617878953926414
27199.9999998847,29.698315561989,1.0000000010898,0.617918300447872
27299.9999998832,29.6418494342439,1.0000000011103,0.616882395247472
27399.9999998818,29.5820348792332,1.00000000106556,0.619703866305006
27499.9999998803,29.5195014853141,1.00000000109685,0.624996560991313
27599.9999998789,29.4551221581739,1.00000000101312,0.626621776698745
27699.9999998774,29.3896888701924,1.00000000097311,0.625956036990509
27799.9999998759,29.3241222189707,1.00000000100026,0.621566540664839
27899.9999998745,29.2598322361249,1.00000000094513,0.616763413844259
27999.999999873,29.1975828907842,1.0000000009681,0.607773947065115
28099.9999998716,29.1381193501251,1.00000000098292,0.600794332631759
28199.9999998701,29.0823506783995,1.00000000099351,0.601133774259563
28299.9999998687,29.0297826436953,1.00000000095087,0.603569383349314
28399.9999998672,28.9806057237553,1.00000000100071,0.60696642721705
28499.9999998658,28.9345437654173,1.00000000107155,0.608144960908334
28599.9999998643,28.8901198057206,1.0000000010548,0.604713895761609
28699.9999998629,28.8483244550462,1.00000000106097,0.602310756919646
28799.9999998614,28.8089299542729,1.00000000107489,0.598942634482168
28899.9999998599,28.771539497021,1.0000000010344,0.58788165389072
28999.9999998585,28.7371981416339,1.00000000100647,0.582380761054216
