Time,AGPnorm,Energy,Entropy
0,0,1,6.35346256589958e-18
99.9999999999986,0.0149666347620899,0.999999999998044,0.0371972656162144
199.999999999993,0.0380068300600835,1.00000000000168,0.1122877294265
300,0.0688021365867673,1.00000000014663,0.244272547896061
400.000000000022,0.145968115702998,1.00000000225942,0.427895653650408
500.000000000045,0.671360951312745,1.00000000470018,0.539442645407339
600.000000000068,1.93883435486604,1.00000000495589,0.591262434864809
700.000000000091,3.85963438517287,1.00000000537266,0.603582179260321
800.000000000113,5.84022875265463,1.00000000474164,0.606141359080325
900.000000000136,7.6239645999035,1.00000000448477,0.592719306657534
1000.00000000016,8.90769174603494,1.00000000419905,0.586531318079459
1100.0000000001,9.69732815923883,1.00000000365562,0.57857250448821
1200,10.0243126530934,1.00000000363266,0.57863896673019
1299.99999999991,10.0010060811398,1.00000000345507,0.578557583683898
1399.99999999982,9.75773490396895,1.00000000363737,0.56835120736708
1499.99999999973,9.41070387164445,1.000000002667,0.491828951119786
1599.99999999964,9.04197745080277,1.00000000343569,0.518003072000249
1699.99999999955,8.62543305989571,1.00000000467521,0.558176636586589
1799.99999999946,8.2404979088267,1.0000000025281,0.465975900819902
1899.99999999937,7.84653983553204,1.00000000410262,0.539681769685424
1999.99999999928,7.49004905837658,1.00000000258766,0.474342504872313
2099.99999999919,7.15696959701808,1.00000000316699,0.519595738265474
2199.99999999909,6.83996610593313,1.00000000405268,0.556325204872541
2299.999999999,6.56437593946366,1.00000000239422,0.470750516595786
2399.99999999891,6.32208307565511,1.00000000352432,0.525446466206565
2499.99999999882,6.0942729597918,1.00000000341045,0.529903936784713
2599.99999999873,5.87137365767054,1.00000000429229,0.542203953779241
2699.99999999864,5.70151299803124,1.00000000266477,0.474074607264825
2799.99999999855,5.56411180811412,1.00000000381496,0.527075661617753
2899.99999999846,5.42434366041298,1.00000000343054,0.546303537870517
2999.99999999837,5.28624171521133,1.00000000375173,0.580722152786932
3099.99999999828,5.14749993182285,1.00000000419726,0.560955919681888
3199.99999999819,5.03521471904654,1.00000000303045,0.512786427962692
3299.99999999809,4.99286357807526,1.0000000035901,0.522758671086613
3399.999999998,4.94222125934516,1.00000000373719,0.556184471616228
3499.99999999791,4.88910179355821,1.00000000378254,0.57786451064615
3599.99999999782,4.8385675278797,1.0000000036264,0.576433000447797
3699.99999999773,4.76654854221392,1.0000000036425,0.604841205271009
3799.99999999764,4.68915858395657,1.0000000041362,0.602670004332211
3899.99999999755,4.61254641846671,1.00000000405986,0.571015900361934
3999.99999999746,4.56258112732572,1.00000000302712,0.525741680367558
4099.99999999738,4.58807669643132,1.00000000316344,0.526931188325385
4199.99999999775,4.6176622895013,1.00000000384508,0.570595124150187
4299.99999999811,4.63582823335214,1.00000000410006,0.575556444076313
4399.99999999848,4.65186556540856,1.00000000375622,0.601670611728941
4499.99999999884,4.65097792872347,1.00000000402876,0.617863736288586
4599.9999999992,4.65091596209066,1.00000000384985,0.620983904888391
4699.99999999957,4.63964227394294,1.00000000407455,0.641900913479253
4799.99999999993,4.61938058562537,1.00000000449283,0.632439582471695
4900.00000000029,4.58282520539346,1.00000000420994,0.644803891216096
5000.00000000066,4.53763552671924,1.00000000386908,0.652021896103341
5100.00000000102,4.49004634031245,1.00000000443658,0.652731794682371
5200.00000000139,4.44362294008571,1.00000000412711,0.627101343906068
5300.00000000175,4.41231496025657,1.00000000393974,0.568417067536972
5400.00000000211,4.44238362004637,1.00000000312516,0.551906594982884
5500.00000000248,4.52423627520125,1.00000000383455,0.572035890893947
5600.00000000284,4.60276452145494,1.00000000423018,0.601206865246058
5700.00000000321,4.67434335617201,1.00000000401967,0.618644250676691
5800.00000000357,4.73753914240343,1.0000000041385,0.631001437638361
5900.00000000393,4.78765519841905,1.00000000425263,0.637593248772281
6000.0000000043,4.83107849594226,1.00000000416633,0.661787805979612
6100.00000000466,4.85111011499345,1.00000000447559,0.659544189892687
6200.00000000502,4.86589977498797,1.00000000413006,0.672755056370539
6300.00000000539,4.87402427291243,1.00000000425372,0.661768998458219
6400.00000000575,4.88405790721364,1.00000000375717,0.662407120798944
6500.00000000612,4.89841259846272,1.00000000445621,0.682454215293527
6600.00000000648,4.90154696492047,1.00000000453189,0.658305217851863
6700.00000000684,4.90229301267523,1.00000000398603,0.655628749116894
6800.00000000721,4.90693573499005,1.00000000446804,0.678806028040011
6900.00000000757,4.90772646316784,1.00000000460199,0.684021606898325
7000.00000000793,4.89189835765323,1.00000000390311,0.676678555618006
7100.0000000083,4.88042309055695,1.00000000432846,0.663372718108501
7200.00000000866,4.86318603916139,1.00000000438164,0.66789178058418
7300.00000000903,4.83872080209566,1.0000000042726,0.673583108920818
7400.00000000939,4.80667283398521,1.00000000500806,0.661648257211076
7500.00000000975,4.76769050761719,1.00000000427859,0.670093051255517
7600.00000001012,4.7271837156398,1.00000000437644,0.673686542999605
7700.00000001048,4.6886805445941,1.0000000050698,0.684126918136906
7800.00000001084,4.65415023312999,1.00000000462925,0.68497295853318
7900.00000001121,4.62568914461707,1.00000000453791,0.641472590425795
8000.00000001157,4.62177616243372,1.00000000352992,0.590807915694195
8100.00000001194,4.67332757535377,1.0000000038147,0.586103208233652
8200.0000000123,4.77994846224104,1.00000000425382,0.592122087091771
8300.00000001266,4.90566406475766,1.00000000443659,0.608850171034377
8400.00000001303,5.02737295891265,1.00000000461178,0.611023074195099
8500.00000001339,5.14392555148696,1.00000000481861,0.615079600037005
8600.00000001376,5.25646017502898,1.00000000499433,0.626389966666882
8700.00000001412,5.35788559185326,1.0000000042578,0.630953486511607
8800.00000001448,5.4543305121281,1.00000000512919,0.656186552231486
8900.00000001485,5.53679261307383,1.00000000493149,0.67354753491085
9000.00000001521,5.60921375707466,1.00000000502486,0.686231020139597
9100.00000001557,5.68337810044772,1.00000000474028,0.684750980418809
9200.00000001594,5.74694169721149,1.00000000498589,0.669267554788546
9300.0000000163,5.79376938750396,1.00000000514607,0.681001250131962
9400.00000001667,5.83927602707201,1.00000000487682,0.694797399643223
9500.00000001703,5.89568132468024,1.00000000501943,0.698727245727744
9600.00000001739,5.94578944819,1.00000000534065,0.701698302780328
9700.00000001776,5.99682557239235,1.00000000548918,0.716486170881334
9800.00000001812,6.04179116922639,1.00000000569562,0.713428864834335
9900.00000001848,6.09611286202487,1.0000000047911,0.722117354525766
10000.0000000188,6.14090970055522,1.00000000587953,0.70909011171624
10100.0000000192,6.18990759387786,1.00000000519539,0.695896908285581
10200.0000000196,6.23069768743592,1.00000000535009,0.712327285815039
10300.0000000199,6.27503493866856,1.00000000500134,0.705706250380227
10400.0000000203,6.32643116165823,1.00000000539808,0.698907496892081
10500.0000000207,6.37476126001486,1.00000000590602,0.684363653162092
10600.000000021,6.43469114998249,1.00000000566217,0.689810508085058
10700.0000000214,6.50293427469623,1.00000000531794,0.705002728213193
10800.0000000218,6.57613690815841,1.00000000500817,0.695688095348891
10900.0000000221,6.6596871165859,1.00000000555487,0.68381275249667
11000.0000000225,6.73805931050985,1.00000000520628,0.701186125560845
11100.0000000229,6.82521927367528,1.0000000045492,0.669147611312339
11200.0000000232,6.90824767630002,1.00000000605948,0.681889773877168
11300.0000000236,6.99712423573797,1.00000000534208,0.691934893613043
11400.0000000239,7.09854449345163,1.00000000562203,0.721837375375225
11500.0000000243,7.17991334961919,1.00000000579544,0.716201983799454
11600.0000000247,7.26111103430074,1.00000000529075,0.718210165647993
11700.000000025,7.33783159334219,1.00000000551467,0.715505926169819
11800.0000000254,7.42259671107097,1.00000000628684,0.703881393343252
11900.0000000258,7.51301334373299,1.00000000547057,0.694769335623704
12000.0000000261,7.61018205467203,1.00000000582037,0.712505654108376
12100.0000000265,7.69874862443861,1.00000000559674,0.712507522709019
12200.0000000269,7.78053700268155,1.0000000054808,0.712313807085562
12300.0000000272,7.8636557487334,1.00000000611857,0.704108711852158
12400.0000000276,7.95081840786095,1.00000000622537,0.716833977418989
12500.0000000279,8.04089030516367,1.00000000557221,0.706051269178521
12600.0000000283,8.13131801510025,1.00000000626436,0.719146267850954
12700.0000000287,8.23157740435256,1.00000000593013,0.711966480936111
12800.000000029,8.32726239244746,1.00000000591239,0.725255834781776
12900.0000000294,8.41339982072633,1.0000000057471,0.702783137525778
13000.0000000298,8.50057790190146,1.00000000659733,0.709117785543734
13100.0000000301,8.58821497435033,1.00000000597424,0.714484116567664
13200.0000000305,8.67123425373713,1.00000000613145,0.726637195371332
13300.0000000309,8.75297439659172,1.00000000650274,0.72182415823251
13400.0000000312,8.82468692658863,1.00000000595387,0.720874691879962
13500.0000000316,8.90528345492691,1.00000000580082,0.705694206162996
13600.0000000319,8.9962827141112,1.00000000632933,0.716546422391067
13700.0000000323,9.07249121749644,1.00000000657961,0.714602017978601
13800.0000000327,9.14206423800965,1.00000000648836,0.716761358666428
13900.000000033,9.21298946551641,1.00000000692459,0.726594219535354
14000.0000000334,9.27966793861817,1.00000000586122,0.718099664916368
14100.0000000338,9.33946536359003,1.00000000602708,0.719968626382982
14200.0000000341,9.39676253744373,1.00000000613284,0.716316782237585
14300.0000000345,9.44891373182285,1.00000000613143,0.728008189743853
14400.0000000349,9.49270148177203,1.00000000671512,0.723556629827639
14500.0000000352,9.53605042404021,1.00000000643243,0.718861653520435
14600.0000000356,9.57512274287087,1.00000000626638,0.723313227659481
14700.0000000359,9.60930087814935,1.00000000662127,0.719052984651184
14800.0000000363,9.63757850993943,1.00000000664536,0.719955131256744
14900.0000000367,9.64783121267725,1.00000000676999,0.720363722332481
15000.000000037,9.65509567631634,1.000000006615,0.70317518592651
15100.0000000374,9.66249798148822,1.00000000660254,0.722952230514921
15200.0000000378,9.67786921606485,1.00000000640196,0.742013691719503
15300.0000000381,9.69327536952952,1.00000000640631,0.723629973314763
15400.0000000385,9.71351709175146,1.0000000068456,0.735285660829732
15500.0000000389,9.73818188251032,1.0000000067847,0.728073679338349
15600.0000000392,9.76619379843791,1.00000000659072,0.729597099555106
15700.0000000396,9.81334827226326,1.00000000714831,0.720300167624801
15800.0000000399,9.86290202115167,1.00000000670144,0.701340300422305
15900.0000000403,9.93745590262226,1.0000000061435,0.677563720217325
16000.0000000407,10.0363579143688,1.00000000709331,0.666172993959718
16100.000000041,10.1747295097855,1.00000000580002,0.653500178018395
16200.0000000414,10.3651620899356,1.00000000628037,0.651875894918308
16300.0000000418,10.6178346798716,1.00000000603875,0.654765173102577
16400.0000000418,10.9134619066234,1.00000000669031,0.658891395927998
16500.0000000404,11.261174874381,1.00000000602673,0.664697840412198
16600.0000000389,11.6088868931229,1.00000000733064,0.667360603382112
16700.0000000375,11.9826502895543,1.00000000750473,0.673212333858177
16800.000000036,12.337979130782,1.00000000700328,0.6722502410168
16900.0000000346,12.7130448289523,1.00000000675546,0.658737951732325
17000.0000000331,13.0827109250416,1.00000000735909,0.665468143083725
17100.0000000317,13.4630655141617,1.00000000670674,0.667505323511392
17200.0000000302,13.8519668604881,1.00000000709007,0.674779266046017
17300.0000000287,14.2274134906181,1.0000000065019,0.664924100762265
17400.0000000273,14.6209533300943,1.00000000737303,0.681860989995078
17500.0000000258,15.0159482837901,1.00000000680839,0.687435073779642
17600.0000000244,15.4277312099144,1.00000000643484,0.693590192394003
17700.0000000229,15.8380071160516,1.00000000696024,0.704167778202668
17800.0000000215,16.2433015292661,1.00000000719898,0.710812157233645
17900.00000002,16.6545948340426,1.00000000681757,0.717989773786446
18000.0000000186,17.0387244194883,1.00000000703068,0.717604094272296
18100.0000000171,17.4104479664636,1.00000000754179,0.736313610041951
18200.0000000156,17.7635762046554,1.00000000765945,0.726256919380667
18300.0000000142,18.127247407283,1.00000000771804,0.735447810234932
18400.0000000127,18.4768414389886,1.00000000713932,0.738180562989732
18500.0000000113,18.82821164717,1.00000000811541,0.736821293888446
18600.0000000098,19.1690511132883,1.00000000799838,0.735236129973522
18700.0000000084,19.5071283879081,1.00000000768232,0.738203338991283
18800.0000000069,19.8428945825704,1.00000000775752,0.739230977292474
18900.0000000055,20.157847455063,1.00000000713725,0.725582857435432
19000.000000004,20.4849419617945,1.00000000766803,0.746226058950071
19100.0000000026,20.8102633533016,1.00000000735255,0.746870808639418
19200.0000000011,21.1484962302247,1.00000000799624,0.745970711886145
19299.9999999996,21.4761398692206,1.00000000853369,0.74808082963785
19399.9999999982,21.7960901759449,1.00000000815629,0.726228300206483
19499.9999999967,22.1261877270319,1.00000000762263,0.747628805370213
19599.9999999953,22.4624385894082,1.00000000794678,0.742373171145764
19699.9999999938,22.8182244956906,1.00000000760379,0.744728870765189
19799.9999999924,23.1838952155571,1.00000000762061,0.750177572237833
19899.9999999909,23.5350979810118,1.00000000747912,0.749142534953797
19999.9999999895,23.8709475779275,1.00000000831947,0.744881497441569
20099.999999988,24.1991059925052,1.0000000079142,0.741921141343839
20199.9999999865,24.5358557015215,1.00000000772429,0.741759307080493
20299.9999999851,24.9026638007346,1.00000000675028,0.728336555534288
20399.9999999836,25.3122654219098,1.00000000737362,0.734346824177174
20499.9999999822,25.7233687070243,1.00000000788319,0.756191748878315
20599.9999999807,26.1202457445203,1.00000000868232,0.745628981252081
20699.9999999793,26.4963956346208,1.0000000094809,0.744842004250012
20799.9999999778,26.8697740415443,1.00000000769612,0.747340594105342
20899.9999999764,27.2468179298162,1.00000000790465,0.746234143565665
20999.9999999749,27.6263891039314,1.00000000746641,0.737371082453329
21099.9999999734,28.0204463255492,1.00000000825948,0.740236583951906
21199.999999972,28.4062618531322,1.00000000814744,0.75656785371714
21299.9999999705,28.7871624199427,1.00000000764515,0.746716810001267
21399.9999999691,29.1822320720261,1.00000000861633,0.74563893287441
21499.9999999676,29.5944854751947,1.00000000863027,0.756650051677394
21599.9999999662,30.0203467183438,1.00000000786188,0.741615115031003
21699.9999999647,30.4539690292597,1.00000000826809,0.74903410229156
21799.9999999633,30.8977886305909,1.00000000908642,0.760795875905622
21899.9999999618,31.363544279285,1.00000000866695,0.758817637403062
21999.9999999603,31.8271132792292,1.00000000811489,0.755421172198644
22099.9999999589,32.3013026397326,1.00000000915802,0.744530573784774
22199.9999999574,32.7766260181293,1.0000000078572,0.745140894741922
22299.999999956,33.2609262703952,1.00000000835012,0.753088027995303
22399.9999999545,33.7496276169795,1.00000000792082,0.736476993002975
22499.9999999531,34.2547413383047,1.00000000887295,0.741735273714223
22599.9999999516,34.7697427240176,1.00000000910524,0.747590870468144
22699.9999999502,35.2689597304906,1.00000000835083,0.723535172684258
22799.9999999487,35.7766971994461,1.00000000830609,0.75208014459253
22899.9999999473,36.3126516001587,1.00000000881036,0.75093433497707
22999.9999999458,36.8775965547988,1.00000000876575,0.745289459246417
23099.9999999443,37.4466646999138,1.00000000929812,0.755086047411978
23199.9999999429,38.0067394467172,1.00000000874948,0.756303918465428
23299.9999999414,38.5543067756411,1.00000000954893,0.752732296055988
23399.99999994,39.1151970638512,1.00000000890107,0.751685493056378
23499.9999999385,39.7070878728256,1.00000000892515,0.751882150401395
23599.9999999371,40.3148046126879,1.00000000893203,0.753220714666719
23699.9999999356,40.9452568080413,1.00000000836316,0.745823701620803
23799.9999999342,41.5885804364207,1.00000000916035,0.74404901007501
23899.9999999327,42.2573201230938,1.00000000948851,0.753221896730185
23999.9999999312,42.9326134303882,1.00000000922084,0.755956506784355
24099.9999999298,43.610095840892,1.00000000925992,0.746325232428923
24199.9999999283,44.280800759225,1.00000000870794,0.747004379872474
24299.9999999269,44.9425942357509,1.00000000902475,0.746715455953683
24399.9999999254,45.6062879790109,1.00000001060514,0.75346454017206
24499.999999924,46.2670976091796,1.00000000940013,0.753555416907537
24599.9999999225,46.9331378167239,1.00000000826499,0.737243497847251
24699.9999999211,47.6170679362869,1.00000000870002,0.738756014529202
24799.9999999196,48.2909525417737,1.00000000957646,0.740072793454394
24899.9999999181,48.9728087421864,1.00000000931568,0.75009497446098
24999.9999999167,49.6735646431834,1.00000000912809,0.756553729628192
25099.9999999152,50.3921297386823,1.00000000892013,0.757146748794293
25199.9999999138,51.12092054216,1.00000000941583,0.762325574378114
25299.9999999123,51.86671333275,1.00000000907381,0.754375587085612
25399.9999999109,52.6401023683538,1.00000000954616,0.750032082646952
25499.9999999094,53.4313263565837,1.00000000956295,0.747416012113208
25599.999999908,54.235117039668,1.0000000094108,0.74428657788628
25699.9999999065,55.0591420017707,1.00000000984985,0.748991155631716
25799.9999999051,55.8814919226223,1.00000000975055,0.752927624864309
25899.9999999036,56.7056642942697,1.00000000896547,0.751536937847139
25999.9999999021,57.5416151315935,1.00000000925911,0.765217563113389
26099.9999999007,58.3769547576091,1.00000000941716,0.757961166662739
26199.9999998992,59.1945778114521,1.00000000982012,0.759648063661723
26299.9999998978,60.0232176409916,1.00000000982499,0.752894758310549
26399.9999998963,60.8699396150321,1.00000000909742,0.763160328342204
26499.9999998949,61.6994084327705,1.00000000904873,0.766267387149071
26599.9999998934,62.5394950491301,1.00000000984872,0.758169920271587
26699.999999892,63.4053038241228,1.00000000957694,0.758871000496884
26799.9999998905,64.2863109310167,1.00000001011048,0.762245595737686
26899.999999889,65.1745302414589,1.0000000091986,0.755208232343349
26999.9999998876,66.0598130561213,1.00000001031153,0.75610255706073
27099.9999998861,66.9448640273837,1.00000000938425,0.745518232761268
27199.9999998847,67.843447730394,1.0000000097203,0.752776661388371
27299.9999998832,68.7481841549108,1.00000000939286,0.749218142979245
27399.9999998818,69.6655610778592,1.00000000955427,0.758325969784173
27499.9999998803,70.5950747745764,1.00000000941045,0.754192674320758
27599.9999998789,71.5080552790762,1.00000000987665,0.762580740962154
27699.9999998774,72.4122843141302,1.00000000939969,0.757271046116553
27799.9999998759,73.3305863086691,1.00000000997714,0.757558915401896
27899.9999998745,74.2560163283941,1.00000001015348,0.759037908651293
27999.999999873,75.1754078636072,1.00000001030118,0.757743889111396
28099.9999998716,76.1207913571291,1.00000000964008,0.749556352756459
28199.9999998701,77.1001930999889,1.00000000990546,0.752194875242366
28299.9999998687,78.0889705748449,1.00000001056894,0.759009980277165
28399.9999998672,79.0731452933464,1.00000000968995,0.762185761848858
28499.9999998658,80.0677975449484,1.00000001065344,0.762552408942787
28599.9999998643,81.0630081873071,1.00000000982491,0.761955489174619
28699.9999998629,82.0551670926981,1.0000000106236,0.770256664719943
28799.9999998614,83.0429601139584,1.00000001099896,0.767603939851093
28899.9999998599,84.0556834183135,1.00000001098547,0.766829358502882
28999.9999998585,85.064781695072,1.00000001014271,0.769440415550303
