Time,AGPnorm,Energy,Entropy
0,0,1,-7.69966441809811e-17
99.9999999999986,0.000380490150167802,1.00000000000053,0.0014659848828452
199.999999999993,0.00259236360373465,1.00000000000337,0.00447713852725192
300,0.00533216643995299,1.00000000000378,0.0084949813431168
400.000000000022,0.00837205058332112,1.00000000000112,0.0134464865773934
500.000000000045,0.0121256913673051,0.9999999999997,0.0193621834488366
600.000000000068,0.0169718984413769,1.00000000000206,0.0262058548822128
700.000000000091,0.0220696829764435,1.00000000000408,0.0338324912704887
800.000000000113,0.0279181596645549,1.00000000000256,0.0420722596623288
900.000000000136,0.0344345033750907,0.999999999999936,0.050946989038457
1000.00000000016,0.0413122178853965,1.00000000000063,0.0605433792866889
1100.0000000001,0.0487709088437746,1.00000000000348,0.0710707735249935
1200,0.056208850392269,1.00000000000361,0.0823628260962621
1299.99999999991,0.0642444256802538,1.00000000000112,0.0944380603204442
1399.99999999982,0.0725522171164028,0.999999999999901,0.107377199954838
1499.99999999973,0.0811840851178785,1.0000000000023,0.121531075311213
1599.99999999964,0.0894434713723875,1.00000000000427,0.137153930661933
1699.99999999955,0.0981392950576149,1.00000000000319,0.154260742074751
1799.99999999946,0.107016588772542,1.00000000000254,0.173217719617527
1899.99999999937,0.115370501284111,1.00000000000751,0.19441676910828
1999.99999999928,0.124632130985115,1.00000000001965,0.218233666673922
2099.99999999919,0.137500634502228,1.00000000003688,0.244196058461156
2199.99999999909,0.155710791467386,1.00000000006014,0.271313445010794
2299.999999999,0.182754498569568,1.00000000010031,0.298480415913463
2399.99999999891,0.236631345716105,1.00000000014498,0.325074996338297
2499.99999999882,0.348446670425571,1.00000000018873,0.350333494631114
2599.99999999873,0.548495072832971,1.000000000229,0.373536427312785
2699.99999999864,0.870094264863779,1.00000000029279,0.394478890707213
2799.99999999855,1.35745372786068,1.00000000032778,0.413549725300085
2899.99999999846,2.07100227923548,1.00000000038472,0.430750439209264
2999.99999999837,3.07142621060339,1.00000000042219,0.44632962747666
3099.99999999828,4.40590011282919,1.00000000044191,0.46009418419204
3199.99999999819,6.10418359804289,1.00000000047187,0.472194813558841
3299.99999999809,8.19280781781898,1.00000000050691,0.483055516416595
3399.999999998,10.7135972241543,1.00000000053906,0.49277979913024
3499.99999999791,13.7018155705537,1.00000000054218,0.501252587207941
3599.99999999782,17.1547910501561,1.00000000057905,0.508488922409984
3699.99999999773,21.0405347797674,1.00000000054634,0.514993507340142
3799.99999999764,25.3463241228051,1.00000000057358,0.520508307760758
3899.99999999755,30.0867457532741,1.00000000060917,0.525251560291469
3999.99999999746,35.243813992083,1.00000000059599,0.529397102870541
4099.99999999738,40.7530005217478,1.00000000058028,0.532496226121912
4199.99999999775,46.5560529222131,1.00000000058923,0.535234982451926
4299.99999999811,52.6384037533975,1.000000000606,0.537933319338714
4399.99999999848,58.9869167789507,1.00000000060391,0.539306463492074
4499.99999999884,65.5445217243267,1.00000000059916,0.540438445420512
4599.9999999992,72.229129836283,1.00000000057951,0.541624273545808
4699.99999999957,78.9984429767821,1.00000000055774,0.542674082888623
4799.99999999993,85.8517344528159,1.00000000056748,0.542028628495177
4900.00000000029,92.750731957287,1.00000000055588,0.542249487713321
5000.00000000066,99.6264088542131,1.0000000005425,0.542205684247207
5100.00000000102,106.424277232769,1.00000000050402,0.541235319556066
5200.00000000139,113.137262692547,1.00000000051365,0.541485067505984
5300.00000000175,119.755725650202,1.00000000050797,0.540714026183038
5400.00000000211,126.236870498212,1.00000000051721,0.539015585986214
5500.00000000248,132.529263938658,1.00000000049646,0.538648484850318
5600.00000000284,138.616125377079,1.00000000049455,0.538091885436299
5700.00000000321,144.50124081061,1.0000000004592,0.536007281910143
5800.00000000357,150.17076782897,1.00000000045122,0.534006777710142
5900.00000000393,155.589769981989,1.00000000046357,0.533190689994667
6000.0000000043,160.734791621938,1.00000000044276,0.532221666096239
6100.00000000466,165.606922340781,1.00000000042648,0.529846115809152
6200.00000000502,170.214441185465,1.00000000045329,0.527893037926257
6300.00000000539,174.543530014529,1.00000000044621,0.527544923797883
6400.00000000575,178.576275030325,1.00000000043469,0.526547080361656
6500.00000000612,182.307456103052,1.00000000041609,0.523651982044148
6600.00000000648,185.749045665494,1.00000000038492,0.52152239104746
6700.00000000684,188.911831774122,1.00000000038606,0.522490841840588
6800.00000000721,191.792278807263,1.00000000037598,0.523787398475241
6900.00000000757,194.383984863353,1.00000000038523,0.519688528276727
7000.00000000793,196.688339471719,1.00000000036259,0.513178497387452
7100.0000000083,198.717222509132,1.00000000034678,0.512797527046561
7200.00000000866,200.488045667974,1.00000000037023,0.52095587932593
7300.00000000903,202.019331813981,1.00000000037529,0.526341834533186
7400.00000000939,203.315966630258,1.00000000036186,0.518391487444133
7500.00000000975,204.364450868002,1.00000000031765,0.502461389022211
7600.00000001012,205.154685737895,1.00000000030333,0.497667905370637
7700.00000001048,205.70990948292,1.00000000033143,0.514071811345527
7800.00000001084,206.084582072718,1.00000000035911,0.533046902081581
7900.00000001121,206.320115507716,1.00000000037894,0.533690521178096
8000.00000001157,206.406848713793,1.00000000033334,0.510727148925685
8100.00000001194,206.290394677381,1.00000000025243,0.480643464947966
8200.0000000123,205.941515337692,1.00000000023134,0.477958699189415
8300.00000001266,205.408147682021,1.00000000029443,0.509815485585953
8400.00000001303,204.782215770322,1.0000000003981,0.540674662265627
8500.00000001339,204.129807609219,1.00000000042022,0.548134234876796
8600.00000001376,203.441585225479,1.00000000036099,0.526316019584312
8700.00000001412,202.644716268412,1.00000000027598,0.478752158715417
8800.00000001448,201.670141261641,1.00000000019748,0.44214418000797
8900.00000001485,200.522084612904,1.00000000021699,0.459403300202673
9000.00000001521,199.281527758698,1.00000000034245,0.509096398357741
9100.00000001557,198.038569710174,1.00000000045658,0.546190050170474
9200.00000001594,196.841804904745,1.00000000048096,0.557754032077297
9300.0000000163,195.685232246544,1.000000000423,0.5382777221339
9400.00000001667,194.510971689469,1.00000000031579,0.48637503288811
9500.00000001703,193.240458793067,1.00000000018146,0.420951619001493
9600.00000001739,191.836578296275,1.00000000015068,0.396663371952377
9700.00000001776,190.331961223844,1.00000000022453,0.44133694185206
9800.00000001812,188.798403496798,1.00000000035636,0.504037832105511
9900.00000001848,187.302358723028,1.00000000047498,0.541978457470491
10000.0000000188,185.8792539946,1.0000000004952,0.555819977287879
10100.0000000192,184.527713343984,1.00000000044249,0.548977247137484
10200.0000000196,183.21422556116,1.00000000039191,0.51102438482137
10300.0000000199,181.881642553607,1.0000000002796,0.442089439920228
10400.0000000203,180.481214811435,1.00000000016349,0.37286347274882
10500.0000000207,179.002223756404,1.00000000013532,0.354648260022518
10600.000000021,177.473375174291,1.00000000022443,0.402935160950194
10700.0000000214,175.937831550513,1.00000000035716,0.473511422750145
10800.0000000218,174.432229562328,1.00000000045407,0.521455509495878
10900.0000000221,172.980507889186,1.00000000051099,0.542029918514412
11000.0000000225,171.592421436255,1.00000000050504,0.547438894009375
11100.0000000229,170.262670691807,1.00000000046894,0.5397252974002
11200.0000000232,168.969909236678,1.0000000004208,0.509620691441271
11300.0000000236,167.682986954272,1.00000000030538,0.4536563617484
11400.0000000239,166.372926306814,1.00000000022133,0.385935464595804
11500.0000000243,165.029200076434,1.00000000015142,0.340279798234978
11600.0000000247,163.662321998449,1.00000000016565,0.344028253148957
11700.000000025,162.29239560816,1.00000000023141,0.391216191559164
11800.0000000254,160.935431516082,1.00000000031797,0.454239707549899
11900.0000000258,159.599550596024,1.00000000042197,0.500939297516431
12000.0000000261,158.290675125069,1.0000000004757,0.52088652943981
12100.0000000265,157.015187481803,1.00000000049845,0.528348329202672
12200.0000000269,155.777197626763,1.00000000047176,0.534190036047966
12300.0000000272,154.574433702406,1.00000000045919,0.533072489578399
12400.0000000276,153.397625684167,1.00000000038146,0.513531895822039
12500.0000000279,152.233844583444,1.00000000032272,0.473850901472017
12600.0000000283,151.072801833818,1.00000000026261,0.424693887998592
12700.0000000287,149.912414091368,1.00000000022939,0.38054739739892
12800.000000029,148.759155747771,1.00000000020474,0.354319367231371
12900.0000000294,147.622933904062,1.0000000002058,0.358549319993749
13000.0000000298,146.50999337409,1.00000000023785,0.386324170268782
13100.0000000301,145.420191128245,1.00000000029561,0.426128277276018
13200.0000000305,144.348668986325,1.00000000034263,0.470077281656001
13300.0000000309,143.290271043799,1.00000000036168,0.501894416105724
13400.0000000312,142.242705334989,1.0000000003592,0.508491944507765
13500.0000000316,141.205727098292,1.00000000039689,0.50236941069525
13600.0000000319,140.179522761016,1.00000000044319,0.504949011104309
13700.0000000323,139.164878089182,1.00000000046681,0.520466862203356
13800.0000000327,138.163655371223,1.00000000045851,0.536120590479623
13900.000000033,137.177213644579,1.00000000042718,0.53237160792031
14000.0000000334,136.205252282408,1.00000000034493,0.50430832724989
14100.0000000338,135.247598415174,1.00000000025889,0.459427899472762
14200.0000000341,134.30791211089,1.00000000020858,0.414581032720679
14300.0000000345,133.393788316295,1.00000000018982,0.3812767263185
14400.0000000349,132.511778547371,1.00000000021922,0.367511758093824
14500.0000000352,131.664209481407,1.00000000025984,0.371670919629785
14600.0000000356,130.850384482344,1.00000000028778,0.395049956764472
14700.0000000359,130.066162771801,1.00000000029462,0.424826391169687
14800.0000000363,129.302764242052,1.0000000003378,0.448728914968131
14900.0000000367,128.549652769348,1.00000000036223,0.47169636785414
15000.000000037,127.799864841892,1.00000000038337,0.493042532079199
15100.0000000374,127.053128342108,1.00000000035549,0.504430696190959
15200.0000000378,126.313801494391,1.00000000030884,0.498055631559166
15300.0000000381,125.585225240474,1.00000000029954,0.481859084359108
15400.0000000385,124.86413252403,1.00000000034326,0.475563779785044
15500.0000000389,124.141790620248,1.00000000040715,0.487366897939365
15600.0000000392,123.410933513262,1.00000000048298,0.508006968596627
15700.0000000396,122.671099533129,1.00000000050316,0.529246835029104
15800.0000000399,121.92720500751,1.00000000046103,0.538662555116949
15900.0000000403,121.185470530029,1.00000000041552,0.531000014692854
16000.0000000407,120.452197169169,1.00000000034211,0.507383635264972
16100.000000041,119.734739814895,1.00000000029679,0.470654756960108
16200.0000000414,119.043285017776,1.00000000022189,0.429819087932055
16300.0000000418,118.38921226033,1.00000000017776,0.394781521335424
16400.0000000418,117.781163668424,1.00000000018727,0.373065205634359
16500.0000000404,117.219883734187,1.00000000022203,0.367985626385209
16600.0000000389,116.69876364472,1.00000000027031,0.38124691042442
16700.0000000375,116.207479717796,1.00000000032772,0.401937964474555
16800.000000036,115.736997283688,1.00000000032317,0.425633489078884
16900.0000000346,115.279656562432,1.00000000035966,0.448831196187733
17000.0000000331,114.828518793332,1.00000000036195,0.46786514130106
17100.0000000317,114.377191699404,1.00000000039192,0.480286680539908
17200.0000000302,113.920488796146,1.0000000003798,0.490864842158347
17300.0000000287,113.456462440987,1.00000000038693,0.500782592091311
17400.0000000273,112.987482136668,1.00000000036513,0.507464379917117
17500.0000000258,112.519524018374,1.00000000031389,0.507994982964395
17600.0000000244,112.059169174587,1.00000000028306,0.501504927826558
17700.0000000229,111.609736866217,1.0000000002774,0.491559823733189
17800.0000000215,111.167673824108,1.00000000030475,0.4859997945845
17900.00000002,110.725321052141,1.00000000034139,0.483986572437132
18000.0000000186,110.273682726521,1.00000000038986,0.48467275671089
18100.0000000171,109.806421248636,1.00000000041352,0.493480501233593
18200.0000000156,109.320862011217,1.00000000044752,0.505112889453549
18300.0000000142,108.818501385439,1.00000000044202,0.521221732916084
18400.0000000127,108.303777357452,1.00000000048999,0.535588158457151
18500.0000000113,107.783782876581,1.00000000043271,0.539047266261166
18600.0000000098,107.266286187338,1.00000000038677,0.527350199902201
18700.0000000084,106.759548378303,1.00000000030071,0.502926647975519
18800.0000000069,106.273960545212,1.00000000023943,0.471089888772208
18900.0000000055,105.819490358865,1.00000000021875,0.439449037768235
19000.000000004,105.405032427491,1.00000000021745,0.417236020106301
19100.0000000026,105.036317212024,1.00000000020083,0.402483364476591
19200.0000000011,104.715706735852,1.000000000217,0.392798036290396
19299.9999999996,104.442345449315,1.00000000022392,0.390349217062734
19399.9999999982,104.209675504136,1.00000000025904,0.392986232589868
19499.9999999967,104.0057871326,1.00000000030143,0.408040658277651
19599.9999999953,103.815430965255,1.00000000034761,0.431235612642485
19699.9999999938,103.627677558747,1.0000000003837,0.453299767868628
19799.9999999924,103.439183332028,1.00000000037164,0.469212292748712
19899.9999999909,103.251612756609,1.00000000033087,0.477044254648828
19999.9999999895,103.069699104112,1.00000000029982,0.479655221706174
20099.999999988,102.897131308221,1.00000000029395,0.47971318504184
20199.9999999865,102.7319786051,1.00000000030736,0.48217154789471
20299.9999999851,102.567931667181,1.00000000031846,0.491312881481325
20399.9999999836,102.3952526529,1.00000000035749,0.503737572128652
20499.9999999822,102.203234604139,1.00000000039854,0.515257135263586
20599.9999999807,101.986631852346,1.00000000040943,0.52448536164372
20699.9999999793,101.746567470967,1.00000000039335,0.5304253669063
20799.9999999778,101.488834512371,1.00000000038428,0.532900018328403
20899.9999999764,101.221904386679,1.00000000033946,0.530025760985681
20999.9999999749,100.953677479717,1.00000000031471,0.523542461088137
21099.9999999734,100.688970426283,1.00000000029399,0.514346811500545
21199.999999972,100.429846600071,1.00000000029374,0.505829893630222
21299.9999999705,100.176327575194,1.0000000002991,0.500322906433051
21399.9999999691,99.9260801768931,1.00000000030335,0.494101514689498
21499.9999999676,99.6750243150213,1.00000000031474,0.489204092589242
21599.9999999662,99.4178828671849,1.00000000035174,0.489438756304855
21699.9999999647,99.1489713408715,1.00000000038944,0.495609481187526
21799.9999999633,98.8627093758736,1.00000000043364,0.507683487869157
21899.9999999618,98.5566292137207,1.00000000046077,0.522252951953572
21999.9999999603,98.2314341965746,1.00000000049055,0.534274687884346
22099.9999999589,97.8911682690933,1.00000000044364,0.54095719548585
22199.9999999574,97.5422867239924,1.00000000040867,0.542047418409606
22299.999999956,97.1926323499134,1.00000000037459,0.536298275630693
22399.9999999545,96.8502926863942,1.00000000032853,0.520614426848092
22499.9999999531,96.5234360889879,1.00000000027577,0.495850379885861
22599.9999999516,96.2209916806915,1.00000000024865,0.471873134559791
22699.9999999502,95.9519128316575,1.00000000022915,0.450556923522399
22799.9999999487,95.7237337430121,1.00000000021331,0.430445081332575
22899.9999999473,95.5413427388322,1.00000000021089,0.417444988957067
22999.9999999458,95.4061823720098,1.00000000021768,0.408164395589416
23099.9999999443,95.3153117141265,1.0000000002323,0.401499789133117
23199.9999999429,95.2625063475616,1.00000000030068,0.403099299817635
23299.9999999414,95.2397732731439,1.00000000029015,0.407165692286578
23399.99999994,95.2387581675929,1.00000000031733,0.414212539389205
23499.9999999385,95.2526725313075,1.0000000003402,0.422274362589445
23599.9999999371,95.2754488199217,1.00000000034507,0.430920055020481
23699.9999999356,95.3019502298157,1.00000000034465,0.44304270278796
23799.9999999342,95.3275594168416,1.00000000034728,0.457555798784128
23899.9999999327,95.3491733759476,1.00000000036062,0.470331721856136
23999.9999999312,95.3654228869893,1.000000000341,0.479373451041352
24099.9999999298,95.3761019602428,1.00000000036266,0.489084189265941
24199.9999999283,95.3812408481565,1.00000000034263,0.500391987596053
24299.9999999269,95.3813299409544,1.00000000032899,0.512050118319463
24399.9999999254,95.378726465602,1.00000000032812,0.518682464993901
24499.999999924,95.3762818483228,1.0000000003079,0.520956095360687
24599.9999999225,95.3757921663248,1.00000000030404,0.521339010528487
24699.9999999211,95.3757157235597,1.0000000003246,0.521443582958053
24799.9999999196,95.3720588143063,1.00000000034659,0.52367154294202
24899.9999999181,95.3593263258289,1.00000000035218,0.527254823186369
24999.9999999167,95.3325852291965,1.00000000035831,0.528660375588377
25099.9999999152,95.2886396043815,1.00000000036783,0.528271090982077
25199.9999999138,95.226456982339,1.00000000038011,0.526190699624644
25299.9999999123,95.1461170131367,1.00000000038121,0.522704647600459
25399.9999999109,95.0481151937032,1.00000000038412,0.519330753305379
25499.9999999094,94.9322100098888,1.00000000036352,0.516761253510992
25599.999999908,94.7987344151678,1.00000000036529,0.519667934300262
25699.9999999065,94.6497308030105,1.0000000003642,0.527970226496549
25799.9999999051,94.4897717080612,1.00000000036983,0.533290085690405
25899.9999999036,94.3246035338384,1.00000000034952,0.531449818835622
25999.9999999021,94.1589999130452,1.00000000032437,0.526885936969757
26099.9999999007,93.9959146674346,1.00000000031032,0.524094899966577
26199.9999998992,93.8368317233048,1.00000000031241,0.524050897707086
26299.9999998978,93.6824505048527,1.00000000031096,0.524692065172636
26399.9999998963,93.5328902888105,1.0000000002844,0.52639908730535
26499.9999998949,93.3868196979151,1.00000000029151,0.52831003614455
26599.9999998934,93.2415451860999,1.00000000030623,0.529687644825565
26699.999999892,93.0944156501842,1.0000000003121,0.529206104320249
26799.9999998905,92.9435695798656,1.00000000032095,0.528653013452888
26899.999999889,92.7875458592074,1.00000000032655,0.527197627158617
26999.9999998876,92.6243598889672,1.00000000034414,0.525095054879184
27099.9999998861,92.4517087527074,1.00000000038113,0.52381892198779
27199.9999998847,92.2675030025807,1.00000000039013,0.5223723811691
27299.9999998832,92.0699605901371,1.00000000040123,0.521548864248008
27399.9999998818,91.8580452118049,1.00000000042597,0.525826694452414
27499.9999998803,91.632049324282,1.000000000476,0.532844457592357
27599.9999998789,91.3938326730155,1.00000000046162,0.538477112154552
27699.9999998774,91.1469177762242,1.00000000043842,0.54162623978436
27799.9999998759,90.8960263639948,1.00000000039076,0.542185831347405
27899.9999998745,90.6466354350323,1.00000000036601,0.538347135012547
27999.999999873,90.4042371377631,1.00000000032779,0.527561311074035
28099.9999998716,90.1746030516531,1.00000000029216,0.511544444115075
28199.9999998701,89.964011682891,1.00000000025516,0.495544366562258
28299.9999998687,89.7788638146923,1.00000000023633,0.478755233530276
28399.9999998672,89.6249050260959,1.00000000022529,0.46359622101303
28499.9999998658,89.5070134775299,1.00000000021252,0.451060345696022
28599.9999998643,89.4283503177101,1.00000000021171,0.437694700232995
28699.9999998629,89.3903753807887,1.00000000022241,0.427155158953447
28799.9999998614,89.3920781363118,1.00000000024075,0.421627342922867
28899.9999998599,89.4298529629253,1.00000000026873,0.420855596133913
28999.9999998585,89.4994154638555,1.00000000027356,0.425544738140405
