Time,AGPnorm,Energy,Entropy
0,0,1,1.28137060152595e-18
99.9999999999986,0.0104896185920293,0.99999999999783,0.0276447582314467
199.999999999993,0.0271757552817078,1.00000000000069,0.0812142091822703
300,0.052727257257887,1.00000000000396,0.16584966899832
400.000000000022,0.0808494208314737,1.00000000040657,0.300407240514113
500.000000000045,0.191921632530471,1.00000000196091,0.445617040329541
600.000000000068,0.809084381697306,1.00000000328055,0.532938133010258
700.000000000091,2.23608971366163,1.00000000381328,0.575079409446521
800.000000000113,4.31063634099883,1.00000000409001,0.591551882080291
900.000000000136,6.76164534051962,1.00000000349868,0.59163836429135
1000.00000000016,9.1138901608637,1.000000003099,0.586162180896121
1100.0000000001,11.1651825604196,1.00000000316464,0.576973526715161
1200,12.7149031855264,1.00000000286835,0.565326436624634
1299.99999999991,13.7430832454367,1.00000000257957,0.564458541527507
1399.99999999982,14.281679864618,1.0000000024337,0.56914393551028
1499.99999999973,14.4042197835785,1.00000000198418,0.537963611756475
1599.99999999964,14.2931838379118,1.00000000183675,0.509800895083506
1699.99999999955,13.9779115858495,1.00000000295108,0.584192055991686
1799.99999999946,13.5496389212415,1.0000000014323,0.449181117736183
1899.99999999937,13.0939932982921,1.00000000310021,0.574155396084485
1999.99999999928,12.6054596889764,1.00000000135237,0.414842983319765
2099.99999999919,12.1021984366452,1.00000000326942,0.569008206766457
2199.99999999909,11.6516745048573,1.00000000176348,0.439150451713484
2299.999999999,11.1879387335586,1.00000000220159,0.47094482724502
2399.99999999891,10.7422140313705,1.00000000290991,0.554054196128023
2499.99999999882,10.3457432321141,1.00000000166523,0.461023621996095
2599.99999999873,9.98526863752466,1.00000000204707,0.445965990270666
2699.99999999864,9.6302077989421,1.00000000239738,0.514807918168534
2799.99999999855,9.2927139341148,1.00000000290072,0.544419615984641
2899.99999999846,8.98221836611938,1.00000000208441,0.498413873906607
2999.99999999837,8.74460087360276,1.00000000160588,0.41702773898926
3099.99999999828,8.51526503869494,1.0000000025651,0.518031779232168
3199.99999999819,8.28927101234431,1.00000000201723,0.521686814712426
3299.99999999809,8.06902251170774,1.00000000254495,0.54578254660056
3399.999999998,7.84347905203556,1.00000000277946,0.557110812785933
3499.99999999791,7.64975453750345,1.000000001628,0.48224428783894
3599.99999999782,7.54233924298839,1.00000000185665,0.448254832203611
3699.99999999773,7.45379747115374,1.00000000252457,0.514396656843208
3799.99999999764,7.34813133163614,1.00000000218436,0.539072669194439
3899.99999999755,7.24488990565569,1.0000000024876,0.558470001269687
3999.99999999746,7.12227502210304,1.00000000257109,0.58831915071931
4099.99999999738,6.9979816809061,1.00000000232673,0.568204546282053
4199.99999999775,6.86477791422613,1.00000000283597,0.573534979873887
4299.99999999811,6.72646758801699,1.00000000262444,0.573705470363979
4399.99999999848,6.63666432287334,1.00000000153581,0.480677971550534
4499.99999999884,6.63888430845859,1.00000000182305,0.470476821528601
4599.9999999992,6.66071917897953,1.00000000267979,0.518330146852357
4699.99999999957,6.6664077270698,1.00000000236615,0.543305629859526
4799.99999999993,6.65353666276465,1.00000000238022,0.574374267550616
4900.00000000029,6.62153326514593,1.0000000025005,0.589483450035689
5000.00000000066,6.59162564199321,1.00000000212082,0.592106991261443
5100.00000000102,6.55313785493947,1.00000000248365,0.595548293249586
5200.00000000139,6.49533814136651,1.00000000245907,0.584989731837987
5300.00000000175,6.42549833952578,1.00000000228972,0.601121199745857
5400.00000000211,6.35409995778506,1.00000000230298,0.606828180823778
5500.00000000248,6.27661609041082,1.00000000263412,0.605945128273193
5600.00000000284,6.19305614633744,1.00000000299145,0.609685057133402
5700.00000000321,6.10444108969474,1.00000000282045,0.592971251228519
5800.00000000357,6.02777664021393,1.00000000200569,0.549292148246624
5900.00000000393,6.01667503725823,1.00000000158142,0.488518440881667
6000.0000000043,6.09039268998885,1.00000000190798,0.489392691299784
6100.00000000466,6.19295136653749,1.00000000249648,0.524726698631342
6200.00000000502,6.27856790031536,1.00000000250835,0.552568537052721
6300.00000000539,6.34767788810357,1.00000000250582,0.571678268164198
6400.00000000575,6.40048995147636,1.00000000238927,0.592109918121867
6500.00000000612,6.43308988535094,1.00000000271909,0.616317209428008
6600.00000000648,6.4507761220573,1.00000000230267,0.616796164545919
6700.00000000684,6.45755091971795,1.00000000244366,0.627766669710004
6800.00000000721,6.4457931035329,1.00000000271516,0.630189828559944
6900.00000000757,6.42273278679109,1.00000000231099,0.626468776583046
7000.00000000793,6.4074761372037,1.00000000239604,0.619870477056566
7100.0000000083,6.39937120252392,1.0000000023961,0.611145486868957
7200.00000000866,6.37648412244759,1.00000000275736,0.611262382882539
7300.00000000903,6.34878000852859,1.00000000237916,0.621321580371618
7400.00000000939,6.32359608593639,1.00000000258148,0.625705231866915
7500.00000000975,6.29330392207159,1.00000000251878,0.637403531271278
7600.00000001012,6.26147759228288,1.00000000245559,0.632920288618292
7700.00000001048,6.22776249646796,1.00000000254955,0.613012608351718
7800.00000001084,6.19144070569815,1.0000000026751,0.627824374518211
7900.00000001121,6.14115193908451,1.00000000272341,0.643888876364437
8000.00000001157,6.08479783328174,1.00000000255605,0.647214182296123
8100.00000001194,6.02662913868585,1.00000000237894,0.644145927732653
8200.0000000123,5.96786397697029,1.00000000257719,0.650162723280621
8300.00000001266,5.90981690465448,1.00000000278654,0.652596355320954
8400.00000001303,5.85464573604143,1.00000000296107,0.668958469903381
8500.00000001339,5.79961089081303,1.000000002894,0.651837877766125
8600.00000001376,5.73915743117463,1.00000000278228,0.621116221059741
8700.00000001412,5.68458501403378,1.00000000221622,0.577841637636341
8800.00000001448,5.6677121275936,1.00000000168464,0.529080692807811
8900.00000001485,5.71899928661096,1.00000000178161,0.507604449703009
9000.00000001521,5.84028216778283,1.00000000207509,0.510072758421389
9100.00000001557,5.99672550254593,1.00000000247358,0.527941504812826
9200.00000001594,6.14940067042135,1.00000000278531,0.552121424833422
9300.0000000163,6.29286225559599,1.00000000297492,0.555086245555274
9400.00000001667,6.42448801201955,1.00000000251228,0.571140496866969
9500.00000001703,6.54052250298519,1.00000000288206,0.587439751128134
9600.00000001739,6.63944276952004,1.00000000282737,0.593191723124364
9700.00000001776,6.7258349719979,1.00000000300071,0.621696044161333
9800.00000001812,6.79645582533424,1.00000000272487,0.633867595159369
9900.00000001848,6.85553662716675,1.00000000281453,0.622038390610123
10000.0000000188,6.90363537568664,1.00000000281138,0.633836786258736
10100.0000000192,6.9377636260931,1.00000000303024,0.65608127735627
10200.0000000196,6.96080687596669,1.00000000268485,0.656763883450451
10300.0000000199,6.98043095995105,1.00000000268783,0.650777212947263
10400.0000000203,6.99819173937445,1.00000000268723,0.647847306407342
10500.0000000207,7.00720197717871,1.00000000292685,0.658423969063109
10600.000000021,7.01129462807344,1.00000000261568,0.660494322068076
10700.0000000214,7.01347418799697,1.00000000292037,0.658463673822673
10800.0000000218,7.00538123772303,1.00000000281739,0.66508539031035
10900.0000000221,6.99521182841361,1.0000000030155,0.66566646343313
11000.0000000225,6.97954466707832,1.00000000263495,0.649484660466028
11100.0000000229,6.96459278940105,1.00000000284926,0.669459516672023
11200.0000000232,6.9435810356204,1.00000000291404,0.657089739133389
11300.0000000236,6.9190466387167,1.00000000300995,0.666721234103962
11400.0000000239,6.89554080943862,1.00000000281371,0.65680877616756
11500.0000000243,6.87686860368741,1.00000000271976,0.641977181417806
11600.0000000247,6.86889430115648,1.00000000282947,0.627202985946408
11700.000000025,6.87369190241978,1.00000000271611,0.616189409926738
11800.0000000254,6.88913547699662,1.00000000280811,0.618977628803924
11900.0000000258,6.89612954394535,1.00000000325215,0.629868631206765
12000.0000000261,6.90100897834854,1.00000000298398,0.626224105474431
12100.0000000265,6.9011296524034,1.00000000300229,0.634478734867036
12200.0000000269,6.90546434985127,1.00000000297258,0.641832822178752
12300.0000000272,6.90592786164401,1.00000000316714,0.62856525224372
12400.0000000276,6.90642946571339,1.00000000282442,0.645496378064945
12500.0000000279,6.91112242814548,1.00000000310266,0.658592169748119
12600.0000000283,6.91496501450225,1.00000000302396,0.666773243251642
12700.0000000287,6.91176290925381,1.00000000310754,0.662103210086386
12800.000000029,6.91082180019645,1.00000000264074,0.656968409177405
12900.0000000294,6.91460777231264,1.00000000338161,0.660854899989651
13000.0000000298,6.91962226667497,1.00000000295918,0.650396776191845
13100.0000000301,6.9301556676944,1.00000000304933,0.642710100983043
13200.0000000305,6.93669459272623,1.00000000318562,0.659378492895416
13300.0000000309,6.93853066841005,1.00000000324944,0.663999475060824
13400.0000000312,6.94262211231529,1.00000000285134,0.663951732844893
13500.0000000316,6.95027975098229,1.00000000278629,0.663316793450601
13600.0000000319,6.95868497440965,1.00000000343551,0.658403114603725
13700.0000000323,6.96746339310492,1.00000000323332,0.672602570051875
13800.0000000327,6.96799647357791,1.00000000328011,0.679332601280296
13900.000000033,6.97085661201847,1.00000000315031,0.668705481750266
14000.0000000334,6.9744915687751,1.00000000316306,0.678961735728504
14100.0000000338,6.9772994564623,1.0000000028343,0.67119286410014
14200.0000000341,6.97767553778791,1.0000000031727,0.681037885727324
14300.0000000345,6.98089069543609,1.0000000030324,0.670400529611065
14400.0000000349,6.9759300711172,1.00000000326769,0.664398417529029
14500.0000000352,6.9680363279865,1.00000000307245,0.670055547654336
14600.0000000356,6.96309500265332,1.0000000030499,0.666329205357514
14700.0000000359,6.95872771035975,1.00000000310743,0.6670461803729
14800.0000000363,6.95835598610788,1.00000000286835,0.660300309002699
14900.0000000367,6.95244569045838,1.00000000347626,0.679036877470252
15000.000000037,6.94083826618477,1.00000000309569,0.671285580316786
15100.0000000374,6.92783865823692,1.00000000307852,0.680937683168724
15200.0000000378,6.91409407649328,1.00000000319292,0.691872932911252
15300.0000000381,6.90172186400892,1.00000000323944,0.672936100247528
15400.0000000385,6.88589727936135,1.00000000318774,0.678568159798324
15500.0000000389,6.86456989156745,1.00000000318561,0.662768440417097
15600.0000000392,6.84265882214912,1.00000000313473,0.684374332437155
15700.0000000396,6.8179205253623,1.00000000310199,0.687907937217885
15800.0000000399,6.78884848183892,1.00000000334595,0.66936807351338
15900.0000000403,6.75432537280689,1.00000000340922,0.679223617367306
16000.0000000407,6.71892271798768,1.00000000309654,0.680990331776552
16100.000000041,6.68216232549621,1.00000000319898,0.676578647116959
16200.0000000414,6.64552610465511,1.00000000298289,0.681273210487867
16300.0000000418,6.61020832606732,1.00000000309742,0.677239550282634
16400.0000000418,6.57627552622363,1.0000000031348,0.672276950199159
16500.0000000404,6.54624538108331,1.00000000342618,0.672603968101961
16600.0000000389,6.51926389068127,1.00000000340839,0.66384738081561
16700.0000000375,6.49687787676298,1.00000000367469,0.670698177669064
16800.000000036,6.47836295162351,1.00000000384838,0.690417381988767
16900.0000000346,6.46313650153719,1.00000000369239,0.696379343493067
17000.0000000331,6.4481147268529,1.00000000351802,0.692250536439034
17100.0000000317,6.42856145672131,1.00000000357327,0.684047525140353
17200.0000000302,6.40338656617984,1.00000000342709,0.667805997243722
17300.0000000287,6.37200580508111,1.00000000293225,0.647526411575647
17400.0000000273,6.34180903069832,1.00000000279493,0.626072367570923
17500.0000000258,6.32928279169503,1.00000000281442,0.604520272077503
17600.0000000244,6.34936447090638,1.00000000256773,0.58232593245165
17700.0000000229,6.42370115300726,1.00000000256564,0.565532570790097
17800.0000000215,6.55995036548547,1.00000000243029,0.556659108856328
17900.00000002,6.77612543949796,1.00000000267463,0.556150412684062
18000.0000000186,7.04113618580489,1.00000000292338,0.553610172037214
18100.0000000171,7.36515844373979,1.00000000304712,0.553004906960595
18200.0000000156,7.68741698346529,1.00000000346416,0.553812256202482
18300.0000000142,8.0414709338308,1.00000000343915,0.560668681916336
18400.0000000127,8.37351838352152,1.00000000355582,0.572477079272606
18500.0000000113,8.71299618256039,1.00000000357317,0.5706276634646
18600.0000000098,9.03757463010824,1.00000000333472,0.577846500725826
18700.0000000084,9.35640921540205,1.00000000312922,0.570385972604252
18800.0000000069,9.67060837499694,1.00000000363164,0.592772170989529
18900.0000000055,9.97009476514581,1.0000000033362,0.589697308465993
19000.000000004,10.2764920912334,1.00000000336373,0.610897356109383
19100.0000000026,10.5655956960022,1.00000000351706,0.612639909211441
19200.0000000011,10.8508345245868,1.00000000376417,0.643296833615418
19299.9999999996,11.126187085147,1.0000000033189,0.648576522715384
19399.9999999982,11.3907692578954,1.00000000359453,0.646488110841971
19499.9999999967,11.6443244485648,1.00000000341669,0.664686617582543
19599.9999999953,11.884377815068,1.00000000400199,0.649917172079058
19699.9999999938,12.1221872145751,1.00000000369929,0.656081869357374
19799.9999999924,12.3346702609725,1.0000000035408,0.671606739062503
19899.9999999909,12.5424660987655,1.000000004196,0.659870876361574
19999.9999999895,12.7317345844949,1.0000000036859,0.656764946201685
20099.999999988,12.9178535574217,1.00000000391339,0.681170786023033
20199.9999999865,13.0976802316271,1.00000000350923,0.67847677269352
20299.9999999851,13.2628772004242,1.00000000372526,0.682023407183723
20399.9999999836,13.419660255964,1.00000000402908,0.691907177188573
20499.9999999822,13.5602972978782,1.00000000342475,0.670180057015897
20599.9999999807,13.7006253661262,1.00000000403324,0.696783102147521
20699.9999999793,13.8352546232283,1.00000000335335,0.688784229569659
20799.9999999778,13.9684678012639,1.00000000357639,0.694851379248858
20899.9999999764,14.0922212632542,1.00000000368258,0.693982549130617
20999.9999999749,14.2001773158528,1.00000000374559,0.69742738050819
21099.9999999734,14.3053082118062,1.00000000322664,0.685511573799082
21199.999999972,14.4094177218325,1.00000000389561,0.711573770708253
21299.9999999705,14.5203995103368,1.00000000369341,0.695331138587892
21399.9999999691,14.6343174018844,1.00000000369827,0.690087492462498
21499.9999999676,14.7478710215139,1.00000000356109,0.704281508720713
21599.9999999662,14.8578968635251,1.00000000346596,0.708140922662978
21699.9999999647,14.9616907063282,1.00000000364807,0.69415067024364
21799.9999999633,15.059034067465,1.00000000416014,0.682707439914091
21899.9999999618,15.159396117148,1.00000000359542,0.676793818493056
21999.9999999603,15.2598384446384,1.00000000358124,0.684919840558329
22099.9999999589,15.3587561193522,1.00000000388971,0.695370705972668
22199.9999999574,15.4555913306823,1.00000000403866,0.697130883829075
22299.999999956,15.5509515024643,1.00000000378815,0.676416518616434
22399.9999999545,15.6500320723001,1.00000000389237,0.686542505771534
22499.9999999531,15.754284168526,1.00000000338847,0.691367303263143
22599.9999999516,15.8537169882104,1.00000000366222,0.688682801357704
22699.9999999502,15.9500186832024,1.00000000394102,0.69546786168217
22799.9999999487,16.0474395328244,1.0000000042718,0.684861370678483
22899.9999999473,16.150365558554,1.0000000038901,0.682474567048519
22999.9999999458,16.2564990640374,1.00000000398589,0.697132041829012
23099.9999999443,16.3664887019732,1.00000000386692,0.699613084603187
23199.9999999429,16.4799247975079,1.00000000430047,0.687107525336425
23299.9999999414,16.6024114785635,1.00000000418953,0.684997866025978
23399.99999994,16.7262739982652,1.00000000391722,0.68554802077473
23499.9999999385,16.8476990573114,1.00000000383966,0.692633028955249
23599.9999999371,16.9701285431362,1.00000000438355,0.699731118047979
23699.9999999356,17.0867707585092,1.00000000422808,0.675432190672381
23799.9999999342,17.1952331355964,1.00000000435783,0.686446723469271
23899.9999999327,17.2927632000392,1.00000000408736,0.68778922292612
23999.9999999312,17.3934568274019,1.00000000381899,0.673813711207839
24099.9999999298,17.5172565294097,1.00000000391527,0.687491550753209
24199.9999999283,17.6451635545532,1.00000000413092,0.698356109305494
24299.9999999269,17.7753585875731,1.00000000420984,0.693248735455399
24399.9999999254,17.9024136905395,1.00000000395936,0.708332499124022
24499.999999924,18.0261479899677,1.0000000039954,0.686584369558054
24599.9999999225,18.1517858537694,1.00000000432248,0.707829126470801
24699.9999999211,18.2716619862563,1.0000000042947,0.71896728501634
24799.9999999196,18.3888326016546,1.00000000362438,0.681692220876295
24899.9999999181,18.51490090705,1.00000000386103,0.672198105497734
24999.9999999167,18.6408494812778,1.00000000384983,0.688904935157479
25099.9999999152,18.7634646675202,1.0000000041609,0.682198230883999
25199.9999999138,18.8830410860986,1.00000000435555,0.688469539220298
25299.9999999123,18.991707472568,1.00000000474503,0.702442622759149
25399.9999999109,19.0920287143194,1.00000000458912,0.701856294326835
25499.9999999094,19.1985776134774,1.00000000454768,0.694694973266764
25599.999999908,19.3170649623398,1.00000000397974,0.698801766065866
25699.9999999065,19.4471629570751,1.00000000430578,0.691209106022094
25799.9999999051,19.5958177654342,1.00000000356112,0.669446417539139
25899.9999999036,19.7610585307517,1.00000000383907,0.692946439827634
25999.9999999021,19.9337044487771,1.00000000445948,0.688575944936667
26099.9999999007,20.1158266150659,1.00000000472797,0.680743049545397
26199.9999998992,20.3041266985062,1.00000000409771,0.658565387128541
26299.9999998978,20.4956151523254,1.00000000484284,0.681431260396946
26399.9999998963,20.679368868826,1.00000000455446,0.682475909556438
26499.9999998949,20.8601321702951,1.00000000417742,0.69867200243577
26599.9999998934,21.0320467707363,1.00000000441934,0.690519730991582
26699.999999892,21.196465249221,1.00000000448721,0.702767662882469
26799.9999998905,21.3646201666747,1.00000000451609,0.69362082758078
26899.999999889,21.5299815083487,1.0000000045954,0.713066652002809
26999.9999998876,21.6986519339794,1.0000000041525,0.698706041182909
27099.9999998861,21.8776033277016,1.00000000447464,0.695754904083846
27199.9999998847,22.0678828646438,1.00000000440391,0.693518827056187
27299.9999998832,22.2660940504252,1.00000000473964,0.689798133760961
27399.9999998818,22.4761471329657,1.00000000435732,0.681149232111638
27499.9999998803,22.6889617469487,1.00000000468049,0.68682187627911
27599.9999998789,22.8990563249117,1.00000000478152,0.701919768589475
27699.9999998774,23.1018742844952,1.00000000483641,0.708431014187052
27799.9999998759,23.3033388123085,1.0000000043559,0.689996867814434
27899.9999998745,23.5031381862634,1.0000000043162,0.703163131607221
27999.999999873,23.7003618949687,1.00000000503057,0.686556697283909
28099.9999998716,23.8908725345786,1.00000000410822,0.693295725431767
28199.9999998701,24.0867527193902,1.00000000461132,0.688334511020828
28299.9999998687,24.2964485719154,1.00000000456994,0.695782157331854
28399.9999998672,24.5189068907231,1.00000000461475,0.703034508810426
28499.9999998658,24.7429181419723,1.00000000413792,0.702360891964352
28599.9999998643,24.9625995825022,1.00000000512491,0.712730238988966
28699.9999998629,25.1781527338597,1.00000000465852,0.714722318724361
28799.9999998614,25.3996993884724,1.00000000462353,0.697952121152515
28899.9999998599,25.6285092374269,1.00000000447546,0.696382117840714
28999.9999998585,25.8584001102837,1.00000000482719,0.707753939496224
29099.999999857,26.0882178973202,1.00000000497843,0.69689486021369
