Time,AGPnorm,Energy,Entropy
0,0,1,-1.28137060152596e-17
99.9999999999986,5.13471516291207e-05,1.00000000000226,0.00195887037622086
199.999999999993,0.00445043350859011,1.00000000000054,0.00311060373613399
300,0.0110513920253036,1.00000000000105,0.00552393122209857
400.000000000022,0.0154356321703657,1.00000000000205,0.00922683592619967
500.000000000045,0.0189299784096297,0.999999999999857,0.0124528334575757
600.000000000068,0.0264949370179232,1.00000000000216,0.0172253078733524
700.000000000091,0.0327481702867378,1.00000000000077,0.021920072337953
800.000000000113,0.0422288030664911,1.00000000000084,0.0271030355025065
900.000000000136,0.0527365002360328,1.00000000000224,0.0330994241216159
1000.00000000016,0.0609155537916756,0.999999999999726,0.0389670323416803
1100.0000000001,0.0713488560311666,1.00000000000204,0.0457197406742327
1200,0.0833176019799236,1.00000000000116,0.0527107564397517
1299.99999999991,0.0959518697926303,1.00000000000057,0.060160915148185
1399.99999999982,0.108983570589971,1.00000000000228,0.0682670171716822
1499.99999999973,0.121003947965933,0.999999999999697,0.0764942585228291
1599.99999999964,0.134127822580552,1.00000000000189,0.0855793610011934
1699.99999999955,0.148924994948218,1.00000000000162,0.0952100315937038
1799.99999999946,0.16288517855296,1.00000000000028,0.105493742925799
1899.99999999937,0.176399028086383,1.0000000000023,0.116676269238726
1999.99999999928,0.190436871288363,0.999999999999913,0.128521305655922
2099.99999999919,0.205012463415144,1.00000000000191,0.141879150826925
2199.99999999909,0.220220708886473,1.00000000000337,0.156804685916666
2299.999999999,0.233971790665963,1.00000000000649,0.173471485173273
2399.99999999891,0.247693921448279,1.00000000002179,0.192472851217662
2499.99999999882,0.259850839854146,1.00000000005189,0.2131871545678
2599.99999999873,0.277433232144126,1.00000000010185,0.235420348460717
2699.99999999864,0.293904972245006,1.00000000016665,0.258102062353907
2799.99999999855,0.311287750970766,1.00000000026778,0.280091795522943
2899.99999999846,0.353398350829989,1.00000000036756,0.302020634155645
2999.99999999837,0.398082679857999,1.00000000047949,0.323081206915668
3099.99999999828,0.490593761726733,1.00000000057989,0.343768150645176
3199.99999999819,0.630607606699103,1.00000000068352,0.36343739820706
3299.99999999809,0.823850185684837,1.00000000074811,0.382257597743989
3399.999999998,1.12661531585369,1.00000000090497,0.400116290208966
3499.99999999791,1.51780955021231,1.00000000099607,0.416981861194452
3599.99999999782,2.04917833369527,1.00000000114641,0.432850361637302
3699.99999999773,2.7344004684129,1.00000000111675,0.447939160424627
3799.99999999764,3.57697570644292,1.00000000122349,0.46169954581004
3899.99999999755,4.61722575421803,1.0000000012968,0.474975035509152
3999.99999999746,5.84677017310996,1.00000000132266,0.486869143332215
4099.99999999738,7.29364178103767,1.00000000138096,0.498232410107452
4199.99999999775,8.95233560224103,1.00000000149433,0.508468463499436
4299.99999999811,10.8346912385646,1.00000000146538,0.517769554190829
4399.99999999848,12.9389925187146,1.00000000145516,0.527025809330424
4499.99999999884,15.2543691618834,1.00000000145797,0.534736397690785
4599.9999999992,17.8003469336492,1.00000000152051,0.542145933412132
4699.99999999957,20.5323541683422,1.00000000157487,0.549133723426252
4799.99999999993,23.4720066664034,1.00000000148479,0.555137887950903
4900.00000000029,26.5965999415236,1.00000000160494,0.560823154121679
5000.00000000066,29.8728323320618,1.0000000015839,0.565959215405198
5100.00000000102,33.331523308297,1.0000000015421,0.570367449625477
5200.00000000139,36.9024332542135,1.00000000147348,0.575356104046925
5300.00000000175,40.6030415719368,1.00000000151658,0.578662525745229
5400.00000000211,44.4193269264839,1.00000000152992,0.582135759045387
5500.00000000248,48.2935611460547,1.00000000151582,0.585543811925929
5600.00000000284,52.2682163931092,1.0000000014852,0.587758819093836
5700.00000000321,56.2725162154824,1.00000000145366,0.590624688915754
5800.00000000357,60.3086786007125,1.00000000146598,0.592422779262078
5900.00000000393,64.3838253478578,1.00000000146966,0.594123844063094
6000.0000000043,68.4290751336034,1.00000000140111,0.596334999105627
6100.00000000466,72.487689531925,1.00000000138919,0.596964446678439
6200.00000000502,76.50687261537,1.00000000136668,0.598664071578525
6300.00000000539,80.4723982781889,1.00000000138448,0.599753010036717
6400.00000000575,84.4083616509488,1.00000000134206,0.599933241394252
6500.00000000612,88.2500297289676,1.00000000133014,0.600876383405729
6600.00000000648,92.0329613011225,1.00000000136219,0.600852023185834
6700.00000000684,95.7262736981994,1.00000000130908,0.601575606291506
6800.00000000721,99.3072651519716,1.00000000127569,0.602054170501717
6900.00000000757,102.807792187998,1.00000000125979,0.601703491858848
7000.00000000793,106.174678504924,1.00000000125066,0.602666181939686
7100.0000000083,109.43429025189,1.00000000123876,0.601538012453918
7200.00000000866,112.573869914892,1.0000000011908,0.601804551071153
7300.00000000903,115.569174616151,1.00000000119162,0.601623249115269
7400.00000000939,118.452712775003,1.0000000011991,0.601042391700017
7500.00000000975,121.184531399067,1.00000000115239,0.601061284413325
7600.00000001012,123.785971661092,1.00000000113213,0.60040901649207
7700.00000001048,126.252094604698,1.00000000109457,0.600663560001353
7800.00000001084,128.564847893723,1.00000000107063,0.599739916707803
7900.00000001121,130.751446907409,1.00000000107852,0.599801103170341
8000.00000001157,132.788174964563,1.00000000104548,0.598329650770107
8100.00000001194,134.686184445567,1.00000000100463,0.599757394046648
8200.0000000123,136.452807913216,1.00000000098154,0.596812464714308
8300.00000001266,138.069047239788,1.00000000101582,0.599183546929162
8400.00000001303,139.562075867602,1.00000000097197,0.595539979434442
8500.00000001339,140.913619126244,1.00000000102446,0.59789538243321
8600.00000001376,142.133908854047,1.00000000095097,0.595047437502261
8700.00000001412,143.230929934842,1.00000000094986,0.59675092002146
8800.00000001448,144.193203719781,1.00000000091003,0.594894948864
8900.00000001485,145.04021238708,1.0000000009136,0.595072840179367
9000.00000001521,145.765069860995,1.00000000088167,0.595040589788335
9100.00000001557,146.371804906249,1.00000000087874,0.593518094512464
9200.00000001594,146.872835131511,1.00000000086925,0.594767037370134
9300.0000000163,147.260053854241,1.00000000086928,0.593826714166466
9400.00000001667,147.549432170655,1.0000000008516,0.59152465404257
9500.00000001703,147.738252362323,1.00000000084268,0.595559341779488
9600.00000001739,147.83512442966,1.00000000084018,0.590744459304808
9700.00000001776,147.843610807386,1.00000000083407,0.590445335432754
9800.00000001812,147.767334102779,1.00000000087719,0.594999048862778
9900.00000001848,147.62007573258,1.00000000078531,0.585511972506979
10000.0000000188,147.392666974607,1.00000000082881,0.589725510910368
10100.0000000192,147.102817815883,1.00000000088232,0.593115798096458
10200.0000000196,146.755511018197,1.00000000078767,0.580324263885158
10300.0000000199,146.340913141618,1.00000000086323,0.585439659935118
10400.0000000203,145.884174897869,1.00000000088013,0.589976539504648
10500.0000000207,145.381201788933,1.00000000081267,0.577144516524193
10600.000000021,144.825790510072,1.00000000080807,0.579053822971445
10700.0000000214,144.238879946077,1.00000000090108,0.586606912695111
10800.0000000218,143.619325582465,1.00000000085814,0.578952512667833
10900.0000000221,142.961633725605,1.00000000075648,0.569179592110732
11000.0000000225,142.27205523791,1.00000000090005,0.582193753101562
11100.0000000229,141.564634955507,1.00000000092679,0.584492328184032
11200.0000000232,140.832336607407,1.00000000075754,0.562044884527382
11300.0000000236,140.067309691024,1.00000000083359,0.575602503704254
11400.0000000239,139.293184481233,1.00000000094233,0.580629088823438
11500.0000000243,138.509177858756,1.00000000088477,0.572510929198938
11600.0000000247,137.701605867597,1.0000000007758,0.556281673108176
11700.000000025,136.880909867299,1.00000000095095,0.577726829637371
11800.0000000254,136.056569856422,1.00000000095568,0.572152983679847
11900.0000000258,135.227900089132,1.00000000087861,0.565729182758979
12000.0000000261,134.382707282586,1.00000000079947,0.554571970799464
12100.0000000265,133.530666049227,1.00000000093667,0.575021391849089
12200.0000000269,132.682572273148,1.00000000089595,0.562476357340646
12300.0000000272,131.830648072145,1.00000000088174,0.561715182716933
12400.0000000276,130.973228802019,1.00000000084605,0.555221205312503
12500.0000000279,130.113425194369,1.00000000094483,0.566855548363203
12600.0000000283,129.255926583765,1.00000000090671,0.556606517559367
12700.0000000287,128.403038414789,1.00000000090808,0.555561838575207
12800.000000029,127.547140488973,1.00000000086561,0.556020276801042
12900.0000000294,126.693543736906,1.00000000098643,0.560518392831988
13000.0000000298,125.844045833529,1.00000000092001,0.557854334081688
13100.0000000301,124.997880316574,1.00000000092477,0.545788055092522
13200.0000000305,124.157486014756,1.00000000087208,0.549106608890761
13300.0000000309,123.318529799097,1.00000000093796,0.561325726471024
13400.0000000312,122.486776539109,1.00000000096726,0.557596672618624
13500.0000000316,121.65989097382,1.00000000086733,0.548261521944224
13600.0000000319,120.83750443798,1.00000000098684,0.539552797927604
13700.0000000323,120.021982552022,1.00000000086961,0.544264545684425
13800.0000000327,119.211480782141,1.00000000093173,0.563008470819245
13900.000000033,118.409670954608,1.00000000096175,0.559919200232478
14000.0000000334,117.614191283916,1.000000000844,0.541611100180848
14100.0000000338,116.823034301563,1.00000000091019,0.5385655553521
14200.0000000341,116.039309031892,1.00000000088652,0.536216556646352
14300.0000000345,115.262192863935,1.00000000092159,0.553006014012316
14400.0000000349,114.494029961054,1.00000000095956,0.565999190423334
14500.0000000352,113.73423706168,1.0000000009273,0.550583135224515
14600.0000000356,112.980051230159,1.00000000085987,0.535904397223582
14700.0000000359,112.232416853849,1.00000000086205,0.535675116793375
14800.0000000363,111.491641973394,1.00000000091937,0.539034707746815
14900.0000000367,110.759712211888,1.00000000092621,0.550889264538138
15000.000000037,110.036324649063,1.0000000009526,0.564488524028797
15100.0000000374,109.320683437756,1.00000000087945,0.552600608384376
15200.0000000378,108.612903854364,1.00000000084555,0.536483064481483
15300.0000000381,107.911803471507,1.00000000082404,0.533855282905862
15400.0000000385,107.21803248195,1.00000000090147,0.545562963729534
15500.0000000389,106.53290614144,1.00000000089451,0.543177411337853
15600.0000000392,105.856142765465,1.00000000094969,0.557381973080208
15700.0000000396,105.188230837747,1.00000000092715,0.561415631075983
15800.0000000399,104.528103619978,1.00000000085434,0.546865076439865
15900.0000000403,103.875920874154,1.00000000085634,0.537247748227565
16000.0000000407,103.231973769202,1.00000000087486,0.538933522776425
16100.000000041,102.596084513854,1.00000000090364,0.547698587064343
16200.0000000414,101.96867359119,1.00000000087678,0.54981285323602
16300.0000000418,101.349256911955,1.00000000096918,0.552652643647238
16400.0000000418,100.738593040548,1.00000000090554,0.557879138606328
16500.0000000404,100.136682746006,1.00000000083805,0.549821219054937
16600.0000000389,99.5429259606958,1.00000000087969,0.543013158532852
16700.0000000375,98.9576128761168,1.00000000084672,0.538324048288997
16800.000000036,98.3810848445312,1.00000000085042,0.539484837855874
16900.0000000346,97.8126142561946,1.00000000088591,0.556243830653472
17000.0000000331,97.2514649741415,1.0000000008662,0.554702052324855
17100.0000000317,96.698028912038,1.00000000092508,0.548164398492937
17200.0000000302,96.1528530096456,1.00000000087202,0.553645113375398
17300.0000000287,95.6166031016376,1.00000000081731,0.547995283193428
17400.0000000273,95.089408416153,1.00000000085518,0.538704202688896
17500.0000000258,94.5700865667056,1.00000000089425,0.535688804277795
17600.0000000244,94.0594296733263,1.00000000084556,0.537666092264407
17700.0000000229,93.5564327557945,1.00000000091386,0.54731901134923
17800.0000000215,93.0588821523191,1.00000000095259,0.557694040945217
17900.00000002,92.5680450120496,1.00000000088216,0.553978271090867
18000.0000000186,92.0838004528239,1.00000000092952,0.549381332400197
18100.0000000171,91.6070875338135,1.00000000088917,0.547949918240767
18200.0000000156,91.1402121320194,1.0000000008563,0.543907724085391
18300.0000000142,90.6822841199508,1.00000000086252,0.53444073103028
18400.0000000127,90.2327175929107,1.00000000091542,0.53228557719218
18500.0000000113,89.7902384584082,1.00000000089844,0.533750218992743
18600.0000000098,89.3545398905466,1.00000000094528,0.541072643990271
18700.0000000084,88.9236724633236,1.0000000009361,0.548727199325657
18800.0000000069,88.4965195529469,1.00000000094369,0.561562333265398
18900.0000000055,88.0744404449467,1.00000000091508,0.557988110174377
19000.000000004,87.6581320539031,1.00000000087786,0.54640497600774
19100.0000000026,87.2501309592161,1.0000000008539,0.541439233014034
19200.0000000011,86.8518971053554,1.0000000008406,0.540825328704298
19299.9999999996,86.4625820043347,1.00000000085192,0.535742443547271
19399.9999999982,86.0816197854029,1.0000000008855,0.529430207476097
19499.9999999967,85.7069315874364,1.00000000092694,0.531371626218556
19599.9999999953,85.3379860819402,1.00000000087186,0.535186522585274
19699.9999999938,84.9739227881533,1.00000000092445,0.540148588525974
19799.9999999924,84.6113372800494,1.0000000009847,0.551138406003928
19899.9999999909,84.2500286254782,1.0000000009648,0.562755312008404
19999.9999999895,83.8928413434481,1.00000000091096,0.554839898206552
20099.999999988,83.5422287517156,1.00000000085708,0.542903727118143
20199.9999999865,83.1995580259061,1.00000000089537,0.543042105475499
20299.9999999851,82.864840795998,1.00000000087247,0.543538654376899
20399.9999999836,82.5391760944541,1.00000000087142,0.540052104805546
20499.9999999822,82.2214234282985,1.00000000087308,0.53322392164829
20599.9999999807,81.9112172814161,1.00000000086596,0.528248616102878
20699.9999999793,81.606596279358,1.00000000091232,0.533558335187765
20799.9999999778,81.3060551147622,1.00000000092649,0.536819620830115
20899.9999999764,81.0074950241507,1.00000000097625,0.548818238235543
20999.9999999749,80.7082468746887,1.00000000098672,0.54839228130168
21099.9999999734,80.4093532928826,1.0000000010048,0.556036438418788
21199.999999972,80.1139212942152,1.00000000088663,0.555085569082775
21299.9999999705,79.8239569149751,1.00000000087675,0.548019400182104
21399.9999999691,79.5400585343308,1.0000000009053,0.545861547383236
21499.9999999676,79.2630562297946,1.00000000089703,0.548413291621182
21599.9999999662,78.9937235544904,1.00000000086066,0.546532886063975
21699.9999999647,78.7331094159773,1.00000000083884,0.539110342013979
21799.9999999633,78.4803965422649,1.00000000086752,0.535377837741544
21899.9999999618,78.2338753456074,1.0000000008715,0.53581630503951
21999.9999999603,77.9923991973132,1.00000000091599,0.539286298075646
22099.9999999589,77.7547471850003,1.00000000091233,0.541825226893887
22199.9999999574,77.5196112132289,1.00000000094334,0.544290430401269
22299.999999956,77.2840051732694,1.00000000098092,0.546126610413363
22399.9999999545,77.04664916396,1.00000000099261,0.549718478828403
22499.9999999531,76.8097527549789,1.00000000093675,0.557087019016876
22599.9999999516,76.5751023067396,1.00000000089163,0.56165752785944
22699.9999999502,76.3441828635795,1.00000000093766,0.557103262583839
22799.9999999487,76.1178376859362,1.00000000090786,0.551821428713747
22899.9999999473,75.898125642482,1.00000000087888,0.548188860150175
22999.9999999458,75.686019663163,1.0000000008476,0.548319238691482
23099.9999999443,75.4826588443459,1.00000000082559,0.54314748236568
23199.9999999429,75.287866834613,1.00000000085427,0.542525549408089
23299.9999999414,75.0976077194681,1.00000000094848,0.547396828785278
23399.99999994,74.910748968718,1.00000000090101,0.543173855461088
23499.9999999385,74.7282695093882,1.00000000087923,0.54185380829314
23599.9999999371,74.5503808148104,1.00000000090027,0.542931206630059
23699.9999999356,74.3755263290947,1.00000000088582,0.549490811700091
23799.9999999342,74.2011433383326,1.00000000095704,0.549573545087661
23899.9999999327,74.0247618161281,1.00000000099338,0.549227837051382
23999.9999999312,73.8451725333856,1.00000000101023,0.55372654336774
24099.9999999298,73.6650393801398,1.00000000089741,0.560988348198057
24199.9999999283,73.4861196272959,1.00000000091218,0.565972988232329
24299.9999999269,73.3097734284658,1.00000000090439,0.559892896549259
24399.9999999254,73.137643172752,1.00000000092537,0.550845957670284
24499.999999924,72.9716010243966,1.00000000087332,0.547272202580991
24599.9999999225,72.8118339501083,1.00000000087607,0.549008692164143
24699.9999999211,72.6609053550859,1.00000000085958,0.546510842400391
24799.9999999196,72.516783761327,1.00000000085802,0.550683797411635
24899.9999999181,72.3773929722028,1.00000000091086,0.550042856024006
24999.9999999167,72.2406829207801,1.00000000093409,0.549235528818254
25099.9999999152,72.106382831499,1.00000000091023,0.544635279851015
25199.9999999138,71.9772871988522,1.00000000086769,0.545773872316878
25299.9999999123,71.8522123522886,1.00000000088417,0.548142131892323
25399.9999999109,71.7296434376224,1.00000000090848,0.55516011753852
25499.9999999094,71.606646088412,1.00000000092662,0.563954668636734
25599.999999908,71.4818074574919,1.00000000098852,0.558013409563314
25699.9999999065,71.3542091867883,1.00000000099937,0.556767157383093
25799.9999999051,71.2223825702711,1.00000000095511,0.558334767158351
25899.9999999036,71.0894090196173,1.00000000095185,0.564444833018546
25999.9999999021,70.9557453597349,1.00000000096792,0.575069116931871
26099.9999999007,70.8240708339347,1.00000000089092,0.572198754530169
26199.9999998992,70.6966609515391,1.00000000093501,0.564307763159517
26299.9999998978,70.5736259316797,1.00000000091002,0.555475452890863
26399.9999998963,70.4556099035917,1.00000000089195,0.551666503821829
26499.9999998949,70.3431456251251,1.00000000089724,0.555026660658301
26599.9999998934,70.2358639794865,1.00000000089348,0.558690573372814
26699.999999892,70.134308368063,1.00000000092258,0.561032027554587
26799.9999998905,70.036354844161,1.00000000091816,0.557448687344377
26899.999999889,69.9426193395169,1.00000000088994,0.555300388008578
26999.9999998876,69.8525017453546,1.00000000090335,0.55091320193403
27099.9999998861,69.765526446403,1.00000000090727,0.550829178874698
27199.9999998847,69.6818568324408,1.0000000009332,0.558997832904992
27299.9999998832,69.5993460937681,1.00000000093676,0.567008026806223
27399.9999998818,69.5167866508392,1.00000000096782,0.572244956600797
27499.9999998803,69.4322060175802,1.00000000098888,0.5795933381176
27599.9999998789,69.3449683799109,1.00000000096623,0.579114440246611
27699.9999998774,69.2549344337332,1.00000000096022,0.572058876953537
27799.9999998759,69.1624436906904,1.00000000097584,0.570749955350636
27899.9999998745,69.0676077194237,1.0000000009587,0.576832263795134
27999.999999873,68.9715392966895,1.00000000096221,0.576465868696964
28099.9999998716,68.8760114882473,1.00000000090511,0.575952578003512
28199.9999998701,68.7827122238044,1.0000000009174,0.577224206849189
28299.9999998687,68.6927082852522,1.00000000089227,0.581959032604995
28399.9999998672,68.6062745201082,1.00000000092262,0.582141211414154
28499.9999998658,68.5229514432533,1.0000000009338,0.574238070375128
28599.9999998643,68.4417178599808,1.00000000096491,0.572067277253696
28699.9999998629,68.3627454631013,1.00000000097873,0.5723988672241
28799.9999998614,68.2862653883746,1.00000000093042,0.575124081510088
28899.9999998599,68.2141882480846,1.0000000008999,0.566177041412858
28999.9999998585,68.1489292421961,1.00000000084747,0.563441024950035
