Time,AGPnorm,Energy,Entropy
0,0,1,-4.99200630177825e-18
99.9999999999986,0.010891643851218,1.00000000000212,0.0283555728398495
199.999999999993,0.0283805293600718,1.0000000000017,0.0846225788394072
300,0.0547936401721937,1.00000000000999,0.173045342297685
400.000000000022,0.0852543772443083,1.00000000052069,0.316409303927748
500.000000000045,0.226233370529925,1.00000000229383,0.458999797684211
600.000000000068,0.921476415682387,1.00000000333306,0.543057449651217
700.000000000091,2.44826184785287,1.00000000408017,0.579752415283441
800.000000000113,4.54654519543419,1.00000000423665,0.595082094533914
900.000000000136,6.96213782227306,1.00000000377646,0.59214146841788
1000.00000000016,9.18746542296303,1.00000000338536,0.586506766154952
1100.0000000001,11.084504055595,1.00000000305496,0.576118871909493
1200,12.4475465035392,1.00000000273302,0.565637163869911
1299.99999999991,13.3050110504843,1.00000000252307,0.562468453491038
1399.99999999982,13.699201377764,1.00000000247184,0.572781439392621
1499.99999999973,13.7077983781513,1.0000000024081,0.560925485733701
1599.99999999964,13.5079386813701,1.0000000017143,0.492768365063244
1699.99999999955,13.1780087048847,1.00000000296484,0.563625225050101
1799.99999999946,12.7193289579544,1.00000000205641,0.484426678462629
1899.99999999937,12.281805295818,1.00000000266596,0.530954714799546
1999.99999999928,11.7893808229097,1.0000000018905,0.447907978394125
2099.99999999919,11.3201395495133,1.00000000312964,0.564406458770383
2199.99999999909,10.8829585094442,1.00000000158579,0.413491463590015
2299.999999999,10.4370996843397,1.00000000267928,0.510159665209757
2399.99999999891,10.0223080724158,1.0000000029739,0.559298200786628
2499.99999999882,9.65514162499793,1.00000000143378,0.416562232095218
2599.99999999873,9.31278836215592,1.00000000261957,0.501666084486632
2699.99999999864,8.98081008878558,1.00000000236637,0.523303949581212
2799.99999999855,8.66314214449399,1.00000000314078,0.559710149424199
2899.99999999846,8.39118170562192,1.000000001668,0.438445314324144
2999.99999999837,8.18396184508077,1.00000000232313,0.459586608937026
3099.99999999828,7.96163749803475,1.0000000025535,0.541115201803707
3199.99999999819,7.75234887068977,1.00000000234551,0.534667074669371
3299.99999999809,7.53948104078054,1.00000000314877,0.55000619593856
3399.999999998,7.32962010095842,1.000000002655,0.550773860334846
3499.99999999791,7.18407823594757,1.00000000142676,0.435025897834357
3599.99999999782,7.10548702528394,1.00000000216618,0.479010171570962
3699.99999999773,7.00978655043703,1.00000000263279,0.541259251095086
3799.99999999764,6.91298469587281,1.00000000249005,0.555767288485003
3899.99999999755,6.80718536773213,1.00000000256284,0.561541802620804
3999.99999999746,6.68519435939297,1.00000000247338,0.582568917832406
4099.99999999738,6.56240661134685,1.00000000272458,0.572673928691153
4199.99999999775,6.42983922401834,1.00000000298791,0.577421591123577
4299.99999999811,6.31338292664225,1.00000000190817,0.528336409063267
4399.99999999848,6.2800448521523,1.00000000170658,0.457959591019002
4499.99999999884,6.3085485935406,1.00000000251158,0.498382036048052
4599.9999999992,6.3189270204526,1.00000000239101,0.533774011857273
4699.99999999957,6.31538458109817,1.00000000263804,0.57257493979035
4799.99999999993,6.29110689583406,1.00000000264749,0.589785174844959
4900.00000000029,6.25729018233308,1.00000000246716,0.589899573783127
5000.00000000066,6.22692366500968,1.00000000243617,0.595574103950063
5100.00000000102,6.17994543257296,1.00000000277557,0.590914572216539
5200.00000000139,6.11632832567041,1.000000002789,0.604127420594436
5300.00000000175,6.0470940763718,1.00000000237451,0.61240287075012
5400.00000000211,5.97471700221781,1.00000000273297,0.612932171394957
5500.00000000248,5.89513147273243,1.00000000308664,0.621206356301433
5600.00000000284,5.81259505546843,1.00000000307168,0.598797894475532
5700.00000000321,5.73151255595356,1.00000000236882,0.564514157375779
5800.00000000357,5.70128845105482,1.00000000170184,0.500691300082253
5900.00000000393,5.76037740293474,1.00000000180865,0.487624089285612
6000.0000000043,5.8623384186347,1.00000000261529,0.51971669742532
6100.00000000466,5.94769786712938,1.00000000279622,0.555417033503089
6200.00000000502,6.01855013705206,1.00000000290019,0.571024983522278
6300.00000000539,6.0745727078124,1.00000000269782,0.590628377215658
6400.00000000575,6.11049816920746,1.00000000295786,0.616881055131964
6500.00000000612,6.12800883541484,1.0000000027146,0.617037266748914
6600.00000000648,6.13879434330183,1.0000000026586,0.628126306596077
6700.00000000684,6.13394048929773,1.00000000281444,0.632819241839248
6800.00000000721,6.11541027822692,1.00000000289844,0.637757413166625
6900.00000000757,6.10247623757841,1.00000000272216,0.622513536887521
7000.00000000793,6.09863008451371,1.00000000272046,0.61797250673193
7100.0000000083,6.08560914630991,1.0000000029858,0.608618704607797
7200.00000000866,6.06280902742153,1.00000000279157,0.624395980655841
7300.00000000903,6.04048574306482,1.00000000269474,0.631813234280145
7400.00000000939,6.01665235849123,1.00000000292993,0.639132816150055
7500.00000000975,5.9912629660171,1.00000000268421,0.639425017401511
7600.00000001012,5.96295802220649,1.00000000279929,0.620966299209785
7700.00000001048,5.93231426316519,1.00000000290893,0.626099385245124
7800.00000001084,5.88870061515098,1.0000000028381,0.641818294502703
7900.00000001121,5.83795943843133,1.00000000296342,0.651422345440353
8000.00000001157,5.78381213873638,1.00000000263516,0.648283993706129
8100.00000001194,5.72991204025733,1.0000000027727,0.654820561545791
8200.0000000123,5.67773721298712,1.00000000311761,0.659839076320956
8300.00000001266,5.62888915836249,1.00000000320571,0.667924105800188
8400.00000001303,5.57978841623671,1.00000000311083,0.642733453386065
8500.00000001339,5.52489107786739,1.00000000302496,0.611326562482271
8600.00000001376,5.47650430051899,1.00000000247024,0.570217227067882
8700.00000001412,5.47031593194021,1.00000000179984,0.523090055732912
8800.00000001448,5.53667104505448,1.00000000198074,0.510388337804374
8900.00000001485,5.67007353702153,1.00000000255892,0.523013064746291
9000.00000001521,5.83003324127176,1.00000000272395,0.537220656593099
9100.00000001557,5.98189898901582,1.00000000310445,0.560946966208865
9200.00000001594,6.12256958202022,1.00000000311413,0.566271699834586
9300.0000000163,6.24963324385952,1.00000000276893,0.580537631980618
9400.00000001667,6.36094675155505,1.00000000295427,0.599250804763266
9500.00000001703,6.4510593192771,1.00000000288394,0.600519112388048
9600.00000001739,6.52773197650938,1.0000000030718,0.630572394458806
9700.00000001776,6.59101297550429,1.00000000290766,0.635465420050251
9800.00000001812,6.64535493317911,1.00000000296302,0.624393120233911
9900.00000001848,6.69365507912131,1.0000000030652,0.642952449993893
10000.0000000188,6.73048803673755,1.00000000298515,0.660860746899063
10100.0000000192,6.75587447497386,1.00000000297641,0.665454956851633
10200.0000000196,6.77645763982474,1.00000000314156,0.657142358202204
10300.0000000199,6.79405244728312,1.00000000270354,0.656587072970683
10400.0000000203,6.80254871832702,1.00000000309092,0.670834121088903
10500.0000000207,6.80881138816651,1.00000000276272,0.670739216640202
10600.000000021,6.81389738030657,1.00000000308451,0.670422019617958
10700.0000000214,6.80762560371653,1.00000000353757,0.668176161423404
10800.0000000218,6.79834285458514,1.00000000340323,0.662908857724381
10900.0000000221,6.78456016935375,1.00000000297014,0.657506252702941
11000.0000000225,6.76800151088849,1.00000000308749,0.67648787840992
11100.0000000229,6.7457564489494,1.00000000315607,0.672171402072467
11200.0000000232,6.71859733804336,1.00000000304088,0.679003394162956
11300.0000000236,6.69550859361217,1.00000000302294,0.663520157897692
11400.0000000239,6.68087140647381,1.00000000297149,0.64907649725909
11500.0000000243,6.67939228450382,1.00000000276007,0.622957867380623
11600.0000000247,6.69178828025529,1.00000000279011,0.62302575674129
11700.000000025,6.70849287513833,1.00000000338049,0.626952036054929
11800.0000000254,6.71867609387899,1.00000000296416,0.620031995579364
11900.0000000258,6.72465224895514,1.0000000033389,0.641179399146476
12000.0000000261,6.72678920502436,1.00000000301782,0.646015713118938
12100.0000000265,6.7297341416224,1.0000000031584,0.654174365280429
12200.0000000269,6.72492461229248,1.00000000342966,0.6442144983273
12300.0000000272,6.72350428355482,1.00000000297158,0.658693756777749
12400.0000000276,6.72469393556189,1.00000000320257,0.662299134992078
12500.0000000279,6.72262614236691,1.00000000354415,0.662484433802625
12600.0000000283,6.71430277365433,1.00000000344023,0.663724736585891
12700.0000000287,6.70853586932597,1.00000000310278,0.660545114611291
12800.000000029,6.70442173243273,1.00000000335121,0.6596791983965
12900.0000000294,6.70660729787739,1.00000000300088,0.651637472148664
13000.0000000298,6.71523439050159,1.00000000306093,0.646984272219875
13100.0000000301,6.71998992579347,1.00000000334109,0.674602910701916
13200.0000000305,6.7238406176763,1.00000000318864,0.662886234544896
13300.0000000309,6.7297426802187,1.00000000329401,0.674929764998072
13400.0000000312,6.73604504851001,1.00000000344014,0.667741379623027
13500.0000000316,6.74142190445833,1.00000000323459,0.660724360575677
13600.0000000319,6.74255769036298,1.00000000342686,0.691520398087379
13700.0000000323,6.73962552654428,1.00000000327432,0.676211776655174
13800.0000000327,6.74171526965704,1.00000000316225,0.6819961719753
13900.000000033,6.73796188283587,1.0000000032305,0.682859239429692
14000.0000000334,6.73613886556906,1.00000000363348,0.693409373637755
14100.0000000338,6.73392258367828,1.00000000298725,0.669735175053795
14200.0000000341,6.72975860372764,1.00000000362505,0.668464114143002
14300.0000000345,6.71886213958491,1.00000000355199,0.668734139192803
14400.0000000349,6.71194905862054,1.00000000317208,0.665733269018139
14500.0000000352,6.70609711331641,1.00000000384975,0.671743939276409
14600.0000000356,6.70119731559129,1.00000000313894,0.663884125895797
14700.0000000359,6.69616659241467,1.00000000374357,0.682629836234048
14800.0000000363,6.68593163121042,1.00000000371224,0.682696999610343
14900.0000000367,6.67200841541242,1.00000000367156,0.681603356286067
15000.000000037,6.65746566642747,1.00000000320591,0.680846090890864
15100.0000000374,6.64337330898166,1.00000000301823,0.67630168219095
15200.0000000378,6.62851449705675,1.00000000368857,0.685378974770519
15300.0000000381,6.60832931043551,1.00000000376833,0.682234422819558
15400.0000000385,6.58560070417472,1.00000000334823,0.676787361209076
15500.0000000389,6.56257528325772,1.00000000360403,0.687678414827531
15600.0000000392,6.53510394224215,1.000000003972,0.681295219398085
15700.0000000396,6.50232488462263,1.0000000037829,0.684133439859276
15800.0000000399,6.46781389017464,1.00000000378806,0.689485050405666
15900.0000000403,6.43217817345257,1.00000000356745,0.692255396715013
16000.0000000407,6.39619140648381,1.000000003553,0.689666334544219
16100.000000041,6.36079557983426,1.00000000346152,0.696749624544868
16200.0000000414,6.32613551398069,1.00000000356614,0.680525062837245
16300.0000000418,6.2950890370823,1.00000000383722,0.687213509803875
16400.0000000418,6.26720847874845,1.00000000368188,0.678669761334997
16500.0000000404,6.2448286092954,1.0000000039719,0.690909169681506
16600.0000000389,6.22475746324182,1.00000000397415,0.700728739274917
16700.0000000375,6.20755916333241,1.00000000383576,0.70293306931294
16800.000000036,6.18855724986311,1.00000000405761,0.694495634556343
16900.0000000346,6.16611921670077,1.00000000377654,0.67366140117608
17000.0000000331,6.13841838785848,1.00000000414802,0.659859057476361
17100.0000000317,6.10854987496971,1.00000000309866,0.636906611452537
17200.0000000302,6.08480498803163,1.00000000336255,0.621877815442755
17300.0000000287,6.08656471745222,1.00000000323431,0.605725077576939
17400.0000000273,6.13018183902944,1.00000000301806,0.585388652990608
17500.0000000258,6.23725543684698,1.00000000283278,0.580837751182227
17600.0000000244,6.41016754546789,1.00000000317851,0.572977318701984
17700.0000000229,6.66459466976843,1.0000000034401,0.571728301288943
17800.0000000215,6.96246122060227,1.00000000320164,0.568055047522028
17900.00000002,7.3198223589296,1.00000000347924,0.574822862568707
18000.0000000186,7.6685527891373,1.00000000408432,0.574058898262644
18100.0000000171,8.0405578831503,1.00000000416377,0.583266780880342
18200.0000000156,8.3826620923148,1.00000000392502,0.593622642659334
18300.0000000142,8.73053867750564,1.00000000378155,0.593913680193595
18400.0000000127,9.06038436699218,1.00000000405173,0.595191779693634
18500.0000000113,9.38109959892223,1.00000000381008,0.591756210640965
18600.0000000098,9.7012088950692,1.00000000373867,0.599273760511319
18700.0000000084,10.009797084938,1.00000000394692,0.602019434994402
18800.0000000069,10.3247739873666,1.00000000404182,0.620277813432969
18900.0000000055,10.62233632725,1.00000000384437,0.633745969290825
19000.000000004,10.9112650186899,1.00000000425831,0.650157763927437
19100.0000000026,11.186591723158,1.00000000394565,0.66783043420541
19200.0000000011,11.4524262793512,1.00000000434084,0.664420180986138
19299.9999999996,11.7126724912921,1.00000000384834,0.67193020113986
19399.9999999982,11.9666591435234,1.00000000392864,0.655044702201014
19499.9999999967,12.2250288606776,1.00000000424879,0.662326004894749
19599.9999999953,12.458428005151,1.00000000392046,0.666521159072353
19699.9999999938,12.6932246035455,1.00000000428051,0.659747543314631
19799.9999999924,12.9115498779181,1.00000000397172,0.662262654467282
19899.9999999909,13.1228766514219,1.00000000371795,0.67406605282633
19999.9999999895,13.3325341010241,1.00000000390804,0.671211661509043
20099.999999988,13.5232808962129,1.0000000042475,0.685401939083523
20199.9999999865,13.7061355059114,1.00000000370491,0.685549296951529
20299.9999999851,13.879257119706,1.0000000044106,0.683074404723213
20399.9999999836,14.0450058368841,1.00000000432097,0.6781714894442
20499.9999999822,14.1956815999385,1.00000000456541,0.699861121788316
20599.9999999807,14.3445971778274,1.00000000382135,0.702803027209576
20699.9999999793,14.4923249166777,1.00000000404665,0.697053480866426
20799.9999999778,14.6208918810141,1.0000000046083,0.699804053418111
20899.9999999764,14.7443321298337,1.00000000410407,0.706631678196214
20999.9999999749,14.8640953858098,1.00000000384255,0.713191327284885
21099.9999999734,15.0043016660025,1.00000000371793,0.695881515640863
21199.999999972,15.1569479053714,1.00000000398532,0.706971919881121
21299.9999999705,15.299217553604,1.00000000495316,0.695803935629583
21399.9999999691,15.4232772842245,1.00000000440702,0.701706625177983
21499.9999999676,15.5326770557413,1.00000000396383,0.707112886757158
21599.9999999662,15.6460559031914,1.00000000389004,0.689265716429174
21699.9999999647,15.7690914102415,1.0000000038901,0.693856684606019
21799.9999999633,15.9017230057247,1.00000000432185,0.707123686669203
21899.9999999618,16.0278672634458,1.00000000452385,0.717418039968544
21999.9999999603,16.1418948346001,1.00000000461737,0.719306422705904
22099.9999999589,16.2487915333033,1.00000000442576,0.71983979494965
22199.9999999574,16.3598536435927,1.00000000402545,0.703715014450725
22299.999999956,16.4816254136819,1.00000000400749,0.677430267836081
22399.9999999545,16.6102572592868,1.00000000451428,0.69897762116968
22499.9999999531,16.7286456772131,1.00000000466958,0.700062677083566
22599.9999999516,16.8403299737094,1.00000000434147,0.703286433398204
22699.9999999502,16.9594777382547,1.00000000439077,0.690967836864072
22799.9999999487,17.082648533943,1.00000000450993,0.699660950473441
22899.9999999473,17.2055189375706,1.00000000459109,0.711873468383612
22999.9999999458,17.3292578282718,1.00000000424511,0.690392720410546
23099.9999999443,17.4609208618115,1.00000000431213,0.688550347844951
23199.9999999429,17.5910354898803,1.00000000453397,0.694581540860845
23299.9999999414,17.7197688818828,1.00000000463567,0.70276191090835
23399.99999994,17.8354786177244,1.00000000441521,0.709448470791283
23499.9999999385,17.9480027161502,1.00000000419938,0.693549901980465
23599.9999999371,18.0597775586166,1.00000000411038,0.686959838983675
23699.9999999356,18.1829896107585,1.00000000455445,0.674403360558614
23799.9999999342,18.3131662835015,1.00000000468705,0.680170637805538
23899.9999999327,18.4479752164138,1.00000000456527,0.669406621304349
23999.9999999312,18.5880807033289,1.00000000427788,0.679801434264238
24099.9999999298,18.7281313560525,1.00000000445048,0.695241892034164
24199.9999999283,18.8682653650654,1.00000000428385,0.696564878072351
24299.9999999269,19.0037500119223,1.00000000468331,0.696745780121742
24399.9999999254,19.1307698193405,1.00000000437243,0.694368854870868
24499.999999924,19.2531461848963,1.00000000449953,0.708233416836004
24599.9999999225,19.3786982686572,1.00000000469665,0.705082148304363
24699.9999999211,19.506666439443,1.00000000464139,0.697439485313685
24799.9999999196,19.642761822614,1.00000000464101,0.677038464577202
24899.9999999181,19.7862113514876,1.00000000479047,0.692678336089477
24999.9999999167,19.9134726823762,1.00000000514871,0.71267523821743
25099.9999999152,20.0298376322421,1.00000000443856,0.699975770697569
25199.9999999138,20.1420779096076,1.00000000499409,0.717990181093337
25299.9999999123,20.2588787743465,1.00000000466139,0.713564398582725
25399.9999999109,20.3804003129115,1.00000000478725,0.71064269808638
25499.9999999094,20.5166680216788,1.00000000448541,0.704582038256689
25599.999999908,20.6676153605253,1.00000000464578,0.703061017321566
25699.9999999065,20.8354799739532,1.00000000469656,0.697638845533924
25799.9999999051,21.0260524830816,1.00000000450965,0.704545120809324
25899.9999999036,21.2278329831437,1.00000000493134,0.719701356303357
25999.9999999021,21.4267602172384,1.00000000458073,0.713143791229233
26099.9999999007,21.6262685703638,1.00000000474812,0.717780043955297
26199.9999998992,21.8124648423677,1.00000000466254,0.720205404350869
26299.9999998978,21.9928467912635,1.00000000475982,0.70186350471217
26399.9999998963,22.1852355854754,1.00000000465582,0.69196136192441
26499.9999998949,22.383650379592,1.00000000554519,0.707413845303392
26599.9999998934,22.5717825784717,1.00000000522262,0.706796002505727
26699.999999892,22.7544246186869,1.00000000526074,0.69708304274761
26799.9999998905,22.9467221878546,1.00000000531219,0.699776038872445
26899.999999889,23.1328790408898,1.00000000489198,0.712232259966688
26999.9999998876,23.3161527408654,1.00000000501179,0.699108696644313
27099.9999998861,23.5200553071545,1.0000000045381,0.682683358182501
27199.9999998847,23.7455059191075,1.00000000497855,0.702160900301839
27299.9999998832,23.9771052387607,1.00000000528501,0.721445194601158
27399.9999998818,24.1940286092208,1.0000000057634,0.722841907938774
27499.9999998803,24.4037947204191,1.00000000526772,0.71543136837755
27599.9999998789,24.618664706486,1.00000000501915,0.691039816638756
27699.9999998774,24.8391488627385,1.00000000442443,0.707919024231412
27799.9999998759,25.0539033313418,1.0000000052434,0.712262618154821
27899.9999998745,25.2627195328244,1.00000000496041,0.70973468983341
27999.999999873,25.475634185162,1.00000000520613,0.714785951250806
28099.9999998716,25.6924919842402,1.00000000497973,0.710755728993379
28199.9999998701,25.9174409410614,1.00000000466246,0.700658833083081
28299.9999998687,26.1496662683992,1.00000000489459,0.710701045106081
28399.9999998672,26.3870243270206,1.00000000547852,0.700722696730386
28499.9999998658,26.6241983005084,1.00000000526342,0.702386637067383
28599.9999998643,26.8535370680418,1.00000000585332,0.716971270463528
28699.9999998629,27.0751213111394,1.00000000494438,0.714020148646374
28799.9999998614,27.293123460738,1.00000000496862,0.7105330764302
28899.9999998599,27.5120256290905,1.00000000530409,0.70456116629941
28999.9999998585,27.7413560400185,1.00000000498095,0.701725175750171
29099.999999857,27.9772912245926,1.00000000531489,0.704619250105626
