Time,AGPnorm,Energy,Entropy
0,0,1,-1.17725924015198e-17
99.9999999999986,2.01466026614095e-05,0.99999999999971,0.0008644350690513
199.999999999993,0.00174483956051522,1.0000000000002,0.00137756947044194
300,0.00424484160142567,0.999999999999787,0.00242882573442588
400.000000000022,0.00590769575379572,0.999999999999959,0.00415742979745616
500.000000000045,0.00732089384337336,1.00000000000006,0.00555496476162745
600.000000000068,0.0104276694659844,0.999999999999716,0.00776698119934649
700.000000000091,0.0127625680581154,1.0000000000001,0.00996327666538363
800.000000000113,0.0164620523510752,0.999999999999938,0.0122561052289119
900.000000000136,0.0208155519870869,0.999999999999883,0.0150906400959262
1000.00000000016,0.0241500537528091,1.00000000000002,0.0177185244707157
1100.0000000001,0.0286549195294752,0.999999999999779,0.0208071398873416
1200,0.0335754747910434,1.00000000000003,0.024036950451719
1299.99999999991,0.0391290147717703,1.00000000000005,0.0272480670110374
1399.99999999982,0.0450944776163233,0.999999999999834,0.0309104284286466
1499.99999999973,0.0502068831736902,0.999999999999907,0.0344830441599284
1599.99999999964,0.0562239358736955,0.999999999999906,0.0383286085780653
1699.99999999955,0.0631240078111275,1.00000000000002,0.0424221257022981
1799.99999999946,0.0700931434607373,1.00000000000008,0.0464885510814968
1899.99999999937,0.0771263263084305,0.99999999999979,0.0509146873945205
1999.99999999928,0.0838397422726428,0.999999999999786,0.0553643381258769
2099.99999999919,0.0913139986650923,1.00000000000007,0.0600021502669031
2199.99999999909,0.0995937687598043,1.00000000000004,0.0649729073942691
2299.999999999,0.107369426318585,0.999999999999997,0.0699451674968761
2399.99999999891,0.115016458915262,0.999999999999788,0.0752209935806408
2499.99999999882,0.12303969577511,0.999999999999738,0.0806433661714342
2599.99999999873,0.13172404062562,1.00000000000021,0.0862622705264257
2699.99999999864,0.140704387375082,1.00000000000005,0.0922794679186445
2799.99999999855,0.148881011187835,0.999999999999805,0.0983651881166286
2899.99999999846,0.156896076147053,0.999999999999893,0.104764420240299
2999.99999999837,0.165827838202031,0.999999999999821,0.111496233889703
3099.99999999828,0.175150135266907,1.00000000000025,0.118524817345173
3199.99999999819,0.184159923699528,1.00000000000002,0.126061081834846
3299.99999999809,0.192443241400743,0.99999999999968,0.133850915053051
3399.999999998,0.200819422768918,1.0000000000003,0.142135291628267
3499.99999999791,0.210133009525051,1.00000000000044,0.151127183342221
3599.99999999782,0.219390200969419,1.00000000000132,0.160695487906468
3699.99999999773,0.228096125133521,1.00000000000231,0.171121095714973
3799.99999999764,0.235906810315147,1.00000000000441,0.182215942817322
3899.99999999755,0.245323304350186,1.00000000000964,0.194105181857904
3999.99999999746,0.254453888246034,1.00000000001662,0.206901016092102
4099.99999999738,0.263475263170926,1.00000000002691,0.22008689900735
4199.99999999775,0.275381940389895,1.00000000003953,0.233649694824703
4299.99999999811,0.284323575871976,1.00000000005401,0.247331711302168
4399.99999999848,0.303364887917167,1.00000000007505,0.260986717266885
4499.99999999884,0.3263117929034,1.00000000009619,0.274691694801984
4599.9999999992,0.354802081844844,1.0000000001213,0.28795062026138
4699.99999999957,0.407834377034597,1.00000000014903,0.300875785818951
4799.99999999993,0.469630045783508,1.0000000001664,0.313705935722061
4900.00000000029,0.568552673668221,1.00000000020218,0.326086658465837
5000.00000000066,0.706358430543993,1.00000000021827,0.33835974676138
5100.00000000102,0.879598219875482,1.00000000025057,0.350041858222849
5200.00000000139,1.12866355653221,1.00000000028561,0.361287473648445
5300.00000000175,1.4353163016328,1.00000000031556,0.372388008259037
5400.00000000211,1.82987488740806,1.00000000032679,0.383134293918156
5500.00000000248,2.33241559043121,1.0000000003469,0.393357323593453
5600.00000000284,2.92902043433503,1.00000000038535,0.403214644709461
5700.00000000321,3.66758301321436,1.00000000040088,0.412710738268493
5800.00000000357,4.53865375886563,1.00000000043018,0.421924412051559
5900.00000000393,5.55806264694223,1.00000000045072,0.430708241277649
6000.0000000043,6.75849949229608,1.00000000044479,0.43908764558231
6100.00000000466,8.1202864939921,1.00000000049005,0.447099210030885
6200.00000000502,9.6790326603589,1.00000000048454,0.454916231247672
6300.00000000539,11.4389561947804,1.00000000048338,0.462321351862046
6400.00000000575,13.3968304904078,1.00000000053403,0.469213922583441
6500.00000000612,15.5822860451765,1.00000000053121,0.475886334865732
6600.00000000648,17.9798966750159,1.00000000055664,0.482256559094421
6700.00000000684,20.602795598245,1.00000000057003,0.488387736025753
6800.00000000721,23.4633578258503,1.00000000057728,0.493959509217096
6900.00000000757,26.5473262439107,1.00000000056886,0.49945058633724
7000.00000000793,29.8677462174342,1.00000000057845,0.5046550954546
7100.0000000083,33.4196231306599,1.00000000059864,0.509512329800233
7200.00000000866,37.195850953463,1.00000000059143,0.514181846374593
7300.00000000903,41.2065448477603,1.00000000061782,0.518260190056439
7400.00000000939,45.4381466068937,1.00000000059039,0.522534561464023
7500.00000000975,49.8823512830788,1.00000000060856,0.526473436962115
7600.00000001012,54.5431526777642,1.00000000063285,0.529968063074952
7700.00000001048,59.4046501414316,1.00000000061488,0.5333803215915
7800.00000001084,64.46396985399,1.00000000062358,0.536556150377744
7900.00000001121,69.7162578398068,1.00000000060195,0.53962965253385
8000.00000001157,75.1380725677721,1.0000000006159,0.542480439014212
8100.00000001194,80.7343554758248,1.00000000058979,0.545044622154085
8200.0000000123,86.4910887631518,1.00000000061071,0.54741418675903
8300.00000001266,92.3904531840441,1.00000000061958,0.549786278839871
8400.00000001303,98.436289351275,1.00000000063911,0.551772640034005
8500.00000001339,104.599654056811,1.00000000062041,0.553906900028936
8600.00000001376,110.879095835014,1.00000000060724,0.5556899070604
8700.00000001412,117.269766228635,1.00000000059084,0.557243813277212
8800.00000001448,123.741165448495,1.00000000059201,0.559086921673004
8900.00000001485,130.302016718215,1.00000000058073,0.560432055658574
9000.00000001521,136.927117049348,1.00000000060087,0.561645095046571
9100.00000001557,143.605807218154,1.00000000058589,0.56295443220825
9200.00000001594,150.342520077242,1.00000000057949,0.563871272660906
9300.0000000163,157.101158902583,1.00000000057666,0.564989104239807
9400.00000001667,163.890434976124,1.00000000057571,0.565980724845848
9500.00000001703,170.694119308721,1.00000000058262,0.566443748632343
9600.00000001739,177.49191367072,1.00000000056334,0.567511005038678
9700.00000001776,184.296099719476,1.00000000056854,0.567888321993178
9800.00000001812,191.071387626249,1.00000000054412,0.568580526037264
9900.00000001848,197.822645290555,1.00000000056689,0.569135246241781
10000.0000000188,204.544271921947,1.00000000055283,0.569231120495353
10100.0000000192,211.210844598813,1.00000000056211,0.569853490810987
10200.0000000196,217.835990542176,1.00000000055675,0.569958079216601
10300.0000000199,224.392833454655,1.00000000053968,0.570456887512943
10400.0000000203,230.87872185922,1.0000000005367,0.570497867178413
10500.0000000207,237.297845381074,1.00000000052651,0.570587641097285
10600.000000021,243.623887876454,1.00000000051756,0.570836443036774
10700.0000000214,249.868778369031,1.00000000050568,0.570734236358059
10800.0000000218,256.015459522567,1.00000000050457,0.571055205117214
10900.0000000221,262.056314295315,1.00000000050445,0.570734871594637
11000.0000000225,267.999381571841,1.00000000050146,0.570943487691115
11100.0000000229,273.823573523588,1.00000000050632,0.570905010669333
11200.0000000232,279.535152929511,1.00000000049248,0.570148643181316
11300.0000000236,285.126175408664,1.00000000050185,0.570970178250296
11400.0000000239,290.587447224747,1.00000000049124,0.570103284923498
11500.0000000243,295.927942413234,1.00000000047448,0.569660062118937
11600.0000000247,301.130697755008,1.0000000004807,0.570598525359141
11700.000000025,306.201297730379,1.0000000004666,0.56922532115404
11800.0000000254,311.135413945468,1.00000000046411,0.569428975753054
11900.0000000258,315.924570981523,1.00000000046097,0.569503723727957
12000.0000000261,320.58089569343,1.0000000004426,0.568327661572971
12100.0000000265,325.08606870542,1.00000000045187,0.568781033566379
12200.0000000269,329.448688594655,1.00000000045105,0.568422815669342
12300.0000000272,333.668500889467,1.00000000042751,0.567260586555758
12400.0000000276,337.733966841551,1.0000000004408,0.567942611259819
12500.0000000279,341.660207414049,1.00000000043179,0.56688552634938
12600.0000000283,345.433668780752,1.00000000042486,0.566589516138634
12700.0000000287,349.056902070965,1.0000000004315,0.566730023352533
12800.000000029,352.538790461025,1.00000000041662,0.565796455010522
12900.0000000294,355.864678079227,1.00000000041972,0.565493031293417
13000.0000000298,359.049392643978,1.00000000040679,0.565397324885754
13100.0000000301,362.085756514805,1.00000000040477,0.564750998326591
13200.0000000305,364.97219540784,1.00000000040063,0.564588986050176
13300.0000000309,367.719922517528,1.00000000039836,0.564244955739905
13400.0000000312,370.319023102675,1.0000000003986,0.56328169620567
13500.0000000316,372.778004740556,1.00000000039165,0.56323428079423
13600.0000000319,375.096276511409,1.00000000038661,0.563783684985887
13700.0000000323,377.272571481129,1.00000000038189,0.563098749413684
13800.0000000327,379.315987707317,1.00000000038559,0.561153314990588
13900.000000033,381.218240064468,1.00000000038225,0.561208732905595
14000.0000000334,382.987794790091,1.00000000036984,0.562630498031884
14100.0000000338,384.628486721167,1.00000000036658,0.563106683753815
14200.0000000341,386.136465590861,1.00000000037223,0.561594569444236
14300.0000000345,387.521705261932,1.00000000035928,0.559212100050858
14400.0000000349,388.776396525139,1.00000000035738,0.558695488728122
14500.0000000352,389.907488712248,1.00000000034999,0.561201405133945
14600.0000000356,390.921625566713,1.00000000035235,0.563481305427566
14700.0000000359,391.820125181566,1.00000000035412,0.562816481777739
14800.0000000363,392.609530318903,1.00000000033521,0.55738418665229
14900.0000000367,393.279935853365,1.00000000031667,0.554291791712679
15000.000000037,393.833573973047,1.00000000032476,0.558103584922615
15100.0000000374,394.284238740047,1.00000000033044,0.564379933597439
15200.0000000378,394.640962752127,1.00000000036218,0.565815868959852
15300.0000000381,394.908686128181,1.00000000032853,0.559192226726941
15400.0000000385,395.077943312205,1.00000000031252,0.550698689648745
15500.0000000389,395.137845118051,1.00000000030934,0.550759834739923
15600.0000000392,395.10417487027,1.00000000032301,0.55828781155509
15700.0000000396,394.989278952729,1.00000000036487,0.568815347085345
15800.0000000399,394.814343018435,1.00000000035869,0.565005864441695
15900.0000000403,394.56877685385,1.00000000034127,0.556143269281587
16000.0000000407,394.240911492599,1.00000000028558,0.543813733287412
16100.000000041,393.819174448403,1.00000000028157,0.543033998143323
16200.0000000414,393.314308818985,1.00000000032036,0.555753892317677
16300.0000000418,392.756190783807,1.00000000036952,0.570218502254396
16400.0000000418,392.162277583601,1.00000000038334,0.568932739908723
16500.0000000404,391.524405596255,1.00000000034743,0.555594355210669
16600.0000000389,390.826145306282,1.00000000028581,0.538233266293157
16700.0000000375,390.045201592175,1.00000000025612,0.531006900073151
16800.000000036,389.191145911627,1.00000000029793,0.543527088921854
16900.0000000346,388.290273617981,1.00000000037222,0.565583892645132
17000.0000000331,387.370532747941,1.00000000040173,0.574391667398931
17100.0000000317,386.440274176521,1.00000000039171,0.564647533569228
17200.0000000302,385.478817129598,1.00000000031988,0.542544803287092
17300.0000000287,384.46086881685,1.00000000024317,0.521807770368759
17400.0000000273,383.371891508698,1.00000000024307,0.518856875206223
17500.0000000258,382.226451766165,1.00000000030884,0.541214326691351
17600.0000000244,381.060261229074,1.00000000039119,0.56809510318722
17700.0000000229,379.896234311585,1.00000000044289,0.576675658309379
17800.0000000215,378.739009108554,1.00000000041902,0.564341384224225
17900.00000002,377.56860632268,1.00000000032595,0.536621802050036
18000.0000000186,376.354185839933,1.00000000024142,0.510628342355668
18100.0000000171,375.083517595034,1.00000000022569,0.502283725706402
18200.0000000156,373.761447117243,1.0000000002736,0.523119321018918
18300.0000000142,372.420803782195,1.00000000038109,0.558762395474409
18400.0000000127,371.090928160665,1.00000000044617,0.577767052734227
18500.0000000113,369.781369240783,1.00000000045202,0.572938232140401
18600.0000000098,368.483200767777,1.00000000039278,0.548945898751597
18700.0000000084,367.168872065219,1.00000000028552,0.516571647766823
18800.0000000069,365.816388375775,1.00000000022388,0.492608775979294
18900.0000000055,364.41712139387,1.00000000022175,0.491630426164118
19000.000000004,362.983708265094,1.00000000029033,0.521176261424776
19100.0000000026,361.546740305681,1.00000000040268,0.559634309340891
19200.0000000011,360.128709092619,1.00000000047109,0.578470086360438
19299.9999999996,358.737549094097,1.00000000046986,0.573859272518967
19399.9999999982,357.365492451584,1.00000000040049,0.550283237349927
19499.9999999967,355.989914008441,1.00000000030932,0.516077209537575
19599.9999999953,354.591644030293,1.00000000023138,0.486945427690193
19699.9999999938,353.157842450743,1.00000000020346,0.479237592151707
19799.9999999924,351.695319953787,1.00000000026146,0.498032829351013
19899.9999999909,350.223775085142,1.00000000035908,0.535332605891465
19999.9999999895,348.762893346697,1.00000000043751,0.566290904259835
20099.999999988,347.327650102735,1.00000000049014,0.577245807088175
20199.9999999865,345.919771210885,1.00000000046802,0.566443979612548
20299.9999999851,344.528274079703,1.00000000040975,0.540040782787453
20399.9999999836,343.13750420411,1.0000000002979,0.505962058423669
20499.9999999822,341.730358588769,1.00000000023663,0.481411239265723
20599.9999999807,340.302926695149,1.00000000023248,0.47606561499258
20699.9999999793,338.856744478852,1.00000000026065,0.489252854685758
20799.9999999778,337.403408714342,1.00000000032829,0.518184748578008
20899.9999999764,335.958646722796,1.000000000422,0.550353947931709
20999.9999999749,334.533205278993,1.00000000047322,0.569362167648728
21099.9999999734,333.132552804575,1.00000000046946,0.568379241410028
21199.999999972,331.753398593488,1.00000000042415,0.550023130531122
21299.9999999705,330.385429136911,1.00000000037816,0.523711502888989
21399.9999999691,329.018690882225,1.00000000029944,0.497050709502722
21499.9999999676,327.643760901957,1.0000000002629,0.480202304512769
21599.9999999662,326.259273408828,1.00000000024401,0.477882589842029
21699.9999999647,324.866977487208,1.0000000002619,0.488137723335569
21799.9999999633,323.472355818963,1.00000000032561,0.508318182111656
21899.9999999618,322.085113857054,1.00000000038228,0.533417248214273
21999.9999999603,320.711995107853,1.00000000044111,0.552853057941617
22099.9999999589,319.356965891991,1.00000000045975,0.558842142148693
22199.9999999574,318.020686190524,1.00000000045342,0.549999745041432
22299.999999956,316.698384344264,1.00000000040795,0.532773806789674
22399.9999999545,315.385069147656,1.00000000034684,0.513489091127634
22499.9999999531,314.074756127811,1.00000000031152,0.495429986547761
22599.9999999516,312.763963650723,1.00000000027177,0.48481286168807
22699.9999999502,311.452474126707,1.00000000027115,0.483819385946881
22799.9999999487,310.140170301276,1.00000000027772,0.489770752974196
22899.9999999473,308.831195939263,1.0000000003248,0.501552151295665
22999.9999999458,307.528049041848,1.00000000034374,0.515775446840735
23099.9999999443,306.234430386643,1.00000000040074,0.530707604284674
23199.9999999429,304.953710701224,1.00000000041808,0.539744143770692
23299.9999999414,303.686260305048,1.00000000043245,0.542150692249164
23399.99999994,302.43141703936,1.00000000040906,0.535648514633078
23499.9999999385,301.187632114048,1.00000000039037,0.524041653533052
23599.9999999371,299.951812608762,1.00000000035393,0.512599414405776
23699.9999999356,298.722864222587,1.00000000031589,0.503359992733397
23799.9999999342,297.498791241473,1.00000000029661,0.496149232715079
23899.9999999327,296.280301984409,1.00000000029317,0.494308536390288
23999.9999999312,295.066884771213,1.00000000029327,0.493691150295198
24099.9999999298,293.858987723386,1.00000000030497,0.496022184825268
24199.9999999283,292.657912929272,1.00000000030861,0.501990818794808
24299.9999999269,291.464200934173,1.00000000034457,0.509212420398643
24399.9999999254,290.279452082495,1.00000000036964,0.517875947312125
24499.999999924,289.104664704622,1.00000000039186,0.523474020655492
24599.9999999225,287.939514751011,1.00000000040551,0.52911420314185
24699.9999999211,286.784178045878,1.00000000038685,0.52815373413711
24799.9999999196,285.637965673186,1.00000000037305,0.523659540884678
24899.9999999181,284.500166474452,1.00000000036164,0.518581153937092
24999.9999999167,283.370762906292,1.00000000035121,0.513430355178104
25099.9999999152,282.249291443939,1.00000000034112,0.512707368461682
25199.9999999138,281.136413537029,1.00000000031793,0.510503155080985
25299.9999999123,280.031756400068,1.00000000031073,0.506423128030517
25399.9999999109,278.93590154741,1.00000000030472,0.501444112245968
25499.9999999094,277.848365781522,1.00000000029216,0.496788991144281
25599.999999908,276.769103303844,1.00000000028591,0.493300400492503
25699.9999999065,275.698783681926,1.00000000031478,0.495572891597037
25799.9999999051,274.637329372458,1.00000000033608,0.500867109157837
25899.9999999036,273.58454954632,1.00000000035693,0.510468316155506
25999.9999999021,272.540291265215,1.00000000039308,0.516729843868854
26099.9999999007,271.50367488373,1.00000000039809,0.523212118983295
26199.9999998992,270.474525121375,1.00000000037733,0.526976416615053
26299.9999998978,269.453334181254,1.0000000003438,0.523859330895966
26399.9999998963,268.440142685105,1.00000000033045,0.519699180941789
26499.9999998949,267.435417022045,1.00000000033489,0.515960011402679
26599.9999998934,266.438837830465,1.00000000035221,0.521633164757769
26699.999999892,265.450576186426,1.00000000036499,0.527094336265597
26799.9999998905,264.470688718954,1.00000000035977,0.523077790382613
26899.999999889,263.500069293735,1.00000000033073,0.514248580430655
26999.9999998876,262.539344552003,1.00000000031026,0.50411079948497
27099.9999998861,261.588942649407,1.00000000027485,0.490561892054492
27199.9999998847,260.650341174837,1.00000000025664,0.480151293756281
27299.9999998832,259.723386114263,1.00000000027706,0.480004064873277
27399.9999998818,258.8072205408,1.00000000031569,0.487503651777073
27499.9999998803,257.90037922128,1.00000000036019,0.498410000624339
27599.9999998789,257.000870245151,1.0000000003898,0.510982289819265
27699.9999998774,256.106479594099,1.00000000042367,0.518956836418047
27799.9999998759,255.216758516729,1.0000000003943,0.520512663425633
27899.9999998745,254.332239503116,1.00000000036206,0.521552282234312
27999.999999873,253.4546724808,1.00000000033018,0.52122196333238
28099.9999998716,252.58499599236,1.00000000031285,0.517234377344798
28199.9999998701,251.72316404316,1.00000000033286,0.516351239905996
28299.9999998687,250.868175870041,1.00000000036423,0.525417355069626
28399.9999998672,250.018687740815,1.00000000039659,0.53622671838255
28499.9999998658,249.174588381089,1.00000000039426,0.535212143546257
28599.9999998643,248.336794511649,1.00000000037062,0.524757819334628
28699.9999998629,247.507694535101,1.00000000033749,0.512005587314101
28799.9999998614,246.689224238789,1.00000000029143,0.497321864041725
28899.9999998599,245.884006598539,1.0000000002407,0.479882534386047
