Time,AGPnorm,Energy,Entropy
0,0,1,3.20342650381489e-18
99.9999999999986,0.00811648600164392,0.999999999998864,0.0233554778163621
199.999999999993,0.0220185295529621,0.999999999999909,0.0672637830827719
300,0.0435410357127283,1.00000000000047,0.134891618034621
400.000000000022,0.0652361435752338,1.0000000000835,0.234877163866975
500.000000000045,0.0959691338907643,1.00000000079523,0.372743951961464
600.000000000068,0.395506796695383,1.00000000204859,0.481141589518217
700.000000000091,1.29771647817419,1.00000000264118,0.543905352804721
800.000000000113,3.02995574916888,1.00000000317786,0.57375362541429
900.000000000136,5.42587817518993,1.00000000342622,0.584590563139012
1000.00000000016,8.13047714298506,1.00000000298585,0.585064602941561
1100.0000000001,10.8236426466975,1.00000000282763,0.579305550849464
1200,13.2045177729061,1.00000000261814,0.568648374777421
1299.99999999991,15.1301192794793,1.00000000223587,0.562486025400567
1399.99999999982,16.5299536277677,1.00000000217243,0.550354893130621
1499.99999999973,17.4121285165713,1.00000000201032,0.552962759299746
1599.99999999964,17.8195734897949,1.00000000205462,0.55874911525183
1699.99999999955,17.874586603155,1.00000000150623,0.504400660144449
1799.99999999946,17.6900856286151,1.00000000225204,0.576490228399624
1899.99999999937,17.2918286351771,1.00000000120461,0.463449666717206
1999.99999999928,16.8373152184153,1.00000000259335,0.578727505558205
2099.99999999919,16.3162385542979,1.00000000105501,0.403806253157169
2199.99999999909,15.7347557603365,1.00000000276487,0.568931619894502
2299.999999999,15.2304301168904,1.00000000179306,0.486758736100849
2399.99999999891,14.6789992766463,1.00000000130875,0.411739858045192
2499.99999999882,14.1306225624002,1.00000000274011,0.552841659934534
2599.99999999873,13.6492461542883,1.00000000203999,0.529613042574778
2699.99999999864,13.1900750619992,1.00000000113421,0.382675342803451
2799.99999999855,12.7445342018049,1.00000000198336,0.48798255395438
2899.99999999846,12.3122268202003,1.00000000209489,0.530361462449374
2999.99999999837,11.908338423802,1.00000000263799,0.565156310418828
3099.99999999828,11.549811367751,1.00000000115831,0.423380805460856
3199.99999999819,11.2569730679694,1.00000000165438,0.415751207250287
3299.99999999809,10.9642404185413,1.00000000218914,0.52744391672995
3399.999999998,10.6791130310332,1.00000000178145,0.52104115902442
3499.99999999791,10.3989882169335,1.00000000244215,0.531917374061548
3599.99999999782,10.1146448542135,1.00000000247434,0.565830335751118
3699.99999999773,9.86899759805378,1.00000000122682,0.455299985851796
3799.99999999764,9.71421655667674,1.0000000013557,0.407862444029097
3899.99999999755,9.60004135023957,1.00000000208993,0.488572557026434
3999.99999999746,9.4662553610518,1.00000000198335,0.527512163557873
4099.99999999738,9.32282583359258,1.00000000207389,0.549332238802821
4199.99999999775,9.16950155738186,1.00000000184328,0.558994020042036
4299.99999999811,9.0138425294951,1.0000000018534,0.544333490982866
4399.99999999848,8.84769476429889,1.0000000022293,0.546252205778091
4499.99999999884,8.66657999813542,1.00000000242551,0.57492093001315
4599.9999999992,8.50843836150564,1.00000000139145,0.501189654759064
4699.99999999957,8.43838200750585,1.00000000111975,0.420023375213638
4799.99999999993,8.45966626919408,1.00000000178245,0.440969423542788
4900.00000000029,8.48505173669264,1.00000000206752,0.494350943039249
5000.00000000066,8.48227777833672,1.00000000211376,0.545271471060087
5100.00000000102,8.45912472029778,1.00000000194442,0.558362433854034
5200.00000000139,8.42069813427298,1.0000000020294,0.579523814874816
5300.00000000175,8.37252717326821,1.00000000202275,0.565102101098096
5400.00000000211,8.31183094248774,1.00000000212854,0.562783710564214
5500.00000000248,8.23261796113078,1.0000000020679,0.582030029178352
5600.00000000284,8.14821942486239,1.00000000178407,0.579799001240727
5700.00000000321,8.06348141355121,1.0000000019425,0.587801075347829
5800.00000000357,7.96894470902903,1.00000000220488,0.584555743980694
5900.00000000393,7.86266306892115,1.00000000239114,0.584215932488807
6000.0000000043,7.74768916219504,1.00000000248337,0.582567291166844
6100.00000000466,7.638607549839,1.00000000173341,0.544357510086625
6200.00000000502,7.58281343386357,1.00000000123123,0.470219487527574
6300.00000000539,7.62629090504006,1.00000000130823,0.440481033075825
6400.00000000575,7.74875567189976,1.00000000174462,0.466462932302152
6500.00000000612,7.87746671204914,1.00000000194918,0.507278071725852
6600.00000000648,7.98544457150271,1.00000000219173,0.538153214221122
6700.00000000684,8.07457280921827,1.00000000209669,0.562839725932663
6800.00000000721,8.14123770058114,1.00000000211308,0.588103271141241
6900.00000000757,8.18004186987458,1.00000000222203,0.601426856756
7000.00000000793,8.20045128473808,1.00000000201981,0.614013641148751
7100.0000000083,8.19842350206217,1.00000000230583,0.621656509766457
7200.00000000866,8.17810636942622,1.00000000226126,0.618466457428243
7300.00000000903,8.15464462283621,1.00000000209941,0.608483530530879
7400.00000000939,8.13329966099595,1.00000000192371,0.596749398865267
7500.00000000975,8.11218926946783,1.00000000203917,0.576899098705708
7600.00000001012,8.0782755115804,1.00000000208542,0.591493613575014
7700.00000001048,8.04225475387396,1.00000000196331,0.599165408118828
7800.00000001084,8.012128248967,1.00000000202922,0.612408973015792
7900.00000001121,7.97529965101248,1.00000000211976,0.618002822541333
8000.00000001157,7.93803118392724,1.00000000215025,0.607893023092476
8100.00000001194,7.89553929177345,1.00000000230154,0.599135969503247
8200.0000000123,7.8488419993812,1.00000000225786,0.600037650418895
8300.00000001266,7.79048506978547,1.00000000214689,0.629481558900952
8400.00000001303,7.7256719690604,1.00000000220087,0.632026707414722
8500.00000001339,7.66043455624145,1.00000000195565,0.628736426064499
8600.00000001376,7.59464124646026,1.00000000210418,0.632610422294067
8700.00000001412,7.52732862258261,1.00000000231685,0.631643920485884
8800.00000001448,7.45943153538579,1.00000000248992,0.644127722202453
8900.00000001485,7.39295587205112,1.00000000263097,0.634213085617783
9000.00000001521,7.32326042467186,1.0000000025232,0.614092180047954
9100.00000001557,7.24705595897735,1.00000000226032,0.591871240149617
9200.00000001594,7.17931108340124,1.00000000164233,0.538377123836166
9300.0000000163,7.15338058842859,1.00000000149446,0.493953811918644
9400.00000001667,7.2065148230577,1.00000000144559,0.466775930792116
9500.00000001703,7.34710463623218,1.00000000151163,0.462491076814414
9600.00000001739,7.54742205243708,1.00000000224828,0.484096379384798
9700.00000001776,7.76712347990302,1.00000000215935,0.50323045472161
9800.00000001812,7.97337209863645,1.00000000255738,0.527463928792379
9900.00000001848,8.16883418676489,1.00000000223602,0.548457615053288
10000.0000000188,8.340211197135,1.00000000237274,0.566514831077656
10100.0000000192,8.49735669160734,1.00000000231565,0.573297663492902
10200.0000000196,8.6336735684542,1.00000000235097,0.598276933067863
10300.0000000199,8.75126314826329,1.00000000261426,0.620632774960662
10400.0000000203,8.848049062809,1.00000000236308,0.610330905173149
10500.0000000207,8.92706280175321,1.0000000023615,0.625338276938977
10600.000000021,8.98573411915091,1.0000000023697,0.643161285364504
10700.0000000214,9.02678757503863,1.00000000242341,0.64248258615654
10800.0000000218,9.05576989073,1.00000000234705,0.645979566689048
10900.0000000221,9.07977282573546,1.00000000218975,0.63821055818984
11000.0000000225,9.09534076931321,1.0000000025023,0.648182544002274
11100.0000000229,9.10223318032948,1.00000000229456,0.642465855847054
11200.0000000232,9.10442025020965,1.00000000241422,0.639814433920467
11300.0000000236,9.09550116100466,1.00000000257963,0.636455737662372
11400.0000000239,9.08369382767262,1.00000000212761,0.637111744762347
11500.0000000243,9.06475969427203,1.00000000234536,0.644588787839133
11600.0000000247,9.04007763789661,1.00000000228926,0.639018301077886
11700.000000025,9.0122947400232,1.00000000238643,0.65606925143897
11800.0000000254,8.98029750682688,1.0000000024935,0.654987561391702
11900.0000000258,8.94558514079452,1.00000000238759,0.65400700664557
12000.0000000261,8.91132123760249,1.000000002418,0.635519390889575
12100.0000000265,8.88194870868228,1.00000000231677,0.62355531812483
12200.0000000269,8.86239130043107,1.00000000216382,0.608426693332681
12300.0000000272,8.85016109306951,1.00000000240262,0.608591040163799
12400.0000000276,8.84771891656899,1.00000000211956,0.618299039747182
12500.0000000279,8.84755975274907,1.00000000250699,0.616050903526589
12600.0000000283,8.84365643571508,1.00000000244038,0.632706731848545
12700.0000000287,8.83335623428849,1.00000000245477,0.629607315830169
12800.000000029,8.8260887109971,1.0000000021967,0.624544811349944
12900.0000000294,8.81671095396312,1.00000000219436,0.617431534894206
13000.0000000298,8.80787218811303,1.00000000224724,0.623028958614653
13100.0000000301,8.8026823979022,1.00000000241663,0.625220821178849
13200.0000000305,8.79702394164523,1.00000000236421,0.623308486085553
13300.0000000309,8.78467402847934,1.00000000265711,0.632760135769111
13400.0000000312,8.77297538547834,1.00000000232983,0.62524666262844
13500.0000000316,8.76467753354896,1.0000000023706,0.633090902910557
13600.0000000319,8.75653218774218,1.00000000224741,0.639225384370381
13700.0000000323,8.75413060627746,1.00000000254018,0.636712162257228
13800.0000000327,8.74936353798166,1.00000000278159,0.625923706289126
13900.000000033,8.74090977409709,1.00000000254483,0.636190988218361
14000.0000000334,8.73343724098793,1.00000000242986,0.642090159389319
14100.0000000338,8.72783532020512,1.00000000246411,0.657068162295306
14200.0000000341,8.71615154759135,1.0000000026462,0.661076619957677
14300.0000000345,8.70621734296711,1.00000000243069,0.654601225293109
14400.0000000349,8.69621493774626,1.00000000254225,0.672124930568822
14500.0000000352,8.68006246361305,1.00000000250424,0.6633981267317
14600.0000000356,8.66465219134161,1.00000000247511,0.651943743022582
14700.0000000359,8.64587648870882,1.00000000248428,0.652435996298919
14800.0000000363,8.63022366419828,1.00000000232715,0.671808458314666
14900.0000000367,8.61454082167644,1.00000000260879,0.664709667088041
15000.000000037,8.59752595553372,1.00000000232903,0.656257256664528
15100.0000000374,8.576033377164,1.00000000267886,0.653290141679288
15200.0000000378,8.55317276895595,1.00000000225619,0.649739975624579
15300.0000000381,8.53146118219007,1.0000000026266,0.654703175132659
15400.0000000385,8.50572316222674,1.00000000275006,0.65427654109537
15500.0000000389,8.48314374733125,1.00000000247664,0.6487740602446
15600.0000000392,8.46348612678886,1.00000000263917,0.655213830549551
15700.0000000396,8.43741312977803,1.00000000256814,0.65937687879764
15800.0000000399,8.41020947234104,1.00000000256792,0.663510775846845
15900.0000000403,8.38263030551002,1.0000000027774,0.66264946340614
16000.0000000407,8.35262411227344,1.00000000256126,0.659069258725144
16100.000000041,8.32222004529186,1.00000000246976,0.657358469882531
16200.0000000414,8.2867854511284,1.00000000275111,0.665805251095547
16300.0000000418,8.24874065947364,1.00000000236011,0.662567654683219
16400.0000000418,8.2131406669399,1.0000000025548,0.662399384771066
16500.0000000404,8.17181582600383,1.00000000311113,0.659019335891581
16600.0000000389,8.12738185073171,1.00000000282463,0.654549866554497
16700.0000000375,8.08221375298821,1.00000000265551,0.656519512201593
16800.000000036,8.03677530758557,1.00000000266516,0.669896866219939
16900.0000000346,7.9909530450407,1.00000000235618,0.676022039418409
17000.0000000331,7.94533448052029,1.00000000265692,0.670920417854277
17100.0000000317,7.90066498925173,1.00000000264565,0.674788627976509
17200.0000000302,7.85729098060634,1.00000000261745,0.669272246800138
17300.0000000287,7.81747892013692,1.00000000269431,0.669033258866697
17400.0000000273,7.78190685565604,1.0000000026122,0.662739021581335
17500.0000000258,7.75251679936114,1.00000000302382,0.674813099951227
17600.0000000244,7.73222685221709,1.00000000306349,0.679367244288992
17700.0000000229,7.71677827118898,1.00000000292343,0.682419406304635
17800.0000000215,7.71332391718943,1.00000000318696,0.683623394274404
17900.00000002,7.70709268898664,1.00000000321781,0.676508514977847
18000.0000000186,7.70670650563445,1.00000000262754,0.662043997093329
18100.0000000171,7.69254025199534,1.00000000282212,0.645139615137625
18200.0000000156,7.67152006189178,1.00000000282503,0.621004890402354
18300.0000000142,7.63763982501898,1.0000000021849,0.606411413052464
18400.0000000127,7.59929846949321,1.00000000232018,0.585520527882018
18500.0000000113,7.57241498395387,1.00000000209706,0.55420440246357
18600.0000000098,7.57344959713396,1.00000000213397,0.531376684028036
18700.0000000084,7.62686434717682,1.00000000207364,0.513347206109428
18800.0000000069,7.74632104546433,1.00000000200733,0.496866155474912
18900.0000000055,7.95087514174251,1.00000000206461,0.493779891740032
19000.000000004,8.22141270128689,1.00000000222957,0.50021284195109
19100.0000000026,8.57415888811362,1.00000000237767,0.503836299299288
19200.0000000011,8.95057297189961,1.00000000255786,0.507576716758465
19299.9999999996,9.37567575270308,1.00000000265237,0.522259709513135
19399.9999999982,9.78292543064807,1.00000000274264,0.527434261569341
19499.9999999967,10.2107082835017,1.0000000027835,0.534066774077065
19599.9999999953,10.6149092224696,1.00000000282567,0.547343258033637
19699.9999999938,11.012812995215,1.00000000264442,0.552715714815267
19799.9999999924,11.4000567373576,1.00000000283823,0.560809137386764
19899.9999999909,11.7611708436321,1.00000000276313,0.569321221327954
19999.9999999895,12.1273780893381,1.00000000261949,0.570324218018439
20099.999999988,12.4659105106332,1.00000000304644,0.5870336623203
20199.9999999865,12.8028188056663,1.00000000264003,0.597967332414318
20299.9999999851,13.1255710500083,1.00000000272039,0.609004675810268
20399.9999999836,13.429296199346,1.00000000291723,0.604818155896763
20499.9999999822,13.7215374962171,1.00000000275405,0.622550806263781
20599.9999999807,13.9944318397113,1.00000000306399,0.637693675192095
20699.9999999793,14.2560018152176,1.0000000032661,0.64257357335955
20799.9999999778,14.4911420667033,1.00000000290522,0.649685073024039
20899.9999999764,14.7197487717779,1.00000000284271,0.66704026704763
20999.9999999749,14.9265771110985,1.00000000292052,0.659173236391997
21099.9999999734,15.1261827479371,1.00000000282992,0.659631911574747
21199.999999972,15.3130443065365,1.00000000305014,0.679517034424247
21299.9999999705,15.4869238054879,1.00000000267029,0.669501010033829
21399.9999999691,15.6579608413936,1.00000000319337,0.670125047207771
21499.9999999676,15.8120583949557,1.00000000302418,0.674147663726994
21599.9999999662,15.9609069716252,1.00000000311107,0.681328354612679
21699.9999999647,16.0896775150666,1.00000000310808,0.688648684687494
21799.9999999633,16.2195739077857,1.00000000284369,0.671389049042892
21899.9999999618,16.3482800386886,1.00000000287629,0.674108131439031
21999.9999999603,16.4633912511271,1.0000000033515,0.687913441862308
22099.9999999589,16.563666337159,1.00000000294237,0.68699043471877
22199.9999999574,16.6582973636951,1.00000000283963,0.69048025583207
22299.999999956,16.7561854304342,1.00000000281238,0.678131352423775
22399.9999999545,16.8486006852884,1.00000000328891,0.671369080797469
22499.9999999531,16.9362118224546,1.00000000316665,0.673391800706366
22599.9999999516,17.0135100470009,1.00000000293883,0.691738108779222
22699.9999999502,17.0919318855905,1.00000000322718,0.684651256562367
22799.9999999487,17.1792902587544,1.00000000302716,0.693331053090382
22899.9999999473,17.2679945431792,1.0000000029857,0.683028257545262
22999.9999999458,17.3623122654128,1.00000000278039,0.67381186105219
23099.9999999443,17.4465553647176,1.00000000330453,0.686079935284476
23199.9999999429,17.5152484257457,1.00000000361664,0.688688664093889
23299.9999999414,17.5779846675734,1.00000000291581,0.693224805515537
23399.99999994,17.6446389562647,1.00000000306752,0.685545933509311
23499.9999999385,17.7237947550247,1.00000000293025,0.669581814426852
23599.9999999371,17.7980779526127,1.00000000355883,0.687335942627616
23699.9999999356,17.8628797666198,1.00000000359088,0.680889506382955
23799.9999999342,17.9196880259541,1.00000000344645,0.685712446608312
23899.9999999327,17.9878254788686,1.00000000303384,0.665332623279977
23999.9999999312,18.0667576480446,1.00000000276936,0.690952071700995
24099.9999999298,18.1491056807579,1.00000000348022,0.693969975508493
24199.9999999283,18.2239158638646,1.00000000318519,0.681681082064253
24299.9999999269,18.295344485684,1.00000000315475,0.694149769756673
24399.9999999254,18.3735114781788,1.00000000304447,0.667662278254362
24499.999999924,18.4554566429445,1.00000000294936,0.670495226926753
24599.9999999225,18.5352221556391,1.00000000353348,0.672510605995737
24699.9999999211,18.609019300455,1.00000000320022,0.686335643903785
24799.9999999196,18.6949928557522,1.00000000294115,0.662872059074334
24899.9999999181,18.7841786583995,1.00000000358899,0.674718364296922
24999.9999999167,18.8601866681167,1.00000000354814,0.684282403123358
25099.9999999152,18.9289360607514,1.00000000314843,0.681058441389754
25199.9999999138,19.00277851234,1.0000000030243,0.645790321437482
25299.9999999123,19.0956406355549,1.00000000325585,0.667217920706355
25399.9999999109,19.1853396264098,1.00000000320979,0.685306858744941
25499.9999999094,19.2593544360009,1.00000000367419,0.684123657541003
25599.999999908,19.3342323109243,1.00000000305924,0.673500862810277
25699.9999999065,19.4251719618922,1.00000000316938,0.650975146063256
25799.9999999051,19.5273058454022,1.00000000333179,0.676611467956297
25899.9999999036,19.6272425343256,1.00000000346085,0.678459734379491
25999.9999999021,19.7124702685568,1.00000000348213,0.68506622004963
26099.9999999007,19.7930105470304,1.00000000327592,0.671220110730116
26199.9999998992,19.8712788485988,1.00000000322674,0.687350050884639
26299.9999998978,19.9471562396485,1.00000000341693,0.690683207263886
26399.9999998963,20.0213433720662,1.00000000336055,0.689306140915453
26499.9999998949,20.1015697812923,1.00000000330574,0.665309555763122
26599.9999998934,20.1804935644034,1.00000000345995,0.685895141010778
26699.999999892,20.2568313248191,1.00000000359647,0.696583759099463
26799.9999998905,20.3327435825839,1.00000000330891,0.689437039309326
26899.999999889,20.4117819062365,1.00000000318509,0.667910654311685
26999.9999998876,20.4918701439336,1.00000000364848,0.690807969849292
27099.9999998861,20.5754461860363,1.00000000359304,0.674213581193468
27199.9999998847,20.6651224131143,1.00000000347214,0.656084343363548
27299.9999998832,20.7606313501882,1.0000000032398,0.647460707661469
27399.9999998818,20.8688879483147,1.00000000332995,0.679057605168112
27499.9999998803,20.9749562610507,1.00000000346203,0.688220929297415
27599.9999998789,21.079428307087,1.0000000034833,0.677273924159202
27699.9999998774,21.1783241727269,1.00000000352392,0.681375875342633
27799.9999998759,21.2817177817064,1.00000000292575,0.674594438318938
27899.9999998745,21.3824672197701,1.00000000350015,0.689554345672338
27999.999999873,21.4772833961078,1.00000000368061,0.697250556008784
28099.9999998716,21.5793084663979,1.00000000316808,0.677413097758913
28199.9999998701,21.6901338799601,1.00000000380784,0.692136487117218
28299.9999998687,21.7939105790663,1.00000000324683,0.678175785982562
28399.9999998672,21.9018486349376,1.00000000323782,0.681882569196891
28499.9999998658,22.0206680708578,1.00000000329428,0.677231310362524
28599.9999998643,22.1493236866986,1.0000000039563,0.691234021732658
28699.9999998629,22.2849305861966,1.00000000356823,0.684280810337686
28799.9999998614,22.4299613533439,1.0000000034861,0.692474880538103
28899.9999998599,22.5780362330806,1.00000000370783,0.687419931035479
28999.9999998585,22.7170956569057,1.00000000382445,0.687807297066267
29099.999999857,22.8571515473717,1.00000000336134,0.660987497724368
