Time,AGPnorm,Energy,Entropy
0,0,1,-7.58525632867615e-17
99.9999999999986,0.00119673635151077,1.00000000000035,0.00374313390900105
199.999999999993,0.00771719018076365,1.00000000000079,0.0110390691078792
300,0.0156338019063223,1.00000000000086,0.0205084082474235
400.000000000022,0.0238764985593845,1.00000000000032,0.0322713598433539
500.000000000045,0.033518369305696,0.99999999999985,0.0465176626219194
600.000000000068,0.0467860424478368,1.00000000000042,0.0630233966815518
700.000000000091,0.0591539184391766,1.00000000000093,0.0814743349332309
800.000000000113,0.0732011407242387,1.00000000000113,0.102379822389228
900.000000000136,0.0865372754180879,0.999999999999856,0.12639390073476
1000.00000000016,0.102592773670522,1.00000000000134,0.15473321958686
1100.0000000001,0.116306648454778,1.00000000001016,0.189055379378766
1200,0.133636078541608,1.00000000005565,0.230616485228421
1299.99999999991,0.151555913272433,1.00000000017533,0.277930110690535
1399.99999999982,0.176553976171289,1.00000000035544,0.324988825829218
1499.99999999973,0.254984188762687,1.00000000060481,0.368486053486693
1599.99999999964,0.463668016985569,1.00000000083602,0.406129008484097
1699.99999999955,0.857300359564502,1.00000000097275,0.439452358463224
1799.99999999946,1.50674573775383,1.00000000124641,0.46710172995772
1899.99999999937,2.50720414336335,1.00000000128132,0.490989651609339
1999.99999999928,3.92337583024547,1.00000000147885,0.510160754306563
2099.99999999919,5.76718778024459,1.00000000166281,0.526934237270709
2199.99999999909,8.04689501305273,1.00000000161869,0.540248808500628
2299.999999999,10.745581361553,1.00000000164733,0.551132178879112
2399.99999999891,13.8134066855847,1.00000000159559,0.559361374103492
2499.99999999882,17.1821467029546,1.00000000162646,0.5668010238261
2599.99999999873,20.8076322969341,1.00000000161093,0.571156880751423
2699.99999999864,24.6276797419461,1.00000000159729,0.574883796788755
2799.99999999855,28.5512597262783,1.00000000158288,0.576620675637738
2899.99999999846,32.4966664064901,1.0000000015117,0.578648437471871
2999.99999999837,36.4158430895948,1.0000000014956,0.57895564976093
3099.99999999828,40.2715240378535,1.00000000145613,0.578314872726852
3199.99999999819,43.9994194227372,1.00000000138614,0.577320949972499
3299.99999999809,47.5400197941662,1.00000000139058,0.575875888787357
3399.999999998,50.8649693311147,1.0000000013212,0.574216521816869
3499.99999999791,53.9652681053686,1.00000000122026,0.572874063065942
3599.99999999782,56.8204095730717,1.00000000128645,0.572180079660995
3699.99999999773,59.39992392927,1.00000000118313,0.568139058773697
3799.99999999764,61.6982774331968,1.00000000116639,0.565960386572047
3899.99999999755,63.712559711584,1.00000000111858,0.566336883612455
3999.99999999746,65.4529094506673,1.00000000105006,0.563579120096192
4099.99999999738,66.9276132788785,1.00000000100183,0.559215801604982
4199.99999999775,68.1274569300564,1.00000000101859,0.561583852699956
4299.99999999811,69.0734730382252,1.00000000099271,0.558432369523949
4399.99999999848,69.7722124935568,1.00000000091953,0.553181071942839
4499.99999999884,70.2600534372985,1.00000000100962,0.564711295179045
4599.9999999992,70.5461729640732,1.00000000082586,0.54352964370567
4699.99999999957,70.6241628638479,1.00000000092219,0.560625935699218
4799.99999999993,70.5686319265121,1.00000000100808,0.562123775708274
4900.00000000029,70.3523863444539,1.00000000076778,0.529316844040462
5000.00000000066,69.9962787936634,1.00000000097231,0.566275612803886
5100.00000000102,69.5893789628115,1.00000000095826,0.557630910965631
5200.00000000139,69.0616945039237,1.00000000064057,0.509315973238185
5300.00000000175,68.4251583975926,1.00000000101065,0.559859099484898
5400.00000000211,67.7939916595795,1.00000000112794,0.569173206339433
5500.00000000248,67.1149903186223,1.0000000006802,0.49979815856268
5600.00000000284,66.3355867565625,1.00000000075158,0.511939151400699
5700.00000000321,65.5537752732323,1.00000000124429,0.580369948325392
5800.00000000357,64.8049731036963,1.00000000103622,0.539262033753863
5900.00000000393,64.0083538166117,1.00000000059799,0.467285512125793
6000.0000000043,63.1556650050575,1.00000000081125,0.50764185470157
6100.00000000466,62.3257018790095,1.00000000133285,0.57558293162158
6200.00000000502,61.5411714875926,1.00000000104869,0.535935952836107
6300.00000000539,60.7425126009989,1.00000000064164,0.459476530847091
6400.00000000575,59.9068969422986,1.00000000070527,0.462321699975968
6500.00000000612,59.0741656055332,1.00000000111956,0.539829472103504
6600.00000000648,58.2829200535182,1.00000000128331,0.560160818791635
6700.00000000684,57.5209063993984,1.00000000101439,0.506921389568028
6800.00000000721,56.7544969910646,1.00000000066989,0.450912722326691
6900.00000000757,55.9778798521602,1.00000000072957,0.460466262220446
7000.00000000793,55.2086869908466,1.00000000102629,0.512863479977798
7100.0000000083,54.4652080247084,1.00000000123444,0.547758495237591
7200.00000000866,53.7500014891523,1.00000000109638,0.528437500619597
7300.00000000903,53.0495363536581,1.00000000081151,0.476899730191241
7400.00000000939,52.3568119728489,1.00000000073785,0.460518709959282
7500.00000000975,51.6740993569541,1.00000000081936,0.479669710046443
7600.00000001012,51.003906563969,1.0000000009281,0.498292728208238
7700.00000001048,50.3501604666385,1.00000000110231,0.526722162665958
7800.00000001084,49.7141017439273,1.00000000116527,0.530968599864267
7900.00000001121,49.0944333026798,1.00000000099671,0.51000877851588
8000.00000001157,48.491864029244,1.00000000070316,0.471217734599564
8100.00000001194,47.9083450297705,1.00000000084953,0.477294731509085
8200.0000000123,47.3412033593852,1.00000000095825,0.496738006498703
8300.00000001266,46.7894168648636,1.00000000080888,0.496091002235983
8400.00000001303,46.2546448643774,1.00000000089868,0.497740899696879
8500.00000001339,45.7323381779111,1.00000000109052,0.521394402569261
8600.00000001376,45.2170357359537,1.00000000118872,0.532622793242201
8700.00000001412,44.7130069075002,1.00000000089411,0.509041451124095
8800.00000001448,44.230950676386,1.00000000069076,0.474196149915094
8900.00000001485,43.7729952145764,1.00000000081861,0.478818944323917
9000.00000001521,43.3300228786899,1.00000000105439,0.497075223566244
9100.00000001557,42.89544322731,1.00000000103495,0.512492014497266
9200.00000001594,42.4753399604738,1.00000000078911,0.49331356463015
9300.0000000163,42.0750500175656,1.00000000080491,0.486118823824848
9400.00000001667,41.6857019841677,1.00000000097189,0.515830129984568
9500.00000001703,41.2967979831053,1.00000000116795,0.53553802556678
9600.00000001739,40.9078199414747,1.00000000106288,0.527096411951454
9700.00000001776,40.530974816795,1.00000000086708,0.502509031867998
9800.00000001812,40.1779155406671,1.00000000077894,0.483648245262971
9900.00000001848,39.8482118222776,1.00000000084623,0.486411382471517
10000.0000000188,39.5324697471316,1.00000000097835,0.498511723045483
10100.0000000192,39.2198007378625,1.00000000113367,0.504619656624892
10200.0000000196,38.9112803030854,1.00000000098726,0.514114745422769
10300.0000000199,38.6151652928703,1.00000000080396,0.509819113220954
10400.0000000203,38.3344834468186,1.00000000082005,0.503143362896048
10500.0000000207,38.0620041980051,1.00000000095049,0.516471710514399
10600.000000021,37.7919524907206,1.00000000099443,0.527604283567149
10700.0000000214,37.5204473031117,1.00000000108993,0.533147509319606
10800.0000000218,37.2479895735983,1.00000000102456,0.536269787357243
10900.0000000221,36.9857912595239,1.00000000089286,0.517281197499729
11000.0000000225,36.7445128616951,1.00000000078202,0.496523639751545
11100.0000000229,36.5229831251075,1.00000000088432,0.499878619436565
11200.0000000232,36.3138042149934,1.00000000094783,0.507836568804919
11300.0000000236,36.1152452875691,1.00000000089363,0.505966344145323
11400.0000000239,35.92494976442,1.00000000090177,0.511230411591733
11500.0000000243,35.7414230970019,1.00000000093495,0.503725291078346
11600.0000000247,35.560923693213,1.00000000098386,0.525330553240952
11700.000000025,35.377478650968,1.00000000097031,0.539096279413471
11800.0000000254,35.1941734879425,1.00000000095927,0.546289378806663
11900.0000000258,35.0136023433179,1.00000000091213,0.538338501259565
12000.0000000261,34.8398257202821,1.0000000008524,0.531160957200771
12100.0000000265,34.6722014391447,1.00000000094214,0.527569141398137
12200.0000000269,34.5052347241608,1.00000000102865,0.534129783963036
12300.0000000272,34.3340526501501,1.00000000113945,0.539789054829774
12400.0000000276,34.163770708752,1.00000000100243,0.536627420017564
12500.0000000279,34.0065315773832,1.00000000082106,0.524023866825337
12600.0000000283,33.8699768166968,1.00000000084291,0.514517144101882
12700.0000000287,33.7501343490596,1.0000000008811,0.506183218058327
12800.000000029,33.6366677312518,1.00000000102951,0.520354267925281
12900.0000000294,33.5224550688226,1.00000000103205,0.524508445019574
13000.0000000298,33.4138424403444,1.0000000009047,0.511216296507034
13100.0000000301,33.3174302534092,1.00000000084246,0.510811838988916
13200.0000000305,33.2306875561423,1.00000000091498,0.525719207930393
13300.0000000309,33.1489734560439,1.00000000089626,0.53157840156212
13400.0000000312,33.0651450364388,1.00000000101561,0.537437257004136
13500.0000000316,32.9720318821811,1.0000000010856,0.548672051945364
13600.0000000319,32.8684276652821,1.00000000104426,0.552397254555567
13700.0000000323,32.7569282181221,1.00000000099564,0.559469121829916
13800.0000000327,32.6431485850619,1.00000000096432,0.562585617042038
13900.000000033,32.5305196950274,1.00000000086545,0.557573218198858
14000.0000000334,32.4221021629096,1.00000000091367,0.550706715973103
14100.0000000338,32.3186820371796,1.00000000097444,0.541890025631956
14200.0000000341,32.2184481165605,1.00000000102911,0.534553410242193
14300.0000000345,32.1186158620076,1.00000000107254,0.542434475566439
14400.0000000349,32.0187106140482,1.00000000105307,0.547065428867163
14500.0000000352,31.9227281501849,1.00000000094164,0.544637131102632
14600.0000000356,31.8392811222938,1.00000000083785,0.541021288837599
14700.0000000359,31.7728525808415,1.00000000085263,0.530811851712699
14800.0000000363,31.7184828087703,1.00000000094535,0.53124892164201
14900.0000000367,31.6706911352991,1.00000000088461,0.529809830216646
15000.000000037,31.6280312764624,1.00000000094909,0.5249705929869
15100.0000000374,31.5888195872774,1.00000000094398,0.524183859026067
15200.0000000378,31.5541812972342,1.00000000091167,0.519477667295454
15300.0000000381,31.5269432723612,1.00000000088279,0.525079606320158
15400.0000000385,31.5048853230553,1.0000000009695,0.537868376729249
15500.0000000389,31.4819684881968,1.00000000103813,0.549391454829232
15600.0000000392,31.45440864939,1.00000000099989,0.559731236831415
15700.0000000396,31.4237368806229,1.00000000097515,0.560370647779925
15800.0000000399,31.393393616986,1.00000000092327,0.563921592998434
15900.0000000403,31.3660552530536,1.00000000090859,0.561693500189821
16000.0000000407,31.3384985134991,1.00000000094292,0.562014936978979
16100.000000041,31.3057357743455,1.00000000102595,0.56951809915805
16200.0000000414,31.2623979788624,1.000000001084,0.565647266145024
16300.0000000418,31.2062269881885,1.00000000102643,0.5627695364854
16400.0000000418,31.1364692049624,1.00000000103877,0.570208380641078
16500.0000000404,31.0577630912419,1.00000000099993,0.580003395248298
16600.0000000389,30.9770204032523,1.00000000090091,0.578629802747845
16700.0000000375,30.8995816965925,1.0000000008944,0.569772139220841
16800.000000036,30.8289409246217,1.00000000088156,0.562748626059596
16900.0000000346,30.7644051444777,1.00000000092982,0.559230083594614
17000.0000000331,30.7042082379813,1.00000000103314,0.555697009802428
17100.0000000317,30.6461137316531,1.0000000009938,0.555297162057525
17200.0000000302,30.5887849414622,1.0000000010617,0.560422137056109
17300.0000000287,30.531953239729,1.00000000102024,0.561915235484624
17400.0000000273,30.4790325323126,1.00000000093378,0.56204221117181
17500.0000000258,30.4367171699406,1.00000000089498,0.560337477096828
17600.0000000244,30.4076911717335,1.00000000092529,0.558358498440066
17700.0000000229,30.3883768838973,1.00000000094882,0.553543520127226
17800.0000000215,30.3781969045236,1.00000000093054,0.547522934634224
17900.00000002,30.3737749739557,1.00000000095316,0.541660611974365
18000.0000000186,30.3701683630476,1.0000000010088,0.539674704905141
18100.0000000171,30.3694799616687,1.00000000094557,0.540877178528938
18200.0000000156,30.3768329070764,1.00000000089362,0.540640657372272
18300.0000000142,30.3914037511131,1.0000000009374,0.54148269124295
18400.0000000127,30.4076615350741,1.00000000098753,0.546138696054504
18500.0000000113,30.4218503835089,1.00000000097739,0.551228775928051
18600.0000000098,30.4346264607436,1.00000000098502,0.547006183076274
18700.0000000084,30.4458207249306,1.00000000099384,0.546622650945336
18800.0000000069,30.4548354929706,1.00000000100125,0.560670112126449
18900.0000000055,30.4620884248044,1.00000000095104,0.573263728600034
19000.000000004,30.4685264000632,1.00000000101787,0.574079215194358
19100.0000000026,30.4743743696961,1.0000000009444,0.580774915391001
19200.0000000011,30.4810201780228,1.00000000095375,0.589816740316425
19299.9999999996,30.4845844563378,1.00000000102374,0.594401633995706
19399.9999999982,30.4806704479881,1.00000000106028,0.600156182902522
19499.9999999967,30.4696836671236,1.00000000107642,0.604641226402994
19599.9999999953,30.4557010434844,1.00000000098272,0.610170326228728
19699.9999999938,30.4390732137965,1.00000000096673,0.609455248879467
19799.9999999924,30.4180500690803,1.00000000097965,0.613563785779365
19899.9999999909,30.3931909778842,1.00000000099132,0.610030587096274
19999.9999999895,30.3644469211484,1.00000000103079,0.605782021622022
20099.999999988,30.3298763643544,1.00000000104466,0.598573571902239
20199.9999999865,30.2889635948073,1.00000000104042,0.593818677774335
20299.9999999851,30.2416198235219,1.00000000110276,0.598071860905639
20399.9999999836,30.1866655243008,1.00000000109562,0.607796400798423
20499.9999999822,30.1237985914489,1.00000000113588,0.609997701318598
20599.9999999807,30.0555623920151,1.00000000105861,0.610962787268575
20699.9999999793,29.9861814563946,1.00000000094447,0.609643504867518
20799.9999999778,29.9193480634765,1.0000000009419,0.610348842079545
20899.9999999764,29.8564388933835,1.0000000008837,0.610395404725884
20999.9999999749,29.7981027822029,1.00000000091801,0.613677775878554
21099.9999999734,29.743945425843,1.00000000097442,0.607864060321404
21199.999999972,29.6940362476799,1.00000000096009,0.599555676785728
21299.9999999705,29.6469535192011,1.00000000102448,0.604733765427262
21399.9999999691,29.603347431082,1.00000000105869,0.601303679035367
21499.9999999676,29.5616885848531,1.0000000010381,0.594125069262148
21599.9999999662,29.5221754686833,1.00000000104146,0.582209215754511
21699.9999999647,29.4852750261647,1.00000000101857,0.580479083435871
21799.9999999633,29.4546107004706,1.00000000094861,0.576735975156459
21899.9999999618,29.4330406302497,1.00000000092335,0.577203879466172
21999.9999999603,29.4211971391653,1.00000000091943,0.583772782659452
22099.9999999589,29.4191372640966,1.00000000093028,0.57906451505451
22199.9999999574,29.4245338533091,1.00000000094734,0.57315202330963
22299.999999956,29.4344022399596,1.00000000095334,0.57334545301889
22399.9999999545,29.4477333298618,1.00000000102458,0.56970622306604
22499.9999999531,29.4649778263814,1.00000000095966,0.562825109179828
22599.9999999516,29.4863990210118,1.00000000098093,0.558662016804305
22699.9999999502,29.512841492143,1.00000000095762,0.55748951559536
22799.9999999487,29.5444883815596,1.00000000095649,0.563847190637133
22899.9999999473,29.5779414828954,1.00000000102575,0.566604227478578
22999.9999999458,29.6115755437013,1.00000000098654,0.56506771864546
23099.9999999443,29.6465428588656,1.00000000097428,0.566964333538078
23199.9999999429,29.6812449337275,1.00000000104168,0.56733492699057
23299.9999999414,29.7143429314395,1.00000000104216,0.570519105558496
23399.99999994,29.7426856103656,1.00000000102206,0.573589997770865
23499.9999999385,29.7665322514011,1.00000000107876,0.579931772408763
23599.9999999371,29.7867323564761,1.00000000103373,0.584319556345737
23699.9999999356,29.806069072178,1.00000000100364,0.596124127613862
23799.9999999342,29.8240694943415,1.00000000101022,0.603340892279936
23899.9999999327,29.8410008199812,1.0000000010239,0.611142851526818
23999.9999999312,29.856057381074,1.00000000104425,0.613485068331001
24099.9999999298,29.8679094519208,1.00000000112053,0.612647767676872
24199.9999999283,29.8770511869287,1.00000000101872,0.616555815488781
24299.9999999269,29.8845194821785,1.00000000101298,0.616480193624133
24399.9999999254,29.889937238141,1.00000000103357,0.616229168511474
24499.999999924,29.8937810746041,1.00000000101377,0.610740967037218
24599.9999999225,29.8964683366347,1.00000000104568,0.608140208644483
24699.9999999211,29.8951047527538,1.00000000109406,0.60290475020818
24799.9999999196,29.8894510458789,1.00000000106305,0.61262328978588
24899.9999999181,29.8814874478025,1.00000000102797,0.618614778065199
24999.9999999167,29.8716010801837,1.0000000010382,0.615955082601791
25099.9999999152,29.8619157187152,1.0000000010074,0.614293176710937
25199.9999999138,29.8510099982494,1.00000000109147,0.619378117308831
25299.9999999123,29.8368377132866,1.00000000105857,0.625683025408781
25399.9999999109,29.8216303222057,1.00000000099852,0.617888141151796
25499.9999999094,29.8068101275917,1.00000000100439,0.611040751791786
25599.999999908,29.7907725414751,1.00000000102836,0.611859325602334
25699.9999999065,29.7724891139629,1.00000000107649,0.614232767619932
25799.9999999051,29.7504431785623,1.00000000110833,0.620890189493071
25899.9999999036,29.7237828310713,1.00000000111599,0.617811818574608
25999.9999999021,29.6947414621255,1.00000000105722,0.618359663356081
26099.9999999007,29.6641368494054,1.00000000105484,0.625717367216358
26199.9999998992,29.6309370225129,1.00000000105944,0.625162866882289
26299.9999998978,29.5968004175873,1.00000000104024,0.621343157032396
26399.9999998963,29.5620322456894,1.00000000105878,0.626518175795
26499.9999998949,29.5245131324498,1.00000000110109,0.623645537685978
26599.9999998934,29.4859322762221,1.00000000101446,0.611321279184273
26699.999999892,29.4468536087216,1.00000000097578,0.609586349709755
26799.9999998905,29.4060367299704,1.00000000106653,0.613302297036986
26899.999999889,29.3613495621678,1.00000000106963,0.620574554773278
26999.9999998876,29.3130983867469,1.0000000010969,0.620943448998052
27099.9999998861,29.2620508995165,1.00000000105733,0.617218267858296
27199.9999998847,29.2080442822965,1.00000000114434,0.619100300144626
27299.9999998832,29.1503778660633,1.00000000112095,0.622481018438088
27399.9999998818,29.0899066640617,1.00000000107525,0.626718025588508
27499.9999998803,29.0273715597141,1.00000000106986,0.628890010776436
27599.9999998789,28.9640077571921,1.00000000107418,0.627286263632322
27699.9999998774,28.9007928293851,1.00000000097882,0.620881707358096
27799.9999998759,28.8389849214086,1.00000000095868,0.613396964520735
27899.9999998745,28.7785220312311,1.00000000096555,0.603420459926844
27999.999999873,28.7210624847329,1.0000000010304,0.598203772764723
28099.9999998716,28.667321743433,1.00000000100818,0.598968004406538
28199.9999998701,28.6169609899384,1.00000000099873,0.606664459771075
28299.9999998687,28.5706851686954,1.00000000107421,0.61139030252084
28399.9999998672,28.5278718706825,1.00000000106565,0.609687336185692
28499.9999998658,28.4874681207967,1.0000000010758,0.610067518415176
28599.9999998643,28.4503507515238,1.00000000107973,0.607080844623287
28699.9999998629,28.4146480192854,1.0000000010885,0.603941885040591
28799.9999998614,28.381597334242,1.00000000104899,0.591866096925452
28899.9999998599,28.3523827826601,1.00000000110464,0.588245686986202
28999.9999998585,28.3258900185707,1.00000000107378,0.583661442026585
