Time,AGPnorm,Energy,Entropy
0,0,1,3.25681694554515e-18
99.9999999999986,0.015398196780622,1.00000000000178,0.0381951093431576
199.999999999993,0.0393639028266518,1.0000000000017,0.114152479836737
300,0.069904036684007,1.00000000018152,0.24951571575676
400.000000000022,0.159078115037404,1.00000000256614,0.432907024243947
500.000000000045,0.692765552777309,1.0000000048873,0.542648618331577
600.000000000068,1.99925079283216,1.00000000564307,0.592002791484892
700.000000000091,3.90581936832708,1.00000000572034,0.604843842794651
800.000000000113,5.86745561610392,1.0000000051207,0.605883171115284
900.000000000136,7.60440896135507,1.00000000450696,0.592909256774119
1000.00000000016,8.83652922715317,1.00000000401267,0.586828978263401
1100.0000000001,9.58042977375037,1.00000000374731,0.579213442756111
1200,9.86788622591478,1.00000000333289,0.576897823276087
1299.99999999991,9.82296951749231,1.00000000381557,0.575856976722275
1399.99999999982,9.56841530831126,1.0000000037774,0.575765315285151
1499.99999999973,9.21229774190273,1.00000000307621,0.502653583994868
1599.99999999964,8.84281730486346,1.00000000320842,0.506529245381366
1699.99999999955,8.43173062454921,1.00000000430808,0.567544935355784
1799.99999999946,8.05131288239839,1.00000000241535,0.464938489532495
1899.99999999937,7.66375290119812,1.00000000401955,0.550057109672717
1999.99999999928,7.31640454821426,1.00000000248842,0.461319680537654
2099.99999999919,6.98863227441386,1.00000000325541,0.525237510543219
2199.99999999909,6.67850310814952,1.00000000428603,0.557150341758357
2299.999999999,6.41508345522109,1.00000000242942,0.464178425047208
2399.99999999891,6.17615635128432,1.00000000413223,0.534548620046524
2499.99999999882,5.95426937783428,1.00000000371156,0.538973776149173
2599.99999999873,5.73631455658875,1.00000000388546,0.537754594348059
2699.99999999864,5.57955284469301,1.00000000264841,0.472899973662546
2799.99999999855,5.44413664171656,1.00000000383746,0.535843754600798
2899.99999999846,5.31001121136514,1.00000000342208,0.54626560193366
2999.99999999837,5.1732490745669,1.00000000378629,0.580069271381815
3099.99999999828,5.03654459120149,1.00000000439334,0.558792460327942
3199.99999999819,4.93715452542981,1.00000000289609,0.501681035060572
3299.99999999809,4.90073026839542,1.00000000381745,0.532455404727041
3399.999999998,4.85243325043169,1.00000000356605,0.553934081167435
3499.99999999791,4.80197551424333,1.00000000372803,0.579498814005808
3599.99999999782,4.75166909522339,1.00000000387574,0.580999005771716
3699.99999999773,4.68054665296467,1.00000000386349,0.604353641592431
3799.99999999764,4.60452149884506,1.00000000412953,0.59971744705803
3899.99999999755,4.52964347886464,1.00000000417952,0.566078677737222
3999.99999999746,4.49328968738691,1.00000000288774,0.515997588584035
4099.99999999738,4.52925165596627,1.00000000367647,0.532042509497299
4199.99999999775,4.56005947815839,1.0000000042713,0.570726558091708
4299.99999999811,4.5802213377832,1.00000000373727,0.576840358594831
4399.99999999848,4.59679984146254,1.00000000397046,0.606525843697008
4499.99999999884,4.59906023542855,1.0000000042334,0.614069631395026
4599.9999999992,4.60043667055211,1.00000000416678,0.628646722365767
4699.99999999957,4.58931472124844,1.00000000407029,0.638986799384358
4799.99999999993,4.56851218485765,1.00000000428554,0.634630443398391
4900.00000000029,4.53240779021332,1.0000000043722,0.64775614841981
5000.00000000066,4.48899306004849,1.00000000380874,0.654008614460007
5100.00000000102,4.44288749249615,1.00000000468657,0.650687202256645
5200.00000000139,4.39893605024015,1.00000000410089,0.615821124928688
5300.00000000175,4.3779418272179,1.00000000361229,0.561311375996102
5400.00000000211,4.42682565970575,1.00000000312666,0.553379404522945
5500.00000000248,4.51587157538729,1.00000000407009,0.578829811265269
5600.00000000284,4.59622133479825,1.00000000402719,0.605389112288784
5700.00000000321,4.66807324315828,1.00000000423833,0.624096181201406
5800.00000000357,4.73257121175308,1.00000000415578,0.633376495210081
5900.00000000393,4.78525137054347,1.00000000435985,0.639685445782619
6000.0000000043,4.82817854903748,1.00000000448631,0.666635960123178
6100.00000000466,4.8485565665403,1.00000000421455,0.665352668017933
6200.00000000502,4.86517059097423,1.00000000475469,0.676307997388627
6300.00000000539,4.87636166714018,1.00000000453114,0.6571424248113
6400.00000000575,4.89199274915144,1.0000000040324,0.661527720953495
6500.00000000612,4.90579942023143,1.00000000475181,0.685260823336922
6600.00000000648,4.90899245004449,1.00000000432596,0.65726477013175
6700.00000000684,4.91423155907824,1.00000000389688,0.653862386382769
6800.00000000721,4.9193508537844,1.00000000484752,0.68080841244506
6900.00000000757,4.91816555879802,1.00000000488717,0.689684555768153
7000.00000000793,4.90560042724142,1.00000000394562,0.666686371487828
7100.0000000083,4.89471948121552,1.00000000476766,0.671013554698906
7200.00000000866,4.87910112212672,1.00000000467672,0.671699660013856
7300.00000000903,4.85544177763879,1.00000000505222,0.679810954119756
7400.00000000939,4.82141521989965,1.00000000499928,0.658777806158086
7500.00000000975,4.78333551561156,1.00000000470312,0.66886598222393
7600.00000001012,4.74430787922591,1.00000000476988,0.679727465153918
7700.00000001048,4.70708032053743,1.00000000512531,0.692035079243676
7800.00000001084,4.67347005620075,1.00000000482074,0.678232479625178
7900.00000001121,4.64942266837377,1.0000000043034,0.628321881357857
8000.00000001157,4.66004320255557,1.00000000390211,0.585920810572085
8100.00000001194,4.73440945582442,1.00000000382368,0.584085051519535
8200.0000000123,4.85797104243807,1.00000000421321,0.59771835738442
8300.00000001266,4.99176646315382,1.0000000047678,0.609709089223964
8400.00000001303,5.11997730275479,1.00000000473837,0.614692601065234
8500.00000001339,5.24109524500814,1.00000000450214,0.615890710315089
8600.00000001376,5.35541457042186,1.0000000047449,0.625329419882289
8700.00000001412,5.46628456265843,1.0000000047545,0.636826666209196
8800.00000001448,5.56196814605575,1.00000000496855,0.661191145468163
8900.00000001485,5.64730407451659,1.00000000498226,0.679691639963943
9000.00000001521,5.72339784371466,1.0000000052556,0.689251553611772
9100.00000001557,5.7990788674251,1.00000000511362,0.691725608346527
9200.00000001594,5.8565033118893,1.00000000523502,0.674463762220605
9300.0000000163,5.89935407044117,1.00000000528009,0.687673255264302
9400.00000001667,5.94120208786032,1.0000000049527,0.694684470061568
9500.00000001703,5.99220713491303,1.00000000548472,0.70359292581998
9600.00000001739,6.03742788535661,1.00000000522042,0.697729940992921
9700.00000001776,6.07443213404533,1.00000000542278,0.71438411188202
9800.00000001812,6.11411519905057,1.00000000426202,0.699292606425408
9900.00000001848,6.15564806379745,1.00000000581065,0.711623076292562
10000.0000000188,6.18868472851921,1.00000000517327,0.70369090630484
10100.0000000192,6.2229347661011,1.00000000554588,0.711643318855187
10200.0000000196,6.25616465342453,1.00000000546825,0.694165758063743
10300.0000000199,6.29107464632965,1.00000000507179,0.694384998880055
10400.0000000203,6.32969073980089,1.00000000550601,0.685492989680331
10500.0000000207,6.36626771456261,1.00000000514578,0.679694149689821
10600.000000021,6.41421564734448,1.00000000508419,0.699658921456785
10700.0000000214,6.47147416812146,1.00000000542329,0.710650270737115
10800.0000000218,6.53156659149411,1.00000000558849,0.690124526950456
10900.0000000221,6.59615739974707,1.00000000585224,0.69772036892612
11000.0000000225,6.65471430989651,1.00000000547559,0.696248377454079
11100.0000000229,6.71961587348927,1.00000000603879,0.690714429791288
11200.0000000232,6.78921309724697,1.00000000626026,0.699953023321799
11300.0000000236,6.87035346349194,1.00000000554736,0.706745016979213
11400.0000000239,6.95128033842662,1.00000000610148,0.707764998764924
11500.0000000243,7.02568657527024,1.00000000591757,0.706117528007843
11600.0000000247,7.10176779847815,1.00000000630173,0.722567891704061
11700.000000025,7.17531306355413,1.00000000595964,0.720942794538964
11800.0000000254,7.24908456703129,1.00000000646717,0.720342535893928
11900.0000000258,7.33417358033646,1.00000000638197,0.70897895018842
12000.0000000261,7.42170373583748,1.00000000637132,0.725819754247578
12100.0000000265,7.49926203502286,1.00000000597525,0.724395744993664
12200.0000000269,7.57689803924262,1.00000000600566,0.707432966520991
12300.0000000272,7.65558174643474,1.00000000544933,0.711781120173183
12400.0000000276,7.74047888247297,1.00000000604287,0.730086241795958
12500.0000000279,7.82972822868443,1.0000000062804,0.719250866574262
12600.0000000283,7.92329587818716,1.00000000630912,0.719078905418315
12700.0000000287,8.03132222199679,1.00000000583148,0.717230750081083
12800.000000029,8.12765019038182,1.00000000665307,0.711742686323894
12900.0000000294,8.22174146392728,1.00000000618607,0.715257589299797
13000.0000000298,8.31014363518489,1.00000000606219,0.707537653909271
13100.0000000301,8.41024897324592,1.00000000633796,0.709136137652745
13200.0000000305,8.50352642907679,1.00000000675029,0.730244818357888
13300.0000000309,8.58729338969096,1.00000000651106,0.725152369058851
13400.0000000312,8.67329187265134,1.00000000682914,0.717723512582616
13500.0000000316,8.77201459549464,1.00000000682051,0.710005148615726
13600.0000000319,8.87502333534873,1.00000000689451,0.727638571056847
13700.0000000323,8.97163592989595,1.00000000706845,0.721943785349171
13800.0000000327,9.05541924008889,1.00000000614477,0.723171320822217
13900.000000033,9.13592436190564,1.00000000657807,0.722086693837073
14000.0000000334,9.22194852571988,1.00000000728924,0.733532846546575
14100.0000000338,9.30039492462975,1.00000000699106,0.726664552603207
14200.0000000341,9.3704431433638,1.0000000065402,0.69872015360472
14300.0000000345,9.43691977935453,1.00000000635555,0.727759403394775
14400.0000000349,9.5037276288789,1.00000000666602,0.72300906532505
14500.0000000352,9.56848400799194,1.00000000700331,0.720396452696322
14600.0000000356,9.63134166686164,1.00000000686896,0.710924743672657
14700.0000000359,9.68645707596821,1.00000000729319,0.718515533020563
14800.0000000363,9.73561004290249,1.00000000675487,0.717535195818293
14900.0000000367,9.76645825307127,1.00000000742698,0.719359403215429
15000.000000037,9.79894487208327,1.00000000694907,0.724405716987266
15100.0000000374,9.83388253791724,1.00000000732666,0.732721857633885
15200.0000000378,9.87521624377064,1.00000000675591,0.732180781845664
15300.0000000381,9.92091279051163,1.00000000680157,0.729975776831706
15400.0000000385,9.9677417298847,1.00000000747634,0.743558013898045
15500.0000000389,10.0249273644033,1.00000000701912,0.73032802339834
15600.0000000392,10.0886502269529,1.00000000730991,0.716394036647488
15700.0000000396,10.1744170393906,1.00000000676759,0.703670158111759
15800.0000000399,10.2685952182155,1.00000000723727,0.683139324057764
15900.0000000403,10.4006878419078,1.00000000668749,0.671709863494363
16000.0000000407,10.5670298766088,1.00000000651614,0.66208417016954
16100.000000041,10.794188348502,1.00000000675452,0.653711906071755
16200.0000000414,11.0851151929397,1.00000000655702,0.651812301817678
16300.0000000418,11.4531777565945,1.00000000617696,0.659420776290994
16400.0000000418,11.8585166223839,1.00000000700102,0.666909785484764
16500.0000000404,12.311311973642,1.00000000665108,0.674118247793198
16600.0000000389,12.7574245406119,1.00000000763564,0.675495817044535
16700.0000000375,13.2197189431302,1.00000000776635,0.681068805634235
16800.000000036,13.6557270132951,1.00000000759369,0.677548803073544
16900.0000000346,14.1055274019658,1.00000000793858,0.676216759272303
17000.0000000331,14.5490554221103,1.00000000687193,0.685703869220422
17100.0000000317,14.9989592683254,1.00000000742767,0.682587801924472
17200.0000000302,15.4666434970559,1.00000000729417,0.688320070043141
17300.0000000287,15.9265478150541,1.00000000698134,0.685436101738955
17400.0000000273,16.4161769774547,1.00000000770646,0.697117518220942
17500.0000000258,16.9107911703079,1.000000008,0.70431661762956
17600.0000000244,17.4196632583446,1.00000000675009,0.707146245173645
17700.0000000229,17.9229284552463,1.00000000727385,0.70551985008718
17800.0000000215,18.4154638025059,1.00000000775653,0.717676954858025
17900.00000002,18.9049567289819,1.0000000082327,0.72646833362382
18000.0000000186,19.3648211586402,1.00000000698061,0.728216425319809
18100.0000000171,19.8255083645117,1.00000000759886,0.740907703382706
18200.0000000156,20.2620790304257,1.00000000770573,0.751994469438726
18300.0000000142,20.6960408483075,1.00000000716041,0.742554392843768
18400.0000000127,21.1274412089555,1.00000000801154,0.74204752677421
18500.0000000113,21.5587889245082,1.00000000737231,0.743948779926743
18600.0000000098,21.9790194984864,1.00000000776192,0.732332107421578
18700.0000000084,22.3739037058845,1.00000000778007,0.727155774369118
18800.0000000069,22.7619327148649,1.00000000840705,0.736206159380624
18900.0000000055,23.1248455472317,1.00000000820956,0.730442527370507
19000.000000004,23.500418967607,1.0000000077753,0.730591750652024
19100.0000000026,23.8708394760485,1.0000000082547,0.73675803089505
19200.0000000011,24.2464636024988,1.00000000740468,0.733426012845191
19299.9999999996,24.6311234626078,1.00000000790501,0.745914082609605
19399.9999999982,25.0243772041431,1.00000000842804,0.740839833407503
19499.9999999967,25.4243227933636,1.00000000741505,0.742921623358741
19599.9999999953,25.8298234980824,1.00000000713399,0.741167164650066
19699.9999999938,26.2552160153232,1.00000000864936,0.743665025777585
19799.9999999924,26.6843880566676,1.00000000780306,0.744540421010332
19899.9999999909,27.0917524637472,1.000000008722,0.742538326646768
19999.9999999895,27.4857012845387,1.00000000825478,0.748490862726451
20099.999999988,27.8899479821607,1.00000000775942,0.736179000034228
20199.9999999865,28.3203668150108,1.00000000779733,0.746095918823923
20299.9999999851,28.7551150090815,1.0000000075666,0.743972027361673
20399.9999999836,29.2054592244491,1.00000000785328,0.754013933996733
20499.9999999822,29.6617589320354,1.0000000083745,0.751519074147156
20599.9999999807,30.1011007319275,1.00000000829748,0.753584544710985
20699.9999999793,30.5254957920254,1.00000000818511,0.732517755038237
20799.9999999778,30.9346189205621,1.00000000818613,0.751644909877269
20899.9999999764,31.3481866876312,1.00000000809654,0.733578772059095
20999.9999999749,31.7763481792129,1.0000000081447,0.753440125619364
21099.9999999734,32.2014981336929,1.00000000858421,0.744995478852803
21199.999999972,32.6240390667849,1.00000000887121,0.747959479351616
21299.9999999705,33.0559693871403,1.00000000762665,0.744130153794883
21399.9999999691,33.4904097889655,1.00000000867991,0.742740187694625
21499.9999999676,33.9260479253984,1.00000000815926,0.727644657514062
21599.9999999662,34.3676961581216,1.00000000820859,0.732857932488254
21699.9999999647,34.8113111789404,1.00000000855997,0.74567509341894
21799.9999999633,35.262597348382,1.00000000885649,0.74404874997555
21899.9999999618,35.7260264785491,1.00000000788409,0.75101608869285
21999.9999999603,36.1768644963688,1.00000000845884,0.738110047399924
22099.9999999589,36.6282092645611,1.00000000849909,0.746611392195687
22199.9999999574,37.0851518026693,1.00000000806388,0.733142536975456
22299.999999956,37.5493626507859,1.000000008343,0.739233509395142
22399.9999999545,38.0157374867544,1.00000000892332,0.752093887080619
22499.9999999531,38.4767474669556,1.0000000097636,0.753402546727807
22599.9999999516,38.9515290777414,1.00000000781229,0.744044893441652
22699.9999999502,39.443206927278,1.00000000873685,0.750041356734908
22799.9999999487,39.9463393840696,1.00000000829481,0.74808922364251
22899.9999999473,40.4526625180059,1.00000000896995,0.748795701558586
22999.9999999458,40.9476774519461,1.00000000917458,0.743125790325314
23099.9999999443,41.4420885992209,1.00000000878554,0.760690511351406
23199.9999999429,41.9438198202092,1.00000000809853,0.750007170719275
23299.9999999414,42.4565025997718,1.0000000084462,0.744872495275868
23399.99999994,42.9781323923298,1.00000000883629,0.749066014687065
23499.9999999385,43.5055652986202,1.00000000789466,0.748490295019846
23599.9999999371,44.0447601251247,1.00000000919377,0.742261263617972
23699.9999999356,44.5876030115359,1.00000000784227,0.749459129545138
23799.9999999342,45.1444465280397,1.0000000094011,0.742375598825034
23899.9999999327,45.7081345015748,1.00000000903355,0.747833790990121
23999.9999999312,46.2749093777987,1.00000000908305,0.756495713706058
24099.9999999298,46.8297468943485,1.0000000084012,0.758907467820407
24199.9999999283,47.3796269264197,1.00000000997351,0.753739223534357
24299.9999999269,47.9283654335778,1.00000000950299,0.755567266317757
24399.9999999254,48.4720675432118,1.00000000861033,0.752206128863225
24499.999999924,49.0199158427454,1.00000000967242,0.748899940320218
24599.9999999225,49.5793190496979,1.00000000964104,0.745081083893415
24699.9999999211,50.1507121105313,1.00000000916377,0.751977464882575
24799.9999999196,50.7181965549605,1.00000000931638,0.74983665652051
24899.9999999181,51.276113200801,1.00000000926766,0.748501166233446
24999.9999999167,51.8370157655718,1.00000000922375,0.750050548783697
25099.9999999152,52.4137368041512,1.00000000954992,0.74978720485528
25199.9999999138,52.9994651670545,1.00000000962695,0.746603433717124
25299.9999999123,53.5822937291669,1.00000000886562,0.758805221713359
25399.9999999109,54.1646649309246,1.00000000924815,0.748356221482125
25499.9999999094,54.7610678352622,1.00000000910622,0.739807825806998
25599.999999908,55.3764858357982,1.00000000993556,0.744274386889293
25699.9999999065,55.9946885840053,1.00000000928198,0.748042921872782
25799.9999999051,56.6128454104759,1.0000000097753,0.74392932406297
25899.9999999036,57.2257204037504,1.00000001001963,0.752769524720641
25999.9999999021,57.8364113132345,1.00000000975065,0.75905855877651
26099.9999999007,58.4444233983114,1.00000000907777,0.747560430550896
26199.9999998992,59.0616839020189,1.00000001091716,0.751940252393658
26299.9999998978,59.682995713497,1.00000000961324,0.745741425897025
26399.9999998963,60.3039375088599,1.00000000955358,0.761538087571013
26499.9999998949,60.9285166970059,1.00000000939774,0.763979100411982
26599.9999998934,61.554451027917,1.00000001092507,0.770451259481659
26699.999999892,62.1760410401187,1.00000000998866,0.752425155936036
26799.9999998905,62.8023071079147,1.00000000998218,0.75463080006393
26899.999999889,63.4317408046511,1.00000001038822,0.754906781701992
26999.9999998876,64.0782296715077,1.00000001008912,0.751143510063061
27099.9999998861,64.7433533119963,1.00000000939568,0.752842071337305
27199.9999998847,65.4248901232872,1.00000001014899,0.758667770125223
27299.9999998832,66.108776957274,1.00000001079341,0.756679497242093
27399.9999998818,66.7896328936922,1.00000000949078,0.764186277825695
27499.9999998803,67.4633703747069,1.00000000977245,0.765016722610362
27599.9999998789,68.1360310179475,1.00000001059768,0.757829113378177
27699.9999998774,68.8115228584842,1.00000000969678,0.757868036116798
27799.9999998759,69.4823792041131,1.00000000979836,0.764353084691872
27899.9999998745,70.1537027200458,1.00000001076034,0.768065465558373
27999.999999873,70.8405934512781,1.000000009694,0.759434149041601
28099.9999998716,71.5377726820867,1.00000001026668,0.756908875852178
28199.9999998701,72.2435035522207,1.00000001047292,0.758840368112463
28299.9999998687,72.9506740053245,1.0000000101709,0.766851261892005
28399.9999998672,73.6507443924651,1.00000000972707,0.761541486807103
28499.9999998658,74.3625844597549,1.00000001113464,0.759615304630255
28599.9999998643,75.0880118721808,1.00000001071147,0.752841349803197
28699.9999998629,75.8193364299041,1.00000001006911,0.762302697044162
28799.9999998614,76.5562593219674,1.00000001076399,0.762292284659406
28899.9999998599,77.2989058627812,1.00000000990099,0.769112903177322
28999.9999998585,78.0431399397029,1.00000001030629,0.766547554448153
29099.999999857,78.7874503837945,1.00000001062456,0.769968725158809
