Time,AGPnorm,Energy,Entropy
0,0,1,-1.23932562866339e-17
99.9999999999986,4.71268100866906e-05,0.999999999999914,0.00179082417134526
199.999999999993,0.00425674477355335,0.999999999998574,0.00291621273799029
300,0.0103426124684789,1.00000000000082,0.00511736972642742
400.000000000022,0.0142132546295076,0.999999999998782,0.00864470140668171
500.000000000045,0.0175571408783225,0.999999999999551,0.0117317770290653
600.000000000068,0.0250063549666996,1.0000000000004,0.0160784055827244
700.000000000091,0.0306992372394019,0.999999999998252,0.0206652709988054
800.000000000113,0.0386693263671259,1.00000000000079,0.0254732786761006
900.000000000136,0.0487723355684854,0.9999999999992,0.0311031963388069
1000.00000000016,0.0571893550355631,0.999999999998976,0.0367656784575746
1100.0000000001,0.0672399404600745,1.00000000000079,0.0429428899452853
1200,0.0779675878212086,0.999999999998186,0.0496549976751703
1299.99999999991,0.0890848218486772,1.00000000000055,0.056599228693554
1399.99999999982,0.101981753121649,0.999999999999748,0.0641072446143952
1499.99999999973,0.114009164795528,0.999999999998399,0.0720349358021943
1599.99999999964,0.126090861481011,1.00000000000095,0.0803070277357667
1699.99999999955,0.13978918223394,0.999999999998414,0.0893071264607737
1799.99999999946,0.153171668689871,1.00000000000013,0.0988439334783267
1899.99999999937,0.166927541037001,1.0000000000003,0.10899772442075
1999.99999999928,0.180347321041096,0.999999999998025,0.120032279330996
2099.99999999919,0.193427625592037,1.00000000000096,0.13183780656804
2199.99999999909,0.208073069756963,0.999999999999306,0.144998671090781
2299.999999999,0.222236857754201,1.00000000000153,0.159756570910563
2399.99999999891,0.235761697632876,1.00000000000757,0.17616312000966
2499.99999999882,0.247931903395312,1.00000000001988,0.194817428716657
2599.99999999873,0.262336313496155,1.00000000005134,0.2150153205642
2699.99999999864,0.277518910198141,1.00000000009314,0.236465597501143
2799.99999999855,0.290617180813509,1.00000000015857,0.258288136139152
2899.99999999846,0.318495400543843,1.00000000024276,0.279652795417006
2999.99999999837,0.345117183583365,1.00000000032526,0.300708899642102
3099.99999999828,0.399392512313472,1.00000000042797,0.321226986744189
3199.99999999819,0.491503543801827,1.00000000051772,0.340932209484767
3299.99999999809,0.613233204422652,1.00000000062749,0.360254246704251
3399.999999998,0.817196676815663,1.00000000070397,0.37830843711636
3499.99999999791,1.09571955369069,1.00000000080626,0.395597794065382
3599.99999999782,1.47346183795308,1.00000000089875,0.412418980642885
3699.99999999773,1.99233776241541,1.00000000096191,0.427695527555346
3799.99999999764,2.64148491006687,1.00000000105822,0.44252773890633
3899.99999999755,3.45658305895777,1.0000000011069,0.456318711855941
3999.99999999746,4.46287897989663,1.00000000118279,0.468778933738693
4099.99999999738,5.64948648068491,1.00000000120812,0.481338382753177
4199.99999999775,7.05032273345395,1.00000000128598,0.492070926160659
4299.99999999811,8.67429113609071,1.0000000012823,0.502366380421754
4399.99999999848,10.4978328599047,1.00000000134277,0.512229453590362
4499.99999999884,12.5627867465024,1.00000000136269,0.520513913788989
4599.9999999992,14.8468420699307,1.00000000137486,0.529087180255589
4699.99999999957,17.3330097267488,1.00000000138787,0.536503000783106
4799.99999999993,20.0607029298552,1.00000000137313,0.543102755816856
4900.00000000029,22.9644273929454,1.0000000014699,0.549758279169985
5000.00000000066,26.0684935621569,1.0000000014655,0.555216168549379
5100.00000000102,29.3726561849846,1.00000000146277,0.560437561102669
5200.00000000139,32.8088709153927,1.0000000013968,0.565792692376362
5300.00000000175,36.4298030478979,1.00000000143819,0.569497414432638
5400.00000000211,40.1712680872502,1.00000000144816,0.574023685503862
5500.00000000248,44.0196158305241,1.00000000146444,0.577462526906964
5600.00000000284,48.0060773265838,1.00000000143491,0.580347890762164
5700.00000000321,52.0396206887553,1.00000000138943,0.583904063889658
5800.00000000357,56.1630414139785,1.00000000143053,0.585861901306237
5900.00000000393,60.340363160834,1.00000000139055,0.588398384107204
6000.0000000043,64.5255962413379,1.00000000135883,0.590725674547625
6100.00000000466,68.7677137493809,1.00000000133575,0.591924654576233
6200.00000000502,72.9835787352778,1.00000000132401,0.594106543672516
6300.00000000539,77.1938014954716,1.00000000132912,0.595264732023523
6400.00000000575,81.3934385738712,1.00000000127214,0.596069271223833
6500.00000000612,85.5231999720098,1.00000000127596,0.597304546880417
6600.00000000648,89.6323143281126,1.00000000127139,0.597411672338973
6700.00000000684,93.6609970873291,1.00000000122346,0.598783885025394
6800.00000000721,97.6101115148441,1.00000000125345,0.599030642660056
6900.00000000757,101.495207868451,1.00000000123971,0.598851959295472
7000.00000000793,105.259386518831,1.00000000120437,0.599618537057532
7100.0000000083,108.943956018969,1.00000000119697,0.599497319565881
7200.00000000866,112.511961344934,1.0000000011447,0.599867368146215
7300.00000000903,115.953844522872,1.00000000115423,0.599761485778736
7400.00000000939,119.294561012109,1.00000000112617,0.599306701970238
7500.00000000975,122.488245190545,1.0000000011205,0.599344745464619
7600.00000001012,125.564770860433,1.00000000112665,0.599398049221056
7700.00000001048,128.50588300915,1.00000000107558,0.598380438504471
7800.00000001084,131.299190066603,1.00000000105631,0.59927626613541
7900.00000001121,133.970887219383,1.0000000010349,0.597297220456837
8000.00000001157,136.48872068498,1.00000000103668,0.598708165175874
8100.00000001194,138.871380405265,1.00000000099197,0.596755918821286
8200.0000000123,141.118112757938,1.00000000101731,0.5973283263786
8300.00000001266,143.20985372963,1.00000000096864,0.596427852048396
8400.00000001303,145.178429925447,1.00000000096164,0.596309150693974
8500.00000001339,146.994206175822,1.00000000096124,0.595106522889007
8600.00000001376,148.677105186408,1.00000000091227,0.595892311190222
8700.00000001412,150.225532135188,1.0000000009208,0.593532147734658
8800.00000001448,151.63060608056,1.00000000091562,0.595272108287151
8900.00000001485,152.913964143893,1.00000000090204,0.592703002983717
9000.00000001521,154.060780148896,1.00000000088424,0.593424453162431
9100.00000001557,155.081244162312,1.00000000085339,0.593318669706936
9200.00000001594,155.982602969217,1.00000000083803,0.592126111622838
9300.0000000163,156.754588059812,1.00000000082081,0.592165170847194
9400.00000001667,157.419202198501,1.00000000083006,0.593201630102053
9500.00000001703,157.96689725973,1.0000000007846,0.589191394203588
9600.00000001739,158.402515572618,1.00000000077766,0.593194153537507
9700.00000001776,158.742793678747,1.00000000080699,0.591770575491745
9800.00000001812,158.973873346383,1.00000000077535,0.587308635603177
9900.00000001848,159.116105608987,1.00000000080504,0.594473192808828
10000.0000000188,159.171612336926,1.00000000080249,0.58950377093316
10100.0000000192,159.135565738315,1.00000000075041,0.585062890903627
10200.0000000196,159.02304391677,1.00000000082459,0.593466671312145
10300.0000000199,158.837937955094,1.00000000080227,0.587491646542917
10400.0000000203,158.57963375807,1.00000000074258,0.579786405168121
10500.0000000207,158.251494529139,1.00000000081482,0.59237807252149
10600.000000021,157.871674421016,1.00000000081282,0.587368194070058
10700.0000000214,157.431661583595,1.00000000069222,0.572701684906483
10800.0000000218,156.930442197065,1.00000000081221,0.588371591047286
10900.0000000221,156.397327227478,1.00000000084317,0.587499821602127
11000.0000000225,155.818256978946,1.00000000072273,0.570167646102887
11100.0000000229,155.188088896406,1.00000000074796,0.578129221116158
11200.0000000232,154.533682706341,1.0000000008477,0.586478724469717
11300.0000000236,153.850611082661,1.00000000079758,0.575608128174599
11400.0000000239,153.131705413831,1.00000000075754,0.563657257888209
11500.0000000243,152.380743132032,1.00000000087513,0.583013860429736
11600.0000000247,151.615403067503,1.00000000087919,0.579567352298366
11700.000000025,150.83384383561,1.00000000074331,0.569288516067963
11800.0000000254,150.019858381452,1.00000000073031,0.559058111914404
11900.0000000258,149.19121851325,1.00000000089377,0.581535587386928
12000.0000000261,148.359178459492,1.00000000088018,0.574281885006351
12100.0000000265,147.514638304675,1.00000000076437,0.565644085752307
12200.0000000269,146.651286312488,1.00000000073854,0.551508985411425
12300.0000000272,145.775102827281,1.00000000089603,0.580447579414681
12400.0000000276,144.903609066181,1.00000000086675,0.568196737941329
12500.0000000279,144.028161480549,1.00000000079343,0.563193923737624
12600.0000000283,143.139028968291,1.00000000072607,0.548565890258713
12700.0000000287,142.243243549854,1.00000000085948,0.568387161167365
12800.000000029,141.35249648183,1.00000000091262,0.571628095219553
12900.0000000294,140.464741764703,1.0000000008329,0.554909934513377
13000.0000000298,139.5741240286,1.00000000079227,0.553796921262837
13100.0000000301,138.675471143101,1.00000000079228,0.551142566274068
13200.0000000305,137.782086695371,1.00000000093538,0.571642745458061
13300.0000000309,136.894938342017,1.00000000085362,0.555116838755892
13400.0000000312,136.01152115498,1.00000000082859,0.548593066669976
13500.0000000316,135.128591733297,1.0000000008101,0.552412009022363
13600.0000000319,134.244801068601,1.00000000083247,0.555604958499405
13700.0000000323,133.369097172022,1.00000000091449,0.562552069507086
13800.0000000327,132.499863946819,1.00000000086265,0.549960062233587
13900.000000033,131.635582319365,1.00000000082078,0.539796120368017
14000.0000000334,130.775781797107,1.00000000084389,0.552109185476382
14100.0000000338,129.91890258075,1.00000000085378,0.556964318272815
14200.0000000341,129.070158443528,1.00000000088148,0.555439518725837
14300.0000000345,128.228609223063,1.00000000087348,0.550572359109099
14400.0000000349,127.392766732751,1.00000000080592,0.536120984652208
14500.0000000352,126.563737811794,1.00000000084714,0.542116937600909
14600.0000000356,125.739969654487,1.00000000082559,0.555732803733606
14700.0000000359,124.924187835496,1.00000000088243,0.558243237372576
14800.0000000363,124.115998463311,1.00000000083623,0.548106538218051
14900.0000000367,123.314887654877,1.00000000084128,0.541679062519255
15000.000000037,122.520951751256,1.00000000082639,0.536237847956052
15100.0000000374,121.733410345592,1.00000000086254,0.539064349624856
15200.0000000378,120.954290590953,1.00000000085347,0.555333100059069
15300.0000000381,120.182679398661,1.00000000087377,0.559169465093622
15400.0000000385,119.419040930473,1.00000000086992,0.548412219929279
15500.0000000389,118.663490714755,1.00000000078492,0.536252831998371
15600.0000000392,117.914858419756,1.00000000084845,0.539857422232926
15700.0000000396,117.174162500324,1.00000000080172,0.539092439627341
15800.0000000399,116.441593901981,1.00000000082936,0.542346844440348
15900.0000000403,115.717171422244,1.00000000086102,0.559724902608516
16000.0000000407,115.001298336552,1.00000000083961,0.556301028034179
16100.000000041,114.293135739806,1.00000000079813,0.544191363831087
16200.0000000414,113.593203711183,1.00000000079483,0.539485908906928
16300.0000000418,112.901648158937,1.00000000079648,0.538430673537209
16400.0000000418,112.218131606312,1.00000000081668,0.545420591075682
16500.0000000404,111.543173202696,1.00000000080567,0.544803649318223
16600.0000000389,110.876295163888,1.00000000082711,0.553273547519502
16700.0000000375,110.218033286967,1.00000000083115,0.557711235234454
16800.000000036,109.568249973818,1.00000000078756,0.546811642721619
16900.0000000346,108.926713530433,1.00000000079954,0.543199449740962
17000.0000000331,108.293856238166,1.00000000080369,0.536505720982555
17100.0000000317,107.669921757823,1.00000000078423,0.539473142981823
17200.0000000302,107.054021428942,1.00000000087157,0.552274297896554
17300.0000000287,106.445987940692,1.00000000080596,0.551286460824558
17400.0000000273,105.846013383762,1.0000000008785,0.548938257741882
17500.0000000258,105.254097033508,1.00000000083666,0.554718194055162
17600.0000000244,104.671091437354,1.00000000076813,0.547230548224358
17700.0000000229,104.097292642531,1.00000000077598,0.538384674974487
17800.0000000215,103.532073441345,1.00000000086252,0.53752761287446
17900.00000002,102.975307695622,1.00000000082744,0.538462331846451
18000.0000000186,102.42661143004,1.00000000083866,0.542532374206656
18100.0000000171,101.884643986311,1.00000000088052,0.554221650577291
18200.0000000156,101.349175422494,1.00000000084121,0.555126257717612
18300.0000000142,100.82085866504,1.00000000084781,0.550361849016541
18400.0000000127,100.300462307137,1.0000000007962,0.547791611755164
18500.0000000113,99.789581860025,1.00000000079431,0.545100324112195
18600.0000000098,99.2884714758492,1.00000000074404,0.535935230936175
18700.0000000084,98.796131316294,1.00000000083066,0.535224539161496
18800.0000000069,98.3113357121208,1.00000000086532,0.537371120783934
18900.0000000055,97.8335120150322,1.00000000079897,0.539156411493127
19000.000000004,97.3622483968233,1.00000000086017,0.541855550956916
19100.0000000026,96.8952536209585,1.00000000093343,0.559121699562497
19200.0000000011,96.4322462582991,1.0000000008679,0.561546802185201
19299.9999999996,95.9755861660749,1.00000000082218,0.545346797550224
19399.9999999982,95.5277050305801,1.00000000081525,0.542661327711018
19499.9999999967,95.0894062204288,1.00000000078868,0.539912039347135
19599.9999999953,94.6611507565899,1.00000000079859,0.537307858200946
19699.9999999938,94.2415345904997,1.00000000081614,0.535942758494592
19799.9999999924,93.8288339359807,1.00000000086078,0.533987948078572
19899.9999999909,93.421984825758,1.0000000008305,0.53485485649537
19999.9999999895,93.0208507252182,1.0000000008205,0.536899399912946
20099.999999988,92.6236929342819,1.00000000094275,0.543743253303115
20199.9999999865,92.2274622799685,1.00000000093675,0.558544458836076
20299.9999999851,91.8335826810544,1.00000000086883,0.55897499249811
20399.9999999836,91.4458418212076,1.00000000082507,0.543834713093127
20499.9999999822,91.0660831373551,1.00000000078975,0.539475593378924
20599.9999999807,90.6963372097453,1.0000000007702,0.539032737665396
20699.9999999793,90.3364208978222,1.00000000081063,0.539840108350404
20799.9999999778,89.9839475790045,1.00000000084755,0.541911861696817
20899.9999999764,89.6387663216922,1.00000000082236,0.535975922683428
20999.9999999749,89.2994315747957,1.00000000083278,0.533252648191655
21099.9999999734,88.9652872787382,1.00000000082394,0.533348657485324
21199.999999972,88.6351522437932,1.00000000088651,0.540055333362228
21299.9999999705,88.3062379242087,1.00000000091402,0.542431943595801
21399.9999999691,87.976893337929,1.00000000093097,0.54800750295767
21499.9999999676,87.6477194670144,1.00000000088873,0.557210010297341
21599.9999999662,87.3231414419559,1.00000000080879,0.54833169436231
21699.9999999647,87.0058544632501,1.00000000076785,0.538592828448222
21799.9999999633,86.6963855235532,1.00000000080731,0.540605342913778
21899.9999999618,86.3956358614172,1.00000000080186,0.545378510031662
21999.9999999603,86.1029548779292,1.00000000080055,0.544766885818931
22099.9999999589,85.8177471402911,1.00000000083718,0.541463205776785
22199.9999999574,85.5386847905006,1.00000000082804,0.544686617519969
22299.999999956,85.2645269097459,1.00000000082946,0.540005506731451
22399.9999999545,84.9958196268465,1.00000000082822,0.540320863752976
22499.9999999531,84.730133198421,1.00000000083425,0.541016187181076
22599.9999999516,84.4669524524359,1.0000000008678,0.543414852696534
22699.9999999502,84.2039109941532,1.00000000091943,0.545147120729769
22799.9999999487,83.9396321052902,1.00000000089935,0.544548525289192
22899.9999999473,83.6759823900712,1.00000000085484,0.553326778212534
22999.9999999458,83.4150384050732,1.00000000081722,0.560262539628731
23099.9999999443,83.1593211394693,1.00000000079781,0.55166466564844
23199.9999999429,82.9109074434764,1.00000000081052,0.547321716280717
23299.9999999414,82.6698592698966,1.00000000079059,0.550013538629974
23399.99999994,82.4369052271245,1.00000000080547,0.549490174971906
23499.9999999385,82.2119481915037,1.0000000008122,0.548888750525462
23599.9999999371,81.993614007799,1.00000000082845,0.548542429259013
23699.9999999356,81.7801201587607,1.00000000085149,0.553905338235091
23799.9999999342,81.5695077167739,1.00000000085088,0.552217186898024
23899.9999999327,81.3624702554978,1.0000000008178,0.550073803502182
23999.9999999312,81.1590566628717,1.00000000085119,0.547619444081126
24099.9999999298,80.9590927120889,1.00000000083972,0.547162384436359
24199.9999999283,80.7619282578749,1.00000000083266,0.549200292082438
24299.9999999269,80.5641214571324,1.00000000090564,0.547066547847101
24399.9999999254,80.3651421125591,1.00000000090452,0.546710641402856
24499.999999924,80.1642084398303,1.00000000088145,0.557686324046831
24599.9999999225,79.9638220121151,1.00000000089979,0.564680699558272
24699.9999999211,79.7660022669063,1.00000000083224,0.563787009760105
24799.9999999196,79.5725476395328,1.00000000083406,0.556519664833199
24899.9999999181,79.3861198758809,1.00000000079096,0.550982412082977
24999.9999999167,79.2077974028369,1.00000000078024,0.55058163979547
25099.9999999152,79.0366572663469,1.00000000080104,0.552501293886962
25199.9999999138,78.8733087741711,1.00000000080354,0.551107639544862
25299.9999999123,78.7146567235937,1.00000000085041,0.556622902592893
25399.9999999109,78.5587599519113,1.00000000088287,0.559376182138039
25499.9999999094,78.403612924934,1.00000000089919,0.561173822638989
25599.999999908,78.249800615312,1.00000000085032,0.553548482896237
25699.9999999065,78.10014623322,1.0000000008141,0.553811187072269
25799.9999999051,77.9533445136639,1.00000000083001,0.552733945452653
25899.9999999036,77.8095785051866,1.0000000008449,0.554326994175583
25999.9999999021,77.6677615767469,1.00000000086721,0.557416607451597
26099.9999999007,77.5255451943753,1.00000000093737,0.553979974342757
26199.9999998992,77.3819643885885,1.00000000087326,0.554638497714642
26299.9999998978,77.2350931838845,1.00000000087782,0.5591879812057
26399.9999998963,77.0861922575471,1.00000000090501,0.568325991114182
26499.9999998949,76.9357917978204,1.00000000089804,0.576387058466806
26599.9999998934,76.7871181452202,1.00000000086312,0.571834556349137
26699.999999892,76.6432548444507,1.00000000084328,0.561177073318665
26799.9999998905,76.5055531075019,1.00000000079507,0.556002754596166
26899.999999889,76.37547699404,1.00000000078793,0.551342788163171
26999.9999998876,76.2523593082599,1.00000000085328,0.556331760357243
27099.9999998861,76.1336948917073,1.00000000083733,0.557001744923217
27199.9999998847,76.0200436514091,1.00000000086882,0.561786010141689
27299.9999998832,75.9082939676682,1.00000000088026,0.56655713219499
27399.9999998818,75.7981160463899,1.00000000087959,0.563425230964916
27499.9999998803,75.6893030520902,1.00000000086721,0.563368618239106
27599.9999998789,75.5814035909602,1.00000000084192,0.559469601026451
27699.9999998774,75.4762336719413,1.00000000085692,0.558234721019678
27799.9999998759,75.373437563265,1.00000000086369,0.56180066787415
27899.9999998745,75.27174893832,1.00000000085933,0.563751184222977
27999.999999873,75.1704375118634,1.00000000088169,0.566650855978525
28099.9999998716,75.0688234750075,1.00000000084911,0.570457944217916
28199.9999998701,74.9674379106318,1.00000000084841,0.568312373797591
28299.9999998687,74.8644118206566,1.00000000090129,0.566309249412606
28399.9999998672,74.7589900414836,1.00000000092555,0.570327212453837
28499.9999998658,74.6510042980496,1.00000000089849,0.573449721820899
28599.9999998643,74.5412422429102,1.00000000088938,0.573336081523756
28699.9999998629,74.4322092405074,1.00000000086821,0.572613888907256
28799.9999998614,74.3258301951807,1.00000000084726,0.573825838228787
28899.9999998599,74.2243358008046,1.00000000080636,0.570676574903447
