Time,AGPnorm,Energy,Entropy
0,0,1,-1.16724853232756e-17
99.9999999999986,4.35128559556279e-05,0.999999999997628,0.00169822010545784
199.999999999993,0.00388885486314178,1.00000000000016,0.00273774320492405
300,0.00953795119229828,0.999999999998761,0.00471527809003549
400.000000000022,0.0131266198533603,0.99999999999842,0.00809744354607157
500.000000000045,0.0158956338856798,1.0000000000002,0.0107904145905959
600.000000000068,0.0228095979557309,0.999999999997813,0.0149053216741253
700.000000000091,0.0281008312665767,0.999999999999652,0.0191519813632162
800.000000000113,0.0356623155260447,0.999999999999359,0.0234061871199764
900.000000000136,0.0446545321992028,0.99999999999807,0.0288120166986222
1000.00000000016,0.0516490722824286,1.00000000000011,0.033829862631221
1100.0000000001,0.0612846729393199,0.999999999998239,0.0395510477328803
1200,0.0714266208856795,0.999999999999139,0.0458268531138342
1299.99999999991,0.0817972412520059,0.999999999999774,0.0519367151223814
1399.99999999982,0.0934263700703437,0.99999999999796,0.0590077314863249
1499.99999999973,0.104001024405964,0.999999999999782,0.0660705978784449
1599.99999999964,0.115720584776574,0.999999999998781,0.0735383434256497
1699.99999999955,0.128584171114953,0.99999999999872,0.0818717209563595
1799.99999999946,0.140741165443077,0.999999999999938,0.0901613219740796
1899.99999999937,0.153487391102045,0.999999999998104,0.0993494957052204
1999.99999999928,0.166207603923575,0.999999999999347,0.109050463400027
2099.99999999919,0.179010403452587,0.999999999999304,0.119214019721036
2199.99999999909,0.192793785000474,0.999999999998521,0.130760107493285
2299.999999999,0.20555139793924,1.00000000000023,0.142822224953842
2399.99999999891,0.218371723572747,0.999999999999651,0.156390611512544
2499.99999999882,0.231139499572446,1.00000000000374,0.171767528592518
2599.99999999873,0.244531814983957,1.00000000001385,0.188547516839839
2699.99999999864,0.257783462155947,1.00000000003119,0.207636051597528
2799.99999999855,0.268726694043568,1.00000000006908,0.227456829769715
2899.99999999846,0.287670033399572,1.00000000011477,0.247785246861271
2999.99999999837,0.300473802517634,1.00000000017921,0.268542244893189
3099.99999999828,0.328463612350578,1.00000000025564,0.288354350829037
3199.99999999819,0.375207203972982,1.00000000032826,0.308333603382951
3299.99999999809,0.427580742000083,1.00000000040391,0.327569442811233
3399.999999998,0.54159749340917,1.0000000005015,0.345723980393471
3499.99999999791,0.688451467271557,1.00000000056949,0.363904268451307
3599.99999999782,0.903413087080623,1.00000000068531,0.380721852532242
3699.99999999773,1.22888627804935,1.00000000076106,0.39685643783147
3799.99999999764,1.62674245008254,1.0000000008313,0.412619604413355
3899.99999999755,2.177655081704,1.00000000088506,0.426965422937443
3999.99999999746,2.87125505842632,1.00000000095298,0.440962303566861
4099.99999999738,3.70741333610943,1.00000000101365,0.454064111955227
4199.99999999775,4.75865382418744,1.00000000106312,0.465890769464181
4299.99999999811,5.97537508814679,1.0000000011224,0.477660214819505
4399.99999999848,7.40381808479248,1.00000000114766,0.48804132622045
4499.99999999884,9.06529904834067,1.00000000116848,0.497968724854988
4599.9999999992,10.916290044935,1.00000000117833,0.507439311975297
4699.99999999957,13.0162813990573,1.00000000124944,0.515644518991813
4799.99999999993,15.3333525527287,1.00000000125508,0.523591558800894
4900.00000000029,17.856804368902,1.00000000123118,0.531197721898496
5000.00000000066,20.623356402811,1.00000000130695,0.537400566596244
5100.00000000102,23.5783119115293,1.00000000131671,0.543889034704082
5200.00000000139,26.7390625399271,1.00000000134595,0.5494375502495
5300.00000000175,30.1019569742639,1.00000000131832,0.554613038037285
5400.00000000211,33.620285335912,1.00000000132446,0.559833411768687
5500.00000000248,37.3210490281581,1.00000000129722,0.563918191193879
5600.00000000284,41.1673878938116,1.0000000012759,0.568028768062531
5700.00000000321,45.1366688144668,1.00000000133266,0.571734919731906
5800.00000000357,49.2425893785423,1.00000000130889,0.574776915213386
5900.00000000393,53.4343706863754,1.0000000012488,0.578191287378995
6000.0000000043,57.7167959781491,1.00000000128052,0.580740111652172
6100.00000000466,62.0778181428994,1.0000000012012,0.583136979450816
6200.00000000502,66.4753178856109,1.00000000127706,0.58536591868949
6300.00000000539,70.9240216108552,1.00000000121734,0.587190783924456
6400.00000000575,75.3890354877219,1.00000000123384,0.588788077718858
6500.00000000612,79.855502289369,1.00000000119201,0.590383296375774
6600.00000000648,84.3281562394752,1.0000000011654,0.591377463360667
6700.00000000684,88.7650688667111,1.00000000121094,0.592762605856338
6800.00000000721,93.1737887369502,1.00000000115289,0.593585546137008
6900.00000000757,97.5388091018787,1.00000000116624,0.593947398718846
7000.00000000793,101.835371344154,1.0000000011554,0.595066238543132
7100.0000000083,106.075134563169,1.00000000110302,0.595297495114677
7200.00000000866,110.226921062025,1.00000000109008,0.595782541910037
7300.00000000903,114.290654043259,1.00000000108837,0.596173160403911
7400.00000000939,118.264765807009,1.00000000110761,0.595916834772786
7500.00000000975,122.123553302367,1.00000000108118,0.596474873314532
7600.00000001012,125.880634524448,1.00000000103634,0.596088700384371
7700.00000001048,129.516633231698,1.00000000102508,0.59630371412781
7800.00000001084,133.025676564241,1.00000000103098,0.596116673224893
7900.00000001121,136.417369417806,1.00000000100204,0.595750800207759
8000.00000001157,139.667318291772,1.00000000099194,0.595828803460377
8100.00000001194,142.791124821369,1.00000000097759,0.595408711296459
8200.0000000123,145.775912094755,1.00000000095687,0.595022948580704
8300.00000001266,148.618489949938,1.00000000096297,0.594882299658403
8400.00000001303,151.327080190419,1.00000000092876,0.594098189146236
8500.00000001339,153.889825884083,1.0000000009352,0.593892992833249
8600.00000001376,156.311003783608,1.00000000087868,0.593417785716108
8700.00000001412,158.593950838576,1.00000000090292,0.592904213887988
8800.00000001448,160.726984447425,1.00000000086523,0.59252253316316
8900.00000001485,162.728579107672,1.0000000008812,0.592255221141064
9000.00000001521,164.583440622783,1.00000000083958,0.590959668499124
9100.00000001557,166.301790203198,1.00000000081192,0.592159764311933
9200.00000001594,167.885335178497,1.00000000081343,0.589754614596276
9300.0000000163,169.328654815548,1.00000000082091,0.59140423859777
9400.00000001667,170.645885077248,1.0000000007877,0.589344538127714
9500.00000001703,171.828969711463,1.00000000077792,0.589280748737374
9600.00000001739,172.885112261235,1.00000000077836,0.589792109907952
9700.00000001776,173.820005317804,1.00000000076012,0.588233558774928
9800.00000001812,174.629475974737,1.00000000075135,0.588960070908997
9900.00000001848,175.326099243645,1.00000000076042,0.589404560986391
10000.0000000188,175.908676084233,1.00000000073492,0.58743482160386
10100.0000000192,176.378933860063,1.00000000073294,0.588037327015129
10200.0000000196,176.748697909877,1.00000000076321,0.589741568046961
10300.0000000199,177.015620803404,1.00000000069766,0.584373223289831
10400.0000000203,177.183835462188,1.00000000072911,0.586550506648068
10500.0000000207,177.264503273714,1.0000000007281,0.590192154588782
10600.000000021,177.257944211931,1.0000000006706,0.580837575782927
10700.0000000214,177.16303514903,1.00000000069584,0.58423024621061
10800.0000000218,176.994467390142,1.00000000074163,0.589778685015263
10900.0000000221,176.758748824853,1.00000000069153,0.578862534857703
11000.0000000225,176.44383594489,1.00000000066927,0.578145454511356
11100.0000000229,176.068112903242,1.00000000074637,0.588574834818973
11200.0000000232,175.645495178036,1.00000000069942,0.580506758586069
11300.0000000236,175.158393320753,1.00000000064008,0.569100207845754
11400.0000000239,174.617869968185,1.00000000073502,0.582883215423064
11500.0000000243,174.042030509872,1.00000000076459,0.582680132603788
11600.0000000247,173.425220679145,1.00000000069193,0.571483346928914
11700.000000025,172.758967394024,1.0000000006579,0.565339812308473
11800.0000000254,172.054687789166,1.0000000007661,0.583971372623578
11900.0000000258,171.331241907642,1.00000000076747,0.57799615495883
12000.0000000261,170.578380010422,1.00000000066262,0.564768831762677
12100.0000000265,169.784886182654,1.00000000064467,0.559809822204504
12200.0000000269,168.970617065891,1.00000000079838,0.583349600240591
12300.0000000272,168.147221822776,1.00000000074695,0.573758422580984
12400.0000000276,167.306257920643,1.0000000006673,0.561824658399012
12500.0000000279,166.433559483204,1.00000000060707,0.549815879963642
12600.0000000283,165.543272711469,1.00000000082114,0.581166854912944
12700.0000000287,164.655835233435,1.00000000079287,0.572505249511199
12800.000000029,163.759723182997,1.00000000070919,0.559646206939784
12900.0000000294,162.845045684867,1.00000000062144,0.546325695796479
13000.0000000298,161.9125951179,1.00000000073727,0.562706139306802
13100.0000000301,160.98267755441,1.00000000082402,0.580050788762858
13200.0000000305,160.058039631718,1.00000000078063,0.557900873280741
13300.0000000309,159.125552509529,1.00000000064553,0.548416063337156
13400.0000000312,158.179861675803,1.00000000067968,0.544611938731431
13500.0000000316,157.230383805443,1.00000000082811,0.566951273966001
13600.0000000319,156.288082458551,1.00000000084637,0.572038202871221
13700.0000000323,155.35355944973,1.00000000075212,0.548432484586385
13800.0000000327,154.414752139819,1.00000000068373,0.543444867526253
13900.000000033,153.469920071227,1.00000000069922,0.546924061014577
14000.0000000334,152.526240758658,1.00000000077101,0.557826869347958
14100.0000000338,151.58977568637,1.00000000086634,0.569548883761717
14200.0000000341,150.662814314094,1.00000000079028,0.545988433378779
14300.0000000345,149.737451116182,1.00000000071125,0.537446591447526
14400.0000000349,148.811242838268,1.00000000070723,0.54887207042463
14500.0000000352,147.887951851512,1.00000000077009,0.548722518191009
14600.0000000356,146.969927306579,1.00000000081419,0.557513958049931
14700.0000000359,146.061641863916,1.00000000083326,0.555027166833888
14800.0000000363,145.159983248698,1.00000000076997,0.534723368406497
14900.0000000367,144.26247174425,1.00000000069175,0.537761489426676
15000.000000037,143.36901360411,1.0000000007418,0.551400641314487
15100.0000000374,142.480375030444,1.00000000075797,0.546306896094599
15200.0000000378,141.5992885962,1.00000000077338,0.546486841440649
15300.0000000381,140.726229097688,1.00000000080322,0.548401237483605
15400.0000000385,139.860026403031,1.00000000075199,0.535168965151511
15500.0000000389,139.000992071947,1.00000000074249,0.532955161007501
15600.0000000392,138.147723374905,1.00000000077005,0.550045339785678
15700.0000000396,137.302087737048,1.0000000007188,0.549934376550674
15800.0000000399,136.463202045313,1.00000000078393,0.539453089487454
15900.0000000403,135.631248862532,1.00000000077462,0.53914328431549
16000.0000000407,134.807443874703,1.00000000077758,0.540942655419491
16100.000000041,133.990982303145,1.00000000071737,0.534750032937371
16200.0000000414,133.182630212609,1.00000000076379,0.537701464900015
16300.0000000418,132.382332959129,1.00000000074119,0.549286493795312
16400.0000000418,131.58951634388,1.00000000075988,0.548827436732422
16500.0000000404,130.804652990126,1.0000000007494,0.538902382393256
16600.0000000389,130.027001684564,1.00000000070082,0.530928632246496
16700.0000000375,129.257031919824,1.00000000072593,0.536461800538704
16800.000000036,128.495332057331,1.00000000077317,0.543682027036174
16900.0000000346,127.741596694236,1.00000000074735,0.539180899781377
17000.0000000331,126.996659634932,1.00000000076038,0.542479040613516
17100.0000000317,126.259900529624,1.00000000073331,0.550730920539438
17200.0000000302,125.531555620951,1.00000000073553,0.544829173506767
17300.0000000287,124.811270450873,1.00000000072738,0.533198185088049
17400.0000000273,124.099002736244,1.0000000006945,0.5294918299125
17500.0000000258,123.395262108567,1.00000000074144,0.535330569845053
17600.0000000244,122.699611491378,1.00000000075495,0.547213531064484
17700.0000000229,122.011973748203,1.00000000074656,0.54449926374735
17800.0000000215,121.33267230152,1.0000000007681,0.542637769847334
17900.00000002,120.66161265241,1.00000000074988,0.548734259219081
18000.0000000186,119.999456394486,1.00000000069565,0.548149971666084
18100.0000000171,119.346270967403,1.00000000066643,0.533706427083632
18200.0000000156,118.702024079654,1.00000000070415,0.529068528041172
18300.0000000142,118.066368809129,1.00000000075879,0.532470561966476
18400.0000000127,117.438847024667,1.00000000072933,0.536533903892423
18500.0000000113,116.819247541572,1.00000000076044,0.548199782168497
18600.0000000098,116.20687785591,1.00000000075493,0.551244388058173
18700.0000000084,115.601798139505,1.00000000077692,0.545674409316657
18800.0000000069,115.004087395611,1.00000000077104,0.549195143602721
18900.0000000055,114.414744390936,1.00000000072269,0.544413022181303
19000.000000004,113.835998334133,1.00000000065228,0.534552013808728
19100.0000000026,113.267183627629,1.00000000066964,0.52731878639034
19200.0000000011,112.706784993876,1.0000000007881,0.531181115834389
19299.9999999996,112.153979074518,1.00000000071645,0.530876127535705
19399.9999999982,111.609073505087,1.00000000073739,0.533807834694327
19499.9999999967,111.070891688369,1.00000000079645,0.54668064756679
19599.9999999953,110.538085154566,1.00000000077495,0.556287426074231
19699.9999999938,110.010793104739,1.00000000075901,0.551517020813023
19799.9999999924,109.489533714676,1.0000000007851,0.546728226475843
19899.9999999909,108.975987732857,1.00000000072313,0.540592785469529
19999.9999999895,108.472886367667,1.00000000066943,0.536255883286684
20099.999999988,107.980613695212,1.00000000069074,0.528990707660765
20199.9999999865,107.497807830682,1.00000000071884,0.52391627956061
20299.9999999851,107.022564086302,1.00000000077994,0.525688525225645
20399.9999999836,106.553711713276,1.00000000075662,0.529094366690807
20499.9999999822,106.091443204142,1.00000000070374,0.528773251483753
20599.9999999807,105.634202288608,1.00000000078987,0.540287731376965
20699.9999999793,105.1794874625,1.00000000082619,0.556996601851081
20799.9999999778,104.727885403045,1.00000000079795,0.554839639682793
20899.9999999764,104.281308610444,1.00000000078455,0.544470977684331
20999.9999999749,103.840715563925,1.0000000007563,0.540585837106264
21099.9999999734,103.408670387228,1.00000000066874,0.534196109106313
21199.999999972,102.987394259121,1.00000000068133,0.530839153595706
21299.9999999705,102.575847080524,1.00000000071267,0.532081637289186
21399.9999999691,102.173258108659,1.00000000071698,0.522967880246544
21499.9999999676,101.777718298501,1.00000000077274,0.523284658820313
21599.9999999662,101.388372764267,1.0000000007617,0.523029157419382
21699.9999999647,101.003897356234,1.0000000007645,0.528521494738272
21799.9999999633,100.622340998971,1.00000000079654,0.533356639392412
21899.9999999618,100.241623562817,1.00000000082133,0.544046903115099
21999.9999999603,99.8611954549487,1.00000000081735,0.556428679967481
22099.9999999589,99.4831511336821,1.00000000080417,0.552762327597089
22199.9999999574,99.1097893539805,1.00000000076903,0.541161949639196
22299.999999956,98.7428013763194,1.00000000075252,0.537482509185586
22399.9999999545,98.3839859567696,1.00000000071851,0.537656089123015
22499.9999999531,98.0343524065423,1.00000000070796,0.535855283890466
22599.9999999516,97.6938507742054,1.00000000068853,0.534627520286777
22699.9999999502,97.3619640628033,1.00000000074502,0.530437946938046
22799.9999999487,97.0373807060624,1.00000000072239,0.524842791991698
22899.9999999473,96.719892402742,1.00000000072407,0.525297246087785
22999.9999999458,96.4074280358033,1.00000000073512,0.528070486193093
23099.9999999443,96.0981276265288,1.00000000074564,0.534483607254269
23199.9999999429,95.7902060452203,1.00000000081848,0.538360502796374
23299.9999999414,95.4811874206891,1.00000000084754,0.543246985061215
23399.99999994,95.1706449550083,1.0000000008431,0.549702002385117
23499.9999999385,94.8608851334098,1.00000000080628,0.555526117486217
23599.9999999371,94.5546174784493,1.00000000071547,0.54948013794834
23699.9999999356,94.2540357652287,1.00000000071087,0.54214131075524
23799.9999999342,93.96021691967,1.00000000073008,0.544212274385905
23899.9999999327,93.6732055660457,1.00000000072206,0.547031785436426
23999.9999999312,93.3943345661725,1.00000000070012,0.544193982639222
24099.9999999298,93.1239284448688,1.00000000068977,0.539252125941124
24199.9999999283,92.8620105532631,1.00000000072404,0.537568604166344
24299.9999999269,92.6068512763568,1.00000000073957,0.532763812616423
24399.9999999254,92.358662831696,1.00000000073092,0.52942320334372
24499.999999924,92.1164582443349,1.00000000073333,0.53303079526574
24599.9999999225,91.8783962817727,1.00000000073371,0.538112013276953
24699.9999999211,91.6416929888117,1.0000000007702,0.546286533532058
24799.9999999196,91.4044037672629,1.0000000007966,0.544634578401596
24899.9999999181,91.165599232273,1.00000000081451,0.545390192651056
24999.9999999167,90.9240661366151,1.00000000084603,0.551162952028476
25099.9999999152,90.6815573827831,1.0000000007808,0.556698636519488
25199.9999999138,90.4421223721192,1.00000000073478,0.555796243453349
25299.9999999123,90.2073003300236,1.00000000070738,0.553631662227403
25399.9999999109,89.977604701897,1.00000000074793,0.55056753023485
25499.9999999094,89.753162801372,1.00000000075504,0.550511150551263
25599.999999908,89.5330582777164,1.00000000077058,0.554091631259215
25699.9999999065,89.3190602879211,1.00000000073821,0.550779152993011
25799.9999999051,89.1130230969401,1.00000000070484,0.543421652373895
25899.9999999036,88.9152916222029,1.00000000069417,0.539924967910531
25999.9999999021,88.7248391612374,1.00000000073186,0.539463263900402
26099.9999999007,88.5399845432523,1.00000000074246,0.536658435095761
26199.9999998992,88.3613578703578,1.00000000072689,0.537277909653611
26299.9999998978,88.1876921720643,1.00000000073432,0.541647599669374
26399.9999998963,88.016326607855,1.00000000077355,0.54604459641006
26499.9999998949,87.8443676143852,1.0000000007932,0.55346073670134
26599.9999998934,87.6706207607325,1.00000000083264,0.555029723049576
26699.999999892,87.4950277970789,1.00000000082551,0.549153777467697
26799.9999998905,87.3165963962772,1.00000000079702,0.553280339490064
26899.999999889,87.1364980319068,1.00000000077614,0.551113825601617
26999.9999998876,86.9574135103413,1.00000000076971,0.551955297516468
27099.9999998861,86.7802464411131,1.00000000075031,0.55830975166256
27199.9999998847,86.6064110498256,1.0000000007523,0.561419065524687
27299.9999998832,86.4347273456138,1.00000000077405,0.563399868399736
27399.9999998818,86.2650735744973,1.00000000078651,0.558476732094655
27499.9999998803,86.0984409652313,1.0000000007522,0.55226412245252
27599.9999998789,85.9354531035497,1.00000000075957,0.553176929864684
27699.9999998774,85.7785176871435,1.00000000071649,0.548356514436851
27799.9999998759,85.6295124199903,1.00000000072243,0.544800953117167
27899.9999998745,85.4874181070083,1.00000000072799,0.541353838313884
27999.999999873,85.352527877711,1.00000000072829,0.540554562284772
28099.9999998716,85.222947583564,1.00000000073989,0.541558721157919
28199.9999998701,85.0980685053469,1.00000000073945,0.541509541722591
28299.9999998687,84.9761472779233,1.00000000075153,0.548094841798062
28399.9999998672,84.8555839169952,1.0000000007603,0.554271053272088
28499.9999998658,84.7343611528679,1.00000000077294,0.559030381117218
28599.9999998643,84.6106348871742,1.00000000080136,0.562865448712398
28699.9999998629,84.4842423766338,1.00000000079855,0.565180259533764
28799.9999998614,84.3559434040764,1.00000000079509,0.559457300746916
28899.9999998599,84.2268251439111,1.00000000077863,0.552910573481296
