Time,AGPnorm,Energy,Entropy
0,0,1,-1.60171325190764e-19
99.9999999999986,0.00413090797191205,1.00000000000091,0.0130382457588509
199.999999999993,0.0116483552866132,1.00000000000034,0.0379716037424926
300,0.0243490121879305,1.00000000000073,0.0741852411826096
400.000000000022,0.0378821659378465,1.00000000000162,0.120388995515511
500.000000000045,0.0528577036641255,1.00000000000913,0.181531492390748
600.000000000068,0.072874634356579,1.00000000010424,0.263969717427993
700.000000000091,0.112139438071232,1.00000000042436,0.360003276319264
800.000000000113,0.357662262787502,1.00000000083277,0.442554749503752
900.000000000136,1.04829915943516,1.00000000123883,0.499827310720517
1000.00000000016,2.48859070760616,1.00000000147137,0.534710158075204
1100.0000000001,4.76636606233136,1.00000000162145,0.554213954438944
1200,7.78885537896068,1.00000000171607,0.562480291747377
1299.99999999991,11.367062032621,1.00000000176984,0.564906890658783
1399.99999999982,15.2037704198,1.00000000169159,0.562236452238529
1499.99999999973,19.0549584636722,1.00000000149331,0.556272010552437
1599.99999999964,22.6892457976997,1.00000000150446,0.547913742648746
1699.99999999955,25.9505288385569,1.00000000130247,0.541234296527201
1799.99999999946,28.7470047276885,1.0000000013021,0.533230579502149
1899.99999999937,31.0102184293111,1.00000000122362,0.528448373830115
1999.99999999928,32.7276760457167,1.00000000110425,0.514420609064308
2099.99999999919,33.9417327848803,1.00000000106297,0.530245851752291
2199.99999999909,34.6527042872151,1.00000000084895,0.481555572543276
2299.999999999,34.9403262292104,1.00000000111959,0.544238255302065
2399.99999999891,34.9859870792043,1.00000000087369,0.497962286047059
2499.99999999882,34.624791311366,1.00000000067926,0.451509659878584
2599.99999999873,34.1187434940122,1.00000000119727,0.566313193981881
2699.99999999864,33.6229865528328,1.0000000009796,0.501212530949018
2799.99999999855,32.8872433891215,1.00000000043015,0.369872946673955
2899.99999999846,32.0316773632416,1.00000000121397,0.516916137936758
2999.99999999837,31.2849150470878,1.00000000148259,0.574852746469489
3099.99999999828,30.6048011743641,1.0000000008764,0.462593143134666
3199.99999999819,29.8136718804679,1.00000000037881,0.314062677879607
3299.99999999809,28.969540233318,1.00000000090989,0.446966992897167
3399.999999998,28.1668768662958,1.00000000132746,0.537783276085522
3499.99999999791,27.466772513403,1.00000000132136,0.564413454288425
3599.99999999782,26.822558174371,1.00000000086764,0.4793265451177
3699.99999999773,26.1574524528612,1.00000000051098,0.322281838552903
3799.99999999764,25.5151307038842,1.0000000005904,0.353673048796617
3899.99999999755,24.8978316562842,1.00000000112784,0.490281583586444
3999.99999999746,24.2885182739423,1.00000000112182,0.522237584548657
4099.99999999738,23.7021534667603,1.00000000115178,0.507428717162083
4199.99999999775,23.1493757940386,1.00000000131748,0.571616281849594
4299.99999999811,22.6340322708812,1.00000000096251,0.51557659697232
4399.99999999848,22.1495731398453,1.00000000042261,0.362771598535831
4499.99999999884,21.7528874518428,1.00000000051501,0.308463714197297
4599.9999999992,21.4458193063446,1.00000000082398,0.398011004587125
4699.99999999957,21.1429936977433,1.00000000114073,0.495339633759639
4799.99999999993,20.792297034464,1.00000000122249,0.547944421179573
4900.00000000029,20.4339786440791,1.00000000081039,0.514667643200291
5000.00000000066,20.0959409716134,1.00000000085696,0.477960970462171
5100.00000000102,19.7438168800384,1.00000000125621,0.508029998998305
5200.00000000139,19.3733516904097,1.00000000141963,0.555448582634135
5300.00000000175,19.0113615535193,1.0000000011576,0.57321729879806
5400.00000000211,18.6701228998791,1.00000000080411,0.49445874426075
5500.00000000248,18.3878231954827,1.00000000045363,0.373270677411498
5600.00000000284,18.2337146933299,1.00000000041789,0.318517869411236
5700.00000000321,18.2190825599634,1.00000000064234,0.351644725057305
5800.00000000357,18.2507126443946,1.00000000107249,0.444178286329696
5900.00000000393,18.2402562276144,1.0000000010784,0.518372991673395
6000.0000000043,18.1853643442435,1.00000000097763,0.527480226879304
6100.00000000466,18.0925814582781,1.0000000009522,0.52448282074239
6200.00000000502,17.9517160007521,1.00000000102219,0.549620496321679
6300.00000000539,17.7798027825782,1.00000000107281,0.536233335947353
6400.00000000575,17.609607425795,1.00000000084807,0.522708474590611
6500.00000000612,17.4496634418698,1.00000000084913,0.517209481154828
6600.00000000648,17.2900039741326,1.00000000091012,0.52830267973848
6700.00000000684,17.1168412016428,1.00000000098476,0.525109834944411
6800.00000000721,16.9193379937319,1.00000000114674,0.539176016343027
6900.00000000757,16.6973464492466,1.00000000137224,0.550856480238384
7000.00000000793,16.4666399789548,1.00000000139333,0.57789912140756
7100.0000000083,16.2393705506139,1.00000000117642,0.569424198893048
7200.00000000866,16.0235614148486,1.00000000079712,0.503947322383093
7300.00000000903,15.8555426054711,1.0000000004678,0.413045640271591
7400.00000000939,15.8003036560237,1.00000000041533,0.346797298866369
7500.00000000975,15.9041542256364,1.00000000049158,0.33340414284616
7600.00000001012,16.151848563961,1.00000000072541,0.364013796788986
7700.00000001048,16.4558950135517,1.0000000009635,0.429720202725189
7800.00000001084,16.7379099602436,1.00000000106129,0.48503708133207
7900.00000001121,16.9542027372117,1.00000000115381,0.527569838573841
8000.00000001157,17.1099829019922,1.0000000010463,0.538844040854517
8100.00000001194,17.2248454286084,1.00000000096341,0.55044242403207
8200.0000000123,17.2918182127122,1.00000000105957,0.572869401981726
8300.00000001266,17.3063590380823,1.00000000104295,0.577763886338206
8400.00000001303,17.2856083345697,1.00000000098385,0.560569341110679
8500.00000001339,17.2415499473614,1.00000000101993,0.553228488929507
8600.00000001376,17.1798831613181,1.0000000010411,0.548454825103992
8700.00000001412,17.0971637905071,1.00000000105614,0.549957384802889
8800.00000001448,17.0054546189566,1.00000000093105,0.542974563602626
8900.00000001485,16.9267199635542,1.0000000008217,0.5319212311421
9000.00000001521,16.8594978776937,1.00000000092772,0.531384910566684
9100.00000001557,16.7862685737692,1.00000000100236,0.536383937072905
9200.00000001594,16.707718566261,1.00000000095128,0.541796924567484
9300.0000000163,16.6304680979367,1.00000000094483,0.541479779026537
9400.00000001667,16.5507798158282,1.00000000089738,0.547450560485719
9500.00000001703,16.4603052989367,1.00000000106772,0.55158801895516
9600.00000001739,16.3547573455025,1.00000000101009,0.563812616782372
9700.00000001776,16.2425319988934,1.00000000098795,0.580035216700364
9800.00000001812,16.1297611773448,1.00000000081552,0.569987622634265
9900.00000001848,16.0186101273245,1.000000000882,0.572390425518128
10000.0000000188,15.9001759999784,1.00000000093264,0.577975047762029
10100.0000000192,15.7709636531035,1.00000000102749,0.576707231005125
10200.0000000196,15.6327898581031,1.00000000115246,0.587451829121217
10300.0000000199,15.4916997956288,1.00000000125725,0.592043475131376
10400.0000000203,15.3560376316926,1.00000000138753,0.594194316822655
10500.0000000207,15.230631257793,1.00000000138303,0.597897777359267
10600.000000021,15.1116686685346,1.00000000116665,0.592865312677064
10700.0000000214,14.9876399927756,1.00000000095566,0.566314810233855
10800.0000000218,14.8540425534606,1.00000000073899,0.51512189344914
10900.0000000221,14.7287707148608,1.00000000056978,0.4573591804346
11000.0000000225,14.6517027601115,1.00000000043414,0.398392202619235
11100.0000000229,14.6717245797345,1.00000000040008,0.358547577974343
11200.0000000232,14.8290550225225,1.00000000039797,0.343788705942872
11300.0000000236,15.1362225520345,1.0000000006003,0.357452171105548
11400.0000000239,15.563758024957,1.00000000072701,0.378854660019777
11500.0000000243,16.0631701494627,1.00000000092507,0.41227250143819
11600.0000000247,16.5627936056726,1.00000000115045,0.454396956044912
11700.000000025,17.0325852340057,1.00000000109577,0.482391084319439
11800.0000000254,17.4513914189913,1.00000000116392,0.512299795228657
11900.0000000258,17.8119686832619,1.0000000011432,0.536972216041955
12000.0000000261,18.1249396024474,1.00000000102052,0.545200930887906
12100.0000000265,18.3937185023852,1.00000000104687,0.551198772940479
12200.0000000269,18.6169788430551,1.00000000107085,0.576817605794663
12300.0000000272,18.7965503189679,1.00000000100658,0.584818555708499
12400.0000000276,18.9379170469473,1.00000000112887,0.585266095427489
12500.0000000279,19.0378266558643,1.00000000103619,0.590617566365386
12600.0000000283,19.1059706827762,1.0000000010575,0.595001713785117
12700.0000000287,19.1445853766085,1.00000000112251,0.602407728635041
12800.000000029,19.1553968943151,1.00000000102427,0.595265694774563
12900.0000000294,19.1523254183581,1.0000000009967,0.5762163963012
13000.0000000298,19.137256823194,1.00000000106238,0.569973818433033
13100.0000000301,19.1052586362109,1.00000000106321,0.57084761071376
13200.0000000305,19.0691819409043,1.00000000087361,0.561863317257642
13300.0000000309,19.0266680030824,1.0000000009908,0.572663195399522
13400.0000000312,18.970882630944,1.00000000098216,0.572187515877773
13500.0000000316,18.9060663566173,1.00000000101709,0.587414744663287
13600.0000000319,18.8329697913529,1.00000000105115,0.581072259459877
13700.0000000323,18.752441503932,1.00000000106837,0.583776163313031
13800.0000000327,18.6649027459818,1.00000000100519,0.590164180807031
13900.000000033,18.5741424898856,1.0000000009467,0.586918926509961
14000.0000000334,18.4858997357326,1.00000000093098,0.571459812637671
14100.0000000338,18.4044249627231,1.00000000079025,0.550651049962749
14200.0000000341,18.3303696029555,1.00000000100125,0.550665194404636
14300.0000000345,18.2549766684926,1.00000000105295,0.55834410583331
14400.0000000349,18.1796834235898,1.00000000110165,0.564851505264634
14500.0000000352,18.101714909351,1.00000000104461,0.56321503429351
14600.0000000356,18.0194373021593,1.00000000099161,0.568021421423746
14700.0000000359,17.9405065642543,1.00000000094603,0.571513464783121
14800.0000000363,17.8722352416983,1.00000000084729,0.566621319861129
14900.0000000367,17.8131464483899,1.00000000100946,0.55596106834792
15000.000000037,17.7541970528725,1.00000000103056,0.563986136059952
15100.0000000374,17.7008230605753,1.00000000088371,0.558498335846522
15200.0000000378,17.6573866176506,1.00000000091516,0.539912015798958
15300.0000000381,17.6156041683861,1.00000000105138,0.535243300869226
15400.0000000385,17.5706717340649,1.00000000108907,0.540894159726096
15500.0000000389,17.5312651242963,1.00000000091511,0.546258484995495
15600.0000000392,17.4979238063738,1.00000000095824,0.567263370892364
15700.0000000396,17.4599768084219,1.00000000107802,0.590705013689604
15800.0000000399,17.4185254301404,1.00000000109946,0.596148210388247
15900.0000000403,17.3739538566896,1.00000000107088,0.584416875233539
16000.0000000407,17.3240348938606,1.00000000116852,0.569291059581435
16100.000000041,17.2723047969887,1.00000000094086,0.567851546036493
16200.0000000414,17.2272902505077,1.00000000087924,0.5760403396252
16300.0000000418,17.1837832101255,1.00000000114207,0.589147487890112
16400.0000000418,17.1345569641727,1.00000000103366,0.596637094232453
16500.0000000404,17.0860321377058,1.00000000094237,0.598317169311592
16600.0000000389,17.0353117831358,1.00000000107931,0.601163244607041
16700.0000000375,16.9762566092536,1.00000000107175,0.608245999662402
16800.000000036,16.912548792065,1.00000000103175,0.605335882226055
16900.0000000346,16.8475086230302,1.00000000101794,0.59871028184743
17000.0000000331,16.779250657511,1.00000000113912,0.608755003625093
17100.0000000317,16.7096461554521,1.00000000105038,0.610917093221799
17200.0000000302,16.6445749049193,1.00000000094562,0.604289694933478
17300.0000000287,16.5817786297781,1.0000000010959,0.599230446353656
17400.0000000273,16.5159519389065,1.00000000112976,0.597046663357451
17500.0000000258,16.4472609118055,1.0000000010943,0.590846710899921
17600.0000000244,16.3792173722787,1.00000000087728,0.601456509980945
17700.0000000229,16.3141765232652,1.00000000101045,0.609673673284575
17800.0000000215,16.2480166355393,1.00000000113994,0.607667725434922
17900.00000002,16.1826496220398,1.00000000096135,0.595327980145903
18000.0000000186,16.1208931624852,1.00000000094393,0.600056780993152
18100.0000000171,16.057913029856,1.00000000110991,0.594463809229342
18200.0000000156,15.9900785052011,1.00000000105818,0.598535443215118
18300.0000000142,15.9201478915246,1.00000000102816,0.599448387096583
18400.0000000127,15.8488889529558,1.00000000100644,0.603308934209871
18500.0000000113,15.7759168073256,1.00000000104566,0.603132073134497
18600.0000000098,15.7014854801189,1.00000000114199,0.614027877329219
18700.0000000084,15.6239991122398,1.00000000115905,0.62523168023267
18800.0000000069,15.545105959922,1.0000000010695,0.623114705869585
18900.0000000055,15.4673618975449,1.00000000090842,0.61013833271694
19000.000000004,15.390970335699,1.00000000107676,0.617658981653058
19100.0000000026,15.312615116057,1.00000000116663,0.630567677344072
19200.0000000011,15.2335051408529,1.00000000110965,0.6234971505085
19299.9999999996,15.1554792486335,1.0000000009637,0.611117853712768
19399.9999999982,15.0779334849129,1.00000000096027,0.598082774083272
19499.9999999967,15.0010396455949,1.00000000103034,0.613758931564284
19599.9999999953,14.9251267271735,1.00000000093707,0.621685905045679
19699.9999999938,14.8500780241679,1.00000000092002,0.612540016874585
19799.9999999924,14.7760350461852,1.00000000089551,0.611212217230093
19899.9999999909,14.7039572116934,1.00000000098142,0.615765938270932
19999.9999999895,14.6345741829719,1.00000000098885,0.622188723622876
20099.999999988,14.5700573419167,1.00000000111397,0.60929545834839
20199.9999999865,14.5125306595009,1.000000001133,0.622614865141324
20299.9999999851,14.4646421127154,1.00000000116953,0.627797795929788
20399.9999999836,14.432730889802,1.00000000131365,0.628462445111666
20499.9999999822,14.4161602383543,1.00000000137432,0.638037268043658
20599.9999999807,14.4267733512473,1.00000000135739,0.638537820621423
20699.9999999793,14.4571707864068,1.00000000140158,0.640467829552172
20799.9999999778,14.5257977846611,1.00000000146974,0.639734613147531
20899.9999999764,14.6125936280032,1.00000000147588,0.627647457008529
20999.9999999749,14.737515147825,1.00000000148538,0.615464518038003
21099.9999999734,14.8721798911319,1.00000000149649,0.604215012836615
21199.999999972,15.0245279482162,1.000000001419,0.593828152802861
21299.9999999705,15.1608875760188,1.00000000125137,0.584988456624484
21399.9999999691,15.274343504358,1.00000000110905,0.573679844624113
21499.9999999676,15.3468218709241,1.00000000095175,0.549689732523623
21599.9999999662,15.3736397569127,1.00000000083343,0.519693882074061
21699.9999999647,15.3588265469706,1.00000000071223,0.491035261518099
21799.9999999633,15.3130015574615,1.00000000064845,0.460570645779028
21899.9999999618,15.2537954512947,1.00000000058358,0.431568080154854
21999.9999999603,15.2094705591549,1.00000000052058,0.407064798601514
22099.9999999589,15.2042342533256,1.00000000046375,0.383307540007959
22199.9999999574,15.269122526326,1.00000000047966,0.364921572951214
22299.999999956,15.4338071424824,1.00000000050007,0.356223018260011
22399.9999999545,15.7056736851699,1.00000000054323,0.355449860468319
22499.9999999531,16.1209008595749,1.00000000058334,0.359909362913835
22599.9999999516,16.6445678022253,1.00000000064079,0.369699922663881
22699.9999999502,17.3072581080468,1.000000000768,0.381258239381821
22799.9999999487,18.0479223963757,1.00000000089251,0.393822609922927
22899.9999999473,18.8672523454739,1.00000000100452,0.407458365970338
22999.9999999458,19.7241236759365,1.00000000120508,0.423780081318652
23099.9999999443,20.5832259626771,1.00000000118687,0.440843349492511
23199.9999999429,21.4545547588301,1.00000000126813,0.454372960389279
23299.9999999414,22.2813011190719,1.00000000120565,0.46962950168581
23399.99999994,23.10328249563,1.00000000124319,0.48895568222447
23499.9999999385,23.8700569169315,1.00000000132355,0.496301786266597
23599.9999999371,24.605096007689,1.00000000122833,0.503455564089734
23699.9999999356,25.2919456646542,1.00000000119095,0.521913868560637
23799.9999999342,25.9421670152844,1.00000000109724,0.5250165524477
23899.9999999327,26.5569990044858,1.00000000116842,0.541014126989811
23999.9999999312,27.1236943602206,1.00000000114063,0.546566732098384
24099.9999999298,27.6690631674375,1.00000000113582,0.558757213161093
24199.9999999283,28.1701170053399,1.00000000112967,0.570452951052533
24299.9999999269,28.6473866511128,1.00000000116684,0.575547254355128
24399.9999999254,29.0855176740159,1.00000000110422,0.578289449764065
24499.999999924,29.4877568446175,1.00000000110588,0.601374381785843
24599.9999999225,29.8566043233301,1.00000000113397,0.613842887443731
24699.9999999211,30.1904293635445,1.00000000119486,0.605464016897443
24799.9999999196,30.5017660124467,1.00000000117285,0.605176384895568
24899.9999999181,30.7638559396837,1.00000000135277,0.625640767870722
24999.9999999167,30.989524922464,1.00000000122377,0.636716126504426
25099.9999999152,31.1806947736766,1.0000000011649,0.629530054873304
25199.9999999138,31.3573636613218,1.00000000108141,0.617242593401718
25299.9999999123,31.5088485809493,1.00000000114402,0.617941863247363
25399.9999999109,31.6328199208541,1.00000000125129,0.624692859277198
25499.9999999094,31.7278325296689,1.00000000124472,0.641203446188796
25599.999999908,31.7959431863817,1.00000000108408,0.632016102009288
25699.9999999065,31.8590161021165,1.00000000104387,0.624732308540963
25799.9999999051,31.9110182203018,1.0000000010458,0.60401869261682
25899.9999999036,31.9571359231594,1.00000000114988,0.607018488323082
25999.9999999021,31.98346595243,1.00000000119657,0.620564573018861
26099.9999999007,31.9916459882251,1.00000000132099,0.631767819875623
26199.9999998992,31.9827948057875,1.00000000113739,0.63040022574321
26299.9999998978,31.9676077392576,1.00000000106006,0.617588335690594
26399.9999998963,31.9534774217982,1.00000000103321,0.61300044864024
26499.9999998949,31.9345307748088,1.0000000011587,0.609987870585023
26599.9999998934,31.9099274161778,1.00000000116432,0.596377237073468
26699.999999892,31.8755504935085,1.00000000109034,0.58934353123815
26799.9999998905,31.8367284072572,1.00000000116457,0.603373972107684
26899.999999889,31.7903741934253,1.00000000121633,0.630525374798681
26999.9999998876,31.7368764617801,1.00000000110866,0.629686337376756
27099.9999998861,31.6831068932412,1.00000000100323,0.606945163687857
27199.9999998847,31.6338484564033,1.00000000106888,0.585806022150091
27299.9999998832,31.5857636291996,1.0000000010809,0.599173717653901
27399.9999998818,31.5256800438715,1.00000000132107,0.594859122069342
27499.9999998803,31.4566639762538,1.00000000126305,0.58895449457593
27599.9999998789,31.3839839022264,1.00000000108278,0.581339126222397
27699.9999998774,31.3127528952802,1.00000000104943,0.576868003814273
27799.9999998759,31.2414514384822,1.00000000110789,0.594678625562314
27899.9999998745,31.1667846354305,1.00000000122684,0.610626578516554
27999.999999873,31.0858646830481,1.00000000120501,0.620657833156516
28099.9999998716,31.0018244148773,1.00000000110393,0.618196263283319
28199.9999998701,30.9222424946013,1.00000000095847,0.59955944815927
28299.9999998687,30.8464003915938,1.00000000106703,0.603083745487203
28399.9999998672,30.7708791274167,1.00000000116212,0.610532687223113
28499.9999998658,30.691885732183,1.00000000126316,0.61209291685644
28599.9999998643,30.6132223685635,1.00000000116438,0.587427737088224
28699.9999998629,30.5411291720477,1.00000000095412,0.569917593602076
28799.9999998614,30.4714431754677,1.00000000119602,0.581453554556843
28899.9999998599,30.398539085262,1.00000000122157,0.597124225502888
28999.9999998585,30.3213228296404,1.00000000122776,0.609078674280998
29099.999999857,30.2446732313373,1.00000000114553,0.599112517589328
