Time,AGPnorm,Energy,Entropy
0,0,1,-1.47758047488462e-17
99.9999999999986,1.09914377990331e-05,1.00000000000142,0.000529346776920608
199.999999999993,0.000988925473985555,0.999999999999606,0.000844128117677906
300,0.00243178382377401,1.000000000001,0.00150926117678077
400.000000000022,0.00345009618243738,1.00000000000069,0.00256623600320308
500.000000000045,0.00426654487423059,0.999999999999732,0.00346788606674666
600.000000000068,0.00595500543996423,1.00000000000149,0.00486890124524495
700.000000000091,0.00730235065690129,0.999999999999744,0.00624601902242277
800.000000000113,0.00952351167797209,1.00000000000073,0.00773584500879528
900.000000000136,0.0120520602597732,1.000000000001,0.009506618443653
1000.00000000016,0.0140108279896109,0.999999999999513,0.0112123004403289
1100.0000000001,0.0166851864188686,1.00000000000146,0.01320117632675
1200,0.0196723080354339,1.00000000000001,0.0152294867533229
1299.99999999991,0.0229588951766578,1.00000000000041,0.0173268101877011
1399.99999999982,0.0263144514707657,1.00000000000124,0.0196349001906549
1499.99999999973,0.0293966261265867,0.999999999999391,0.0219327214760566
1599.99999999964,0.0332532355576114,1.00000000000136,0.0244121958876594
1699.99999999955,0.0376203911301589,1.00000000000035,0.0269595159806157
1799.99999999946,0.0418073953044083,1.00000000000005,0.0295792513832147
1899.99999999937,0.0458501368366069,1.00000000000138,0.0323530524530037
1999.99999999928,0.0500222960432186,0.999999999999429,0.0351497566994175
2099.99999999919,0.0549741417136652,1.00000000000121,0.0380995670756321
2199.99999999909,0.0603093863931049,1.0000000000007,0.0411244316496893
2299.999999999,0.0652004360069272,0.999999999999678,0.0442297286685584
2399.99999999891,0.0699688444707544,1.00000000000144,0.047452312128128
2499.99999999882,0.0752426544411622,0.999999999999652,0.0507244453320425
2599.99999999873,0.0810420538171993,1.00000000000097,0.0541674678642974
2699.99999999864,0.0868518691548958,1.00000000000099,0.0576745501121631
2799.99999999855,0.0922673925039841,0.999999999999362,0.0612689262327145
2899.99999999846,0.0978159011168039,1.00000000000145,0.0649776627147849
2999.99999999837,0.10410661438285,1,0.068768343690946
3099.99999999828,0.110445914833136,1.00000000000063,0.0727501068031653
3199.99999999819,0.116408656620308,1.00000000000117,0.0767913079581141
3299.99999999809,0.122245230002798,0.999999999999226,0.0809294404082858
3399.999999998,0.12853624376109,1.00000000000141,0.0852258085904898
3499.99999999791,0.135508617307114,1.00000000000038,0.0896405637947862
3599.99999999782,0.142100382143785,1.00000000000018,0.0942599825225413
3699.99999999773,0.148125885541502,1.00000000000127,0.0989504067047475
3799.99999999764,0.154391890134627,0.999999999999359,0.103772712953672
3899.99999999755,0.161244432332892,1.00000000000132,0.108847597760233
3999.99999999746,0.16838368385245,1.00000000000073,0.114075523083283
4099.99999999738,0.174948488442282,0.999999999999711,0.119537519607956
4199.99999999775,0.18108770437011,1.00000000000137,0.125142770878286
4299.99999999811,0.18780714065712,0.999999999999719,0.130973450005217
4399.99999999848,0.194931168006821,1.00000000000128,0.137191270965749
4499.99999999884,0.201823945749904,1.00000000000116,0.143642428745144
4599.9999999992,0.208165093036433,0.999999999999675,0.150423478575522
4699.99999999957,0.214598248440204,1.00000000000199,0.157548437183917
4799.99999999993,0.221545127018455,1.0000000000011,0.165076811292618
4900.00000000029,0.228761001052469,1.00000000000274,0.173152602851594
5000.00000000066,0.23539369351926,1.00000000000426,0.181578710122159
5100.00000000102,0.241396780413629,1.00000000000439,0.190407751225412
5200.00000000139,0.249027296893935,1.00000000000929,0.199713868884746
5300.00000000175,0.256146713986102,1.0000000000116,0.209374078706251
5400.00000000211,0.264461866137099,1.00000000001649,0.219409819188599
5500.00000000248,0.273878448817792,1.00000000002283,0.229517166838693
5600.00000000284,0.282692411045314,1.00000000002823,0.239704567647392
5700.00000000321,0.298758550794124,1.00000000003856,0.250048250905764
5800.00000000357,0.31601887617334,1.00000000004668,0.260339476544365
5900.00000000393,0.340012119124304,1.000000000054,0.270600949385906
6000.0000000043,0.375889078804498,1.00000000006561,0.280596897849336
6100.00000000466,0.418525379531431,1.00000000007587,0.290426108892144
6200.00000000502,0.484485478030725,1.00000000009003,0.300172907160397
6300.00000000539,0.568235455037613,1.00000000009835,0.309701201401847
6400.00000000575,0.677706066365617,1.00000000011548,0.318963736715796
6500.00000000612,0.826836221484514,1.00000000012477,0.328041848573274
6600.00000000648,1.00915273726453,1.0000000001345,0.33691711887135
6700.00000000684,1.24711159122203,1.00000000014786,0.345682140073434
6800.00000000721,1.54127429259154,1.0000000001613,0.354030608275585
6900.00000000757,1.89926621867383,1.00000000016133,0.362283978031527
7000.00000000793,2.34082413850828,1.00000000017758,0.370275623988142
7100.0000000083,2.86269962657894,1.0000000001877,0.378041861452148
7200.00000000866,3.48717181607154,1.00000000019809,0.385704632256172
7300.00000000903,4.22032030576267,1.00000000021315,0.392913899884857
7400.00000000939,5.06946318952766,1.00000000022964,0.399999111809655
7500.00000000975,6.05294592543869,1.0000000002494,0.406904642819861
7600.00000001012,7.17355916222308,1.00000000024636,0.413563799649135
7700.00000001048,8.44948502816959,1.00000000026436,0.420042751520683
7800.00000001084,9.88563598630547,1.00000000026195,0.426313376813543
7900.00000001121,11.4920107687881,1.00000000027432,0.432290824833269
8000.00000001157,13.2797319110802,1.00000000028196,0.438207329091414
8100.00000001194,15.255166594298,1.00000000029763,0.443673436800784
8200.0000000123,17.4334115056792,1.00000000028891,0.449191311543444
8300.00000001266,19.8104974523275,1.00000000029362,0.454469357475572
8400.00000001303,22.401778737743,1.00000000030563,0.459432312535736
8500.00000001339,25.2101072963827,1.00000000030992,0.464403531207535
8600.00000001376,28.237775674516,1.00000000032253,0.468944073735719
8700.00000001412,31.5016025594592,1.00000000032354,0.473490876774601
8800.00000001448,34.9845203021548,1.00000000034233,0.477797052448731
8900.00000001485,38.7063928754646,1.00000000034291,0.481881470912936
9000.00000001521,42.6659512017722,1.00000000033108,0.486011745459667
9100.00000001557,46.853038682707,1.00000000033217,0.489824027073516
9200.00000001594,51.2902202753099,1.00000000033767,0.493451357856353
9300.0000000163,55.9497294101894,1.00000000035549,0.497001589339652
9400.00000001667,60.8488249052976,1.00000000035147,0.500298433848895
9500.00000001703,65.989686928274,1.00000000035364,0.503487054635486
9600.00000001739,71.3448166332719,1.0000000003514,0.506631824325586
9700.00000001776,76.9441922685605,1.00000000035626,0.509453653117401
9800.00000001812,82.7549629677384,1.00000000036517,0.512377109772708
9900.00000001848,88.7844893853926,1.00000000037087,0.514888732380542
10000.0000000188,95.0442764220867,1.00000000035445,0.517442862034069
10100.0000000192,101.489530443137,1.00000000038095,0.519888299625278
10200.0000000196,108.155194608039,1.0000000003678,0.522155941131147
10300.0000000199,115.010225013462,1.00000000036625,0.524412061457218
10400.0000000203,122.046568240654,1.0000000003621,0.526512431222002
10500.0000000207,129.287631231369,1.00000000034869,0.528495300954519
10600.000000021,136.677791199576,1.00000000036494,0.530381553093632
10700.0000000214,144.24875382185,1.00000000034822,0.532222317155938
10800.0000000218,151.980068164985,1.00000000035843,0.533824083656337
10900.0000000221,159.845808769377,1.0000000003457,0.535553376006616
11000.0000000225,167.87852669137,1.00000000035701,0.536951341254743
11100.0000000229,176.02217245679,1.0000000003564,0.538417997160537
11200.0000000232,184.296068327077,1.00000000037038,0.539620693152687
11300.0000000236,192.697220904813,1.00000000036204,0.540878551093287
11400.0000000239,201.182586410673,1.00000000035937,0.542016709982744
11500.0000000243,209.789320039431,1.00000000035195,0.543135688494118
11600.0000000247,218.46915301902,1.00000000036372,0.544338312219071
11700.000000025,227.226548559586,1.0000000003469,0.54493912473012
11800.0000000254,236.073235642858,1.00000000035023,0.546064928389949
11900.0000000258,244.95642245837,1.00000000034799,0.546986109014151
12000.0000000261,253.912119756916,1.00000000036949,0.547211283229869
12100.0000000265,262.903932734272,1.00000000035722,0.548403165212438
12200.0000000269,271.922545441256,1.00000000034459,0.548960400306715
12300.0000000272,280.989658214062,1.00000000035064,0.54923129110442
12400.0000000276,290.05075557307,1.00000000035905,0.550193038676143
12500.0000000279,299.136418430373,1.00000000033979,0.550244735535579
12600.0000000283,308.222979467173,1.00000000034353,0.550809459911021
12700.0000000287,317.289658455075,1.00000000034395,0.551597027989546
12800.000000029,326.367206584641,1.00000000034415,0.551254561091097
12900.0000000294,335.402272290409,1.00000000034051,0.551935355512299
13000.0000000298,344.416130644071,1.0000000003345,0.552263318343341
13100.0000000301,353.401960118787,1.00000000033829,0.552065709044161
13200.0000000305,362.325774069018,1.000000000332,0.552747595464953
13300.0000000309,371.223459049892,1.00000000032555,0.552448469959265
13400.0000000312,380.049623073002,1.00000000031364,0.552721242107728
13500.0000000316,388.813481967231,1.00000000032198,0.553089458994094
13600.0000000319,397.524426990527,1.00000000031859,0.552789598935311
13700.0000000323,406.14130786813,1.00000000032647,0.552794395187344
13800.0000000327,414.697250236274,1.00000000030688,0.552765391766664
13900.000000033,423.160467977265,1.00000000030996,0.552866964640136
14000.0000000334,431.527380413663,1.00000000030269,0.55307556982298
14100.0000000338,439.817560900889,1.00000000030801,0.55275705424532
14200.0000000341,447.989924875778,1.00000000029753,0.552636688323641
14300.0000000345,456.070929912712,1.00000000029752,0.552454966444218
14400.0000000349,464.042466230677,1.00000000029386,0.552504813879911
14500.0000000352,471.892971611536,1.00000000029621,0.552392149826654
14600.0000000356,479.645091104193,1.00000000029911,0.551913711154038
14700.0000000359,487.263305921679,1.00000000029349,0.552063937036657
14800.0000000363,494.766613841675,1.00000000030004,0.551751874027421
14900.0000000367,502.147540091441,1.00000000028427,0.551336800679658
15000.000000037,509.387837602532,1.00000000028668,0.551384690312201
15100.0000000374,516.513789362537,1.00000000027759,0.55129549636334
15200.0000000378,523.495217620712,1.00000000027859,0.551042655181154
15300.0000000381,530.342123028274,1.00000000027338,0.550510990313296
15400.0000000385,537.058835413582,1.00000000027901,0.550365355403433
15500.0000000389,543.623243861453,1.00000000027985,0.550183492550376
15600.0000000392,550.060653512944,1.00000000027762,0.549792355719875
15700.0000000396,556.346217378151,1.00000000025794,0.549728021179865
15800.0000000399,562.485937258831,1.00000000027547,0.549768582236835
15900.0000000403,568.491013778321,1.00000000026791,0.549109335419647
16000.0000000407,574.33629795669,1.00000000026118,0.548629868219286
16100.000000041,580.046115361966,1.000000000263,0.548729441452058
16200.0000000414,585.602652364519,1.00000000026558,0.548465121755194
16300.0000000418,591.010578330589,1.000000000261,0.548483371010464
16400.0000000418,596.277533839439,1.00000000026363,0.547566398570244
16500.0000000404,601.387911195569,1.00000000025284,0.548052467498823
16600.0000000389,606.355387640018,1.0000000002491,0.547370054752806
16700.0000000375,611.176183757109,1.00000000025194,0.546885530706474
16800.000000036,615.839833366429,1.00000000025082,0.546296958879563
16900.0000000346,620.366869346154,1.0000000002429,0.546377041810327
17000.0000000331,624.736089316214,1.0000000002481,0.546322364721285
17100.0000000317,628.962635786507,1.00000000023709,0.546180011278398
17200.0000000302,633.043100362267,1.00000000023349,0.545306105722635
17300.0000000287,636.968963125179,1.00000000024285,0.544979282636393
17400.0000000273,640.758128294237,1.00000000023293,0.544063923568666
17500.0000000258,644.394314343961,1.00000000024164,0.544093751739729
17600.0000000244,647.887567024853,1.00000000022489,0.544133756842226
17700.0000000229,651.240482240833,1.00000000023482,0.544577028860982
17800.0000000215,654.444215122613,1.00000000023029,0.544529070873556
17900.00000002,657.514353786454,1.00000000022745,0.543537850139525
18000.0000000186,660.439131557798,1.00000000022999,0.542197120237078
18100.0000000171,663.222357757021,1.00000000022036,0.541015704825039
18200.0000000156,665.871265952375,1.00000000022203,0.540971026611396
18300.0000000142,668.375236919554,1.00000000021874,0.541993299658
18400.0000000127,670.751320650731,1.00000000021796,0.543797068887367
18500.0000000113,672.993142347271,1.00000000021646,0.544110780099469
18600.0000000098,675.103169640844,1.00000000021785,0.543282354698214
18700.0000000084,677.089515269682,1.00000000021021,0.540162810010619
18800.0000000069,678.938120421679,1.00000000020448,0.537921456153007
18900.0000000055,680.660418230774,1.00000000020768,0.536565225155287
19000.000000004,682.25073726737,1.00000000020571,0.538065985789789
19100.0000000026,683.713179682186,1.00000000020973,0.541803057166841
19200.0000000011,685.062823509285,1.00000000020869,0.544840387517019
19299.9999999996,686.295468128305,1.00000000020992,0.545967587176839
19399.9999999982,687.421798341839,1.00000000020336,0.543057534945436
19499.9999999967,688.436227299084,1.00000000019928,0.537759514875122
19599.9999999953,689.329361441934,1.00000000018669,0.532651768952803
19699.9999999938,690.104764502702,1.00000000018218,0.53030538631986
19799.9999999924,690.754769381396,1.00000000018795,0.533731923582708
19899.9999999909,691.29408360347,1.00000000019078,0.540196822737867
19999.9999999895,691.736319731794,1.00000000020433,0.547053611609912
20099.999999988,692.089544154791,1.00000000021446,0.549774848272234
20199.9999999865,692.366356408221,1.00000000020994,0.547233695175069
20299.9999999851,692.556073885396,1.00000000020211,0.539445351002023
20399.9999999836,692.650130417152,1.00000000017696,0.529436209700787
20499.9999999822,692.638016975802,1.00000000016765,0.522382733521982
20599.9999999807,692.509811569239,1.00000000015965,0.522692509249564
20699.9999999793,692.279736185487,1.00000000017304,0.530940692317343
20799.9999999778,691.960448667046,1.0000000001956,0.542320256626488
20899.9999999764,691.574765833872,1.00000000021612,0.55171574737442
20999.9999999749,691.141060767983,1.0000000002224,0.554794930197124
21099.9999999734,690.658130163662,1.0000000002232,0.549629174798547
21199.999999972,690.122567480542,1.00000000020323,0.537788380916476
21299.9999999705,689.512182007783,1.00000000017671,0.522420361490474
21399.9999999691,688.809628467169,1.00000000015132,0.510857643914614
21499.9999999676,688.008902233934,1.0000000001457,0.508724428604844
21599.9999999662,687.112718480641,1.00000000015754,0.519008154517135
21699.9999999647,686.146607044966,1.00000000018865,0.535875263653608
21799.9999999633,685.134930098053,1.0000000002159,0.55125310773513
21899.9999999618,684.098767486891,1.00000000023595,0.558872862362915
21999.9999999603,683.052011062892,1.00000000024345,0.557706759454637
22099.9999999589,681.985047181731,1.00000000022667,0.546783041477331
22199.9999999574,680.883866252282,1.00000000019891,0.528016718569899
22299.999999956,679.722562799404,1.00000000015806,0.506663330012652
22399.9999999545,678.479811052482,1.00000000013166,0.492466925087011
22499.9999999531,677.152378682828,1.00000000012822,0.492221504445593
22599.9999999516,675.746806891021,1.00000000015369,0.508379154408662
22699.9999999502,674.291316512585,1.00000000018825,0.53196695348299
22799.9999999487,672.813496826213,1.00000000023354,0.551497284853587
22899.9999999473,671.334782900042,1.00000000026316,0.562348885819634
22999.9999999458,669.869785257041,1.00000000025987,0.56281220854027
23099.9999999443,668.412167414653,1.00000000024916,0.552970217871539
23199.9999999429,666.947647026055,1.00000000021372,0.533534809402886
23299.9999999414,665.452092331545,1.00000000017718,0.507112880678882
23399.99999994,663.898067654649,1.00000000013245,0.48269398092817
23499.9999999385,662.274363876636,1.00000000011102,0.471201274567948
23599.9999999371,660.57739867395,1.00000000012346,0.478762311063687
23699.9999999356,658.826845638428,1.00000000015131,0.504200309932595
23799.9999999342,657.048912011831,1.00000000020652,0.533159079699458
23899.9999999327,655.268765292196,1.00000000025124,0.554748195341225
23999.9999999312,653.508822636406,1.00000000027742,0.565478320737887
24099.9999999298,651.776410516478,1.00000000027734,0.566507338844884
24199.9999999283,650.06872831844,1.00000000026704,0.557526887234249
24299.9999999269,648.373233434618,1.0000000002368,0.538719654670132
24399.9999999254,646.665238403801,1.00000000019243,0.510682543494183
24499.999999924,644.923656778262,1.00000000014184,0.479473976396358
24599.9999999225,643.127489260898,1.00000000010784,0.457290762675635
24699.9999999211,641.271691316833,1.00000000010307,0.454560822918785
24799.9999999196,639.365739518648,1.00000000012622,0.472692791326182
24899.9999999181,637.426219962559,1.00000000016898,0.505568664617181
24999.9999999167,635.48015349476,1.00000000022363,0.536208146559982
25099.9999999152,633.547603726914,1.00000000026603,0.5567588336112
25199.9999999138,631.64273112031,1.00000000028157,0.566430533146792
25299.9999999123,629.774029019576,1.00000000029275,0.567102856468315
25399.9999999109,627.936946697735,1.00000000028221,0.559577832850875
25499.9999999094,626.121562315341,1.00000000026156,0.542788192129765
25599.999999908,624.310629358179,1.00000000021194,0.516963384337279
25699.9999999065,622.482900665776,1.00000000015892,0.483179722930584
25799.9999999051,620.623160432821,1.00000000012042,0.453392941386534
25899.9999999036,618.718589984507,1.00000000010277,0.438674354913905
25999.9999999021,616.773052095647,1.00000000010311,0.444544733615813
26099.9999999007,614.795369055215,1.00000000013498,0.468903642645012
26199.9999998992,612.801754550664,1.00000000017861,0.504221726371083
26299.9999998978,610.812249569201,1.00000000024615,0.534663875673897
26399.9999998963,608.840294205768,1.00000000026566,0.554543359924923
26499.9999998949,606.897219486509,1.00000000030344,0.563799831422769
26599.9999998934,604.988627010597,1.00000000030038,0.563827061402682
26699.999999892,603.112232842682,1.00000000029143,0.558380650347147
26799.9999998905,601.262356489181,1.00000000027003,0.545236070026084
26899.999999889,599.427158428153,1.00000000024541,0.526042887414859
26999.9999998876,597.593037375524,1.00000000019702,0.496369705110041
27099.9999998861,595.746358338236,1.00000000014768,0.465355935178097
27199.9999998847,593.875537491333,1.00000000012455,0.439952086488236
27299.9999998832,591.978312264748,1.00000000010219,0.428893860404723
27399.9999998818,590.054529554129,1.00000000011461,0.435758225058838
27499.9999998803,588.112683801483,1.00000000014011,0.45814505843088
27599.9999998789,586.164287175685,1.00000000018795,0.489077225559711
27699.9999998774,584.219492512147,1.00000000022497,0.520310427870158
27799.9999998759,582.290326820754,1.00000000025256,0.542419305881341
27899.9999998745,580.383600754426,1.00000000029102,0.553019571016774
27999.999999873,578.503611103751,1.0000000003068,0.557533295127821
28099.9999998716,576.652444555683,1.00000000027951,0.552532672677955
28199.9999998701,574.826619590258,1.00000000029048,0.546466156194405
28299.9999998687,573.021743594387,1.00000000025815,0.533357198626855
28399.9999998672,571.229746134623,1.00000000022465,0.516535569736317
28499.9999998658,569.442064310589,1.00000000020404,0.494176766484611
28599.9999998643,567.651346350547,1.00000000016545,0.468087643523799
28699.9999998629,565.850099913737,1.00000000014002,0.446719576647743
28799.9999998614,564.036916780913,1.00000000012446,0.431285262884014
