Time,AGPnorm,Energy,Entropy
0,0,1,2.77630296997292e-18
99.9999999999986,0.0100564905572584,0.999999999999212,0.0273111671658169
199.999999999993,0.0265575952575942,1.00000000000102,0.0805042300225646
300,0.0517391926240069,1.00000000000394,0.163980659900867
400.000000000022,0.0787000449765743,1.00000000037555,0.297207018726064
500.000000000045,0.184360190122614,1.00000000189919,0.442379312076675
600.000000000068,0.782387494673559,1.00000000338674,0.531123074692967
700.000000000091,2.19073734414943,1.00000000389177,0.573503505171984
800.000000000113,4.25029300042915,1.00000000379947,0.591482859648754
900.000000000136,6.70747150958239,1.00000000385819,0.590781027101551
1000.00000000016,9.07482982558823,1.00000000337683,0.585766371866686
1100.0000000001,11.1593608634061,1.00000000308008,0.577093808225032
1200,12.740532378406,1.00000000274921,0.566344891517477
1299.99999999991,13.8042035524502,1.00000000261019,0.564531240967137
1399.99999999982,14.371927131553,1.00000000252362,0.567797719109563
1499.99999999973,14.519645953156,1.00000000197929,0.535501055927409
1599.99999999964,14.4268924896485,1.00000000192311,0.514478639560153
1699.99999999955,14.1156558861415,1.00000000323233,0.584261102971606
1799.99999999946,13.6954515617321,1.00000000139588,0.447919644037148
1899.99999999937,13.237313819668,1.00000000312284,0.578233012748204
1999.99999999928,12.7504410590442,1.00000000134111,0.413159165568998
2099.99999999919,12.242157462115,1.00000000340884,0.567578481455032
2199.99999999909,11.7894981027245,1.00000000173169,0.445057631786003
2299.999999999,11.3227222743829,1.00000000215022,0.46508928191003
2399.99999999891,10.8719992863132,1.00000000295208,0.553191608864358
2499.99999999882,10.471222926225,1.00000000174749,0.467932488427176
2599.99999999873,10.1071443049389,1.00000000198056,0.438020669434824
2699.99999999864,9.74789572594546,1.0000000023087,0.514807865809727
2799.99999999855,9.40676439211353,1.00000000298731,0.542588236318448
2899.99999999846,9.09091057822863,1.00000000223723,0.505931306550048
2999.99999999837,8.84752643634786,1.00000000135365,0.412635010613728
3099.99999999828,8.6174322528546,1.00000000266795,0.513288866371243
3199.99999999819,8.38770208424461,1.00000000211664,0.520554561740001
3299.99999999809,8.16545968407922,1.00000000237406,0.546575471565049
3399.999999998,7.93773074885606,1.00000000287461,0.555829986873626
3499.99999999791,7.73751095873134,1.00000000164377,0.487857088963462
3599.99999999782,7.62546638771253,1.00000000180373,0.441716612123815
3699.99999999773,7.53876841245504,1.00000000253357,0.507948421773928
3799.99999999764,7.43128983366036,1.00000000235419,0.538359817587375
3899.99999999755,7.32741166129284,1.0000000023993,0.557730091516867
3999.99999999746,7.20558361239911,1.00000000250894,0.585511356164318
4099.99999999738,7.07954722028884,1.00000000221849,0.567882540422246
4199.99999999775,6.945583583972,1.00000000275577,0.573854687491941
4299.99999999811,6.80518113967211,1.00000000287632,0.574675637932898
4399.99999999848,6.70773754029636,1.00000000159589,0.485138279376523
4499.99999999884,6.70492895359033,1.00000000168959,0.463907044381944
4599.9999999992,6.73092559547683,1.00000000262392,0.514047116881864
4699.99999999957,6.73814265333925,1.00000000246188,0.538661334937216
4799.99999999993,6.72657357538668,1.0000000025248,0.572712333037967
4900.00000000029,6.69532502004341,1.00000000245183,0.58749253259548
5000.00000000066,6.66442974502302,1.00000000224293,0.590225603977248
5100.00000000102,6.62744822664194,1.00000000255371,0.593401474863304
5200.00000000139,6.57155416165345,1.00000000246011,0.581787086131012
5300.00000000175,6.50194806932249,1.0000000023849,0.598298121554459
5400.00000000211,6.43041999261067,1.00000000217096,0.60510822050014
5500.00000000248,6.35301198214391,1.00000000249941,0.60405458060904
5600.00000000284,6.26909841775248,1.00000000288896,0.6133866986607
5700.00000000321,6.18026384836253,1.0000000029821,0.593312265242759
5800.00000000357,6.09904973890117,1.00000000216201,0.553811485268517
5900.00000000393,6.07848054969897,1.0000000014743,0.488412316331749
6000.0000000043,6.14755892406099,1.00000000198559,0.484658223139209
6100.00000000466,6.25500420287021,1.00000000237999,0.518772923327307
6200.00000000502,6.34502381156368,1.00000000256656,0.549148447140359
6300.00000000539,6.41746443673523,1.00000000258622,0.570319744406508
6400.00000000575,6.47316187931591,1.00000000250527,0.590161444050606
6500.00000000612,6.5099962876208,1.00000000272213,0.6134925933402
6600.00000000648,6.52870603638419,1.00000000240949,0.612869577711326
6700.00000000684,6.53754219194249,1.00000000253219,0.626304424506047
6800.00000000721,6.52835238454749,1.00000000274455,0.627251496660243
6900.00000000757,6.50484980535203,1.00000000245766,0.632788736302901
7000.00000000793,6.48835501823544,1.00000000252032,0.622319299511417
7100.0000000083,6.48058404187166,1.00000000240534,0.612488390304628
7200.00000000866,6.46066810304965,1.00000000278169,0.606313452667293
7300.00000000903,6.43252025950741,1.00000000234837,0.617117074005112
7400.00000000939,6.4077366224866,1.00000000233843,0.623693850350077
7500.00000000975,6.37841240239949,1.00000000260863,0.637315040277507
7600.00000001012,6.34689609122021,1.00000000257792,0.632823643820754
7700.00000001048,6.31282884613298,1.00000000246044,0.614820010818731
7800.00000001084,6.27842382132728,1.00000000275456,0.622515349464759
7900.00000001121,6.22950847987316,1.00000000279299,0.642864398499287
8000.00000001157,6.17369869200377,1.00000000256176,0.647506016407547
8100.00000001194,6.11489193318313,1.0000000023251,0.639747661621858
8200.0000000123,6.05574851309954,1.00000000248908,0.649413283289319
8300.00000001266,5.99723714978934,1.00000000280439,0.652920217204837
8400.00000001303,5.94151228643101,1.00000000279518,0.668239340228873
8500.00000001339,5.88731688477623,1.00000000310729,0.659470004772029
8600.00000001376,5.82786217070266,1.00000000297065,0.629227976658772
8700.00000001412,5.77021661109872,1.00000000218548,0.581806534927763
8800.00000001448,5.74461600556471,1.00000000177049,0.531333232678117
8900.00000001485,5.78565628696266,1.00000000181628,0.506243483566236
9000.00000001521,5.90247724977215,1.00000000212801,0.503219772020101
9100.00000001557,6.0616659453564,1.00000000233733,0.521320301416537
9200.00000001594,6.22228476370386,1.00000000293698,0.548895771210464
9300.0000000163,6.37423930824746,1.0000000027878,0.556338745953815
9400.00000001667,6.50991088208073,1.00000000257106,0.570023243325877
9500.00000001703,6.63265547874451,1.00000000286764,0.584881020178866
9600.00000001739,6.73547191801069,1.00000000253728,0.592997782786434
9700.00000001776,6.82670237298319,1.00000000273249,0.61465147196339
9800.00000001812,6.90033835807423,1.00000000279062,0.631731951478842
9900.00000001848,6.96159871579236,1.00000000268324,0.624789749337896
10000.0000000188,7.01318256134065,1.00000000276659,0.623074639525595
10100.0000000192,7.05067166289299,1.00000000302407,0.650034646837388
10200.0000000196,7.0737769114142,1.00000000255912,0.657436172325737
10300.0000000199,7.09485982875471,1.00000000270918,0.651920151447976
10400.0000000203,7.11397777648779,1.00000000265791,0.641580396237099
10500.0000000207,7.12651791185124,1.00000000302351,0.654637450520639
10600.000000021,7.13084323215558,1.00000000263396,0.660646956319019
10700.0000000214,7.13476193926896,1.00000000270281,0.659055246054281
10800.0000000218,7.12915871037171,1.00000000279947,0.664785151936591
10900.0000000221,7.1204238786125,1.00000000290873,0.664562057064113
11000.0000000225,7.10624166717532,1.00000000269354,0.648365332128343
11100.0000000229,7.09302164472283,1.00000000300351,0.660066493710471
11200.0000000232,7.07354179065369,1.00000000289799,0.658585321860369
11300.0000000236,7.0503190906893,1.00000000299334,0.663636547962587
11400.0000000239,7.0260554791729,1.00000000283742,0.656813430078954
11500.0000000243,7.00542450857779,1.00000000293418,0.645983368346949
11600.0000000247,6.9940098003565,1.0000000027686,0.632791709010423
11700.000000025,6.99627620271391,1.00000000254315,0.616078083100317
11800.0000000254,7.01231061564314,1.00000000268841,0.617234672803525
11900.0000000258,7.02327928521302,1.00000000321206,0.634206486256892
12000.0000000261,7.03180584172776,1.00000000292426,0.620252925097353
12100.0000000265,7.03397056462222,1.0000000033333,0.629006849032039
12200.0000000269,7.03845838758921,1.00000000277659,0.634397510143022
12300.0000000272,7.04282875929777,1.00000000307651,0.630515336438686
12400.0000000276,7.04455132834069,1.00000000269697,0.640382161405325
12500.0000000279,7.05117528777444,1.00000000287797,0.657898911744285
12600.0000000283,7.05793532399406,1.00000000317369,0.668429455781095
12700.0000000287,7.05771906504197,1.00000000333754,0.662192341445492
12800.000000029,7.05624675142267,1.00000000291951,0.659651173369212
12900.0000000294,7.0613744251887,1.00000000317669,0.656232738893489
13000.0000000298,7.06570282452705,1.00000000283756,0.653814279817116
13100.0000000301,7.0768785058449,1.00000000305776,0.648986504758041
13200.0000000305,7.08690631760311,1.00000000370056,0.648702488853314
13300.0000000309,7.09041657142769,1.00000000312284,0.667426692370141
13400.0000000312,7.09432755626672,1.00000000314208,0.663012250984605
13500.0000000316,7.10238377595254,1.00000000318,0.659687198183344
13600.0000000319,7.11200207146547,1.00000000312615,0.659737727515061
13700.0000000323,7.12316797027194,1.00000000291274,0.65928837397103
13800.0000000327,7.12856831875998,1.00000000319082,0.680834186182925
13900.000000033,7.13218451271483,1.0000000025588,0.668548229486287
14000.0000000334,7.14035499072415,1.00000000332739,0.674293715298833
14100.0000000338,7.14396574240513,1.00000000293203,0.667885746025645
14200.0000000341,7.14610823218372,1.00000000325413,0.686642102216724
14300.0000000345,7.15022811917506,1.00000000281599,0.668674067698746
14400.0000000349,7.14953378868633,1.00000000333672,0.671548720484923
14500.0000000352,7.14208728463556,1.00000000309371,0.664650034617559
14600.0000000356,7.13756424055874,1.00000000323489,0.662524974532852
14700.0000000359,7.13365593431843,1.00000000340757,0.668478811781944
14800.0000000363,7.13317695048243,1.00000000306165,0.656331742827642
14900.0000000367,7.1320624352446,1.00000000321405,0.673785277634454
15000.000000037,7.12370768012811,1.00000000327775,0.678474203803331
15100.0000000374,7.11252458824309,1.00000000304954,0.677434627417428
15200.0000000378,7.10054923134999,1.00000000304903,0.686958283446929
15300.0000000381,7.08972192849617,1.00000000333725,0.675118954069262
15400.0000000385,7.0785070142147,1.00000000347868,0.684032556146986
15500.0000000389,7.05943306143069,1.0000000032374,0.661719654866434
15600.0000000392,7.03884055257598,1.00000000348974,0.684014807577152
15700.0000000396,7.01765828451062,1.00000000321592,0.686775569426004
15800.0000000399,6.99271183155467,1.00000000323451,0.679722609805107
15900.0000000403,6.96062247356372,1.00000000349184,0.676145373207375
16000.0000000407,6.92658581291979,1.00000000331639,0.68551118021534
16100.000000041,6.89135204275227,1.00000000323955,0.674897061548903
16200.0000000414,6.85523919971723,1.00000000329455,0.686162332501381
16300.0000000418,6.82037070299137,1.00000000326235,0.684267919962212
16400.0000000418,6.7861220434502,1.00000000321474,0.67527823636139
16500.0000000404,6.7552807236013,1.00000000343763,0.670394799353103
16600.0000000389,6.7270240425791,1.0000000030151,0.665167572093213
16700.0000000375,6.70368795824534,1.00000000353955,0.667726939501038
16800.000000036,6.68434492402777,1.00000000347138,0.682499024128205
16900.0000000346,6.66923810150483,1.00000000374972,0.692152405157215
17000.0000000331,6.65631948238573,1.00000000389319,0.697190673243852
17100.0000000317,6.63960646738393,1.00000000394017,0.68635671547068
17200.0000000302,6.61839600923025,1.00000000372793,0.675351125434789
17300.0000000287,6.58916343552789,1.0000000038183,0.655361965571608
17400.0000000273,6.5569224571931,1.00000000315393,0.631674842276752
17500.0000000258,6.53697288620969,1.00000000272128,0.606320538433195
17600.0000000244,6.54383754345269,1.00000000271435,0.587357118001126
17700.0000000229,6.59997888493963,1.00000000273145,0.566931352810124
17800.0000000215,6.7177344528833,1.0000000025897,0.553318176666279
17900.00000002,6.91812444910129,1.00000000271979,0.550301912362845
18000.0000000186,7.17491112841095,1.0000000029406,0.547912210929704
18100.0000000171,7.49935959098004,1.00000000315427,0.555236549078702
18200.0000000156,7.83468984526612,1.00000000358705,0.553780017806211
18300.0000000142,8.20828445126349,1.00000000333664,0.56034716577053
18400.0000000127,8.55778958098672,1.00000000332226,0.57129298012066
18500.0000000113,8.92668087236911,1.00000000382793,0.566959648657983
18600.0000000098,9.27665648067243,1.00000000334918,0.578180210799378
18700.0000000084,9.62054077509478,1.00000000362542,0.57811878902731
18800.0000000069,9.96366480054193,1.00000000352778,0.583341762430888
18900.0000000055,10.2874531386785,1.0000000036864,0.592575729439102
19000.000000004,10.6229674494275,1.0000000036126,0.603051400349165
19100.0000000026,10.9369500372659,1.00000000344732,0.61138835635413
19200.0000000011,11.2545579691368,1.00000000398436,0.628281934560292
19299.9999999996,11.5495778010947,1.00000000381432,0.641188032202818
19399.9999999982,11.8377952167166,1.0000000040092,0.644848488447408
19499.9999999967,12.1138287299326,1.00000000405858,0.670392716825972
19599.9999999953,12.3716691999778,1.00000000348741,0.657916372984076
19699.9999999938,12.6351266478454,1.00000000367486,0.66055725265383
19799.9999999924,12.8717983250267,1.00000000411157,0.677774668562243
19899.9999999909,13.1046100906677,1.00000000335296,0.677444404289743
19999.9999999895,13.3165964467799,1.00000000368124,0.66301111817307
20099.999999988,13.5203343297504,1.00000000338863,0.684047947095421
20199.9999999865,13.7207073117375,1.00000000384909,0.692274025726568
20299.9999999851,13.91118415671,1.00000000389885,0.678387012023934
20399.9999999836,14.0948929271447,1.00000000407117,0.68806501311705
20499.9999999822,14.2629401075568,1.00000000383129,0.686067518006526
20599.9999999807,14.4330323861168,1.00000000389065,0.684910759242352
20699.9999999793,14.5940344523082,1.00000000368594,0.687364520532776
20799.9999999778,14.7491914843986,1.00000000409498,0.69146856001497
20899.9999999764,14.8960517548923,1.00000000408747,0.694123367479929
20999.9999999749,15.0304954054645,1.00000000379759,0.690771608573877
21099.9999999734,15.1591804469908,1.00000000374026,0.701508085887424
21199.999999972,15.2803131872882,1.00000000386847,0.70546557190774
21299.9999999705,15.4079527705175,1.00000000387046,0.699790945057825
21399.9999999691,15.5436200391772,1.00000000375058,0.697491202608943
21499.9999999676,15.6882018765446,1.00000000423587,0.693568076857057
21599.9999999662,15.8325131483329,1.00000000405327,0.696376537124755
21699.9999999647,15.9616011216991,1.00000000441115,0.705394211128332
21799.9999999633,16.0770504490837,1.00000000411511,0.69881348737544
21899.9999999618,16.1919715177471,1.0000000033577,0.671343739859324
21999.9999999603,16.3264594845013,1.00000000392534,0.685731629044115
22099.9999999589,16.4632120302943,1.00000000399743,0.702753369544258
22199.9999999574,16.5921928154988,1.00000000405598,0.704393371200588
22299.999999956,16.7162165384676,1.00000000395776,0.70327950982323
22399.9999999545,16.8348939236565,1.00000000405099,0.697065638673695
22499.9999999531,16.957615401177,1.00000000404965,0.688860456100368
22599.9999999516,17.0777961440012,1.00000000442906,0.680237469389161
22699.9999999502,17.2039656540094,1.0000000040824,0.678331199143812
22799.9999999487,17.3250911628939,1.00000000412219,0.699424332711088
22899.9999999473,17.4474726546424,1.00000000378822,0.700977279239809
22999.9999999458,17.5801837780934,1.00000000376141,0.682963238919615
23099.9999999443,17.7248268689405,1.00000000434453,0.69943103556091
23199.9999999429,17.8668125340789,1.00000000395965,0.693768857030963
23299.9999999414,18.0116357869153,1.00000000419499,0.681140273151228
23399.99999994,18.1531574786028,1.0000000040497,0.697778724345147
23499.9999999385,18.2897878806,1.00000000426562,0.704017174514503
23599.9999999371,18.4329578108336,1.00000000414827,0.69122869540055
23699.9999999356,18.5763368938559,1.00000000451551,0.700377819875808
23799.9999999342,18.7086739983679,1.00000000415993,0.693899096447224
23899.9999999327,18.83314577603,1.00000000436356,0.709318358312689
23999.9999999312,18.9527454960164,1.0000000040021,0.682095629865257
24099.9999999298,19.0981121883278,1.00000000385792,0.69147614325517
24199.9999999283,19.2525987133689,1.00000000426741,0.702133431867641
24299.9999999269,19.4050169003633,1.00000000446282,0.701009140119605
24399.9999999254,19.5466534323042,1.0000000044336,0.695292232108151
24499.999999924,19.6853303177968,1.00000000418368,0.697762386100176
24599.9999999225,19.834018736066,1.00000000436232,0.694783201286764
24699.9999999211,19.9849349737529,1.00000000400717,0.702181055929587
24799.9999999196,20.135825543897,1.00000000429733,0.693982195507664
24899.9999999181,20.2790668564842,1.00000000465516,0.690741384565078
24999.9999999167,20.4257796440598,1.00000000416769,0.693402175774844
25099.9999999152,20.5728928791166,1.00000000452756,0.694349208037947
25199.9999999138,20.7273456053967,1.00000000400618,0.700955464855124
25299.9999999123,20.8702699135504,1.00000000454735,0.70728896193215
25399.9999999109,20.9991225094522,1.00000000426338,0.69292433616284
25499.9999999094,21.1334173776272,1.00000000440505,0.700825611145164
25599.999999908,21.2748670324164,1.00000000440131,0.709240706709083
25699.9999999065,21.4257066299418,1.00000000414297,0.709204399008573
25799.9999999051,21.5875992869509,1.0000000043774,0.705624236189079
25899.9999999036,21.7632411798071,1.00000000441931,0.685980060257942
25999.9999999021,21.9477134032233,1.00000000452222,0.684346934101027
26099.9999999007,22.1383030402912,1.00000000459582,0.670170040275319
26199.9999998992,22.3455784429948,1.00000000471459,0.692754846726308
26299.9999998978,22.563746907965,1.00000000439839,0.702982567947106
26399.9999998963,22.7844908320452,1.00000000481874,0.716098305256894
26499.9999998949,22.9916376378195,1.00000000466702,0.710133756997094
26599.9999998934,23.1814974446747,1.00000000474054,0.711665079435592
26699.999999892,23.3606480380951,1.0000000048555,0.711962706706819
26799.9999998905,23.5507145928867,1.00000000472803,0.71039904777479
26899.999999889,23.7350867907054,1.00000000506372,0.714383046380709
26999.9999998876,23.9197737882309,1.00000000462546,0.704509195776787
27099.9999998861,24.1094537262849,1.00000000458839,0.712812513364183
27199.9999998847,24.315169263927,1.00000000466874,0.718288764066601
27299.9999998832,24.5284181483925,1.00000000483112,0.705580806930121
27399.9999998818,24.7453452180203,1.00000000450178,0.706656483229693
27499.9999998803,24.9728029998516,1.00000000435794,0.697353370222781
27599.9999998789,25.2135394055928,1.00000000473481,0.693032409041413
27699.9999998774,25.4539455614822,1.00000000512638,0.692428925258086
27799.9999998759,25.6723729234024,1.00000000505701,0.718332837304813
27899.9999998745,25.883965046441,1.00000000541248,0.699741323978624
27999.999999873,26.1145191041402,1.00000000462203,0.691393710244841
28099.9999998716,26.3497431296105,1.00000000462937,0.697456871929906
28199.9999998701,26.5794179337168,1.00000000511714,0.710283689273533
28299.9999998687,26.8117951113654,1.00000000466059,0.694920083140926
28399.9999998672,27.0490595448863,1.00000000511196,0.71287302735108
28499.9999998658,27.2839036585597,1.00000000441219,0.698607851120953
28599.9999998643,27.5104478421964,1.00000000521944,0.705610139320532
28699.9999998629,27.7401530704693,1.00000000509903,0.695245860915346
28799.9999998614,27.9823492442484,1.00000000531201,0.700208189477533
28899.9999998599,28.2222273520536,1.00000000517559,0.697926822524969
28999.9999998585,28.4505513277777,1.0000000049873,0.702235044649464
29099.999999857,28.6667647316757,1.0000000049179,0.702564627797012
