Time,AGPnorm,Energy,Entropy
0,0,1,-1.48206327751674e-32
99.9999999999986,0.00198316806312684,1.00000000000646,0.00747953225018244
199.999999999993,0.00598502836233639,1.00000000000023,0.0218881021481979
300,0.0124981723008724,1.00000000000586,0.0426515521448495
400.000000000022,0.0203204606977457,1.00000000000133,0.0683176664946239
500.000000000045,0.0295992109299599,1.00000000000472,0.0989479717910382
600.000000000068,0.0398635467848258,1.00000000000388,0.136283851236316
700.000000000091,0.0502388184302075,1.00000000000971,0.181102615396616
800.000000000113,0.0653068572705463,1.00000000003943,0.237256215588191
900.000000000136,0.0897185263376342,1.00000000011281,0.301548979131333
1000.00000000016,0.187940164496248,1.00000000026283,0.367750251541834
1100.0000000001,0.481057405933517,1.0000000004561,0.424491981720982
1200,1.16741146344748,1.00000000059099,0.469412609644923
1299.99999999991,2.4981805173843,1.00000000073534,0.501181754159565
1399.99999999982,4.5699444266688,1.00000000081296,0.522454271373727
1499.99999999973,7.53717367777523,1.00000000086706,0.535651975428867
1599.99999999964,11.262828356213,1.00000000092598,0.542612019580835
1699.99999999955,15.7269456434457,1.0000000009338,0.544656809287435
1799.99999999946,20.6771259565789,1.00000000088275,0.543478852979459
1899.99999999937,25.9749875131606,1.00000000089817,0.54116198002583
1999.99999999928,31.3956431924341,1.00000000083493,0.534591670201709
2099.99999999919,36.7565057733521,1.00000000078224,0.530783834280939
2199.99999999909,41.9238234380403,1.00000000074551,0.52078044960963
2299.999999999,46.7313815251148,1.00000000072822,0.517996847058738
2399.99999999891,51.1350225361697,1.00000000070576,0.510317845417712
2499.99999999882,55.0085675730799,1.00000000064017,0.495735971441449
2599.99999999873,58.3661563914905,1.00000000061713,0.500853494780485
2699.99999999864,61.1761574821522,1.00000000060781,0.502116371249335
2799.99999999855,63.4307940076075,1.00000000058105,0.471045523640309
2899.99999999846,65.0995981979471,1.00000000049613,0.466944353239892
2999.99999999837,66.3042176149056,1.00000000054273,0.508268854916527
3099.99999999828,67.1599001644371,1.00000000055265,0.502102573320789
3199.99999999819,67.5633897786091,1.00000000039816,0.432167405617623
3299.99999999809,67.4613993173389,1.00000000035028,0.422932181023604
3399.999999998,67.0645727293462,1.00000000056284,0.504744515161223
3499.99999999791,66.6284262776483,1.00000000064946,0.5438156660475
3599.99999999782,66.1296924306306,1.00000000052173,0.486172410216526
3699.99999999773,65.3537699965217,1.00000000026498,0.364413923596112
3799.99999999764,64.2538657513804,1.00000000024253,0.359523936432385
3899.99999999755,63.0355014180194,1.00000000052818,0.472350099151218
3999.99999999746,61.9025543385889,1.0000000007773,0.543088720311787
4099.99999999738,60.9250332004544,1.0000000007265,0.553040092554623
4199.99999999775,60.0215358933354,1.00000000054862,0.485293386701699
4299.99999999811,59.0158228599653,1.00000000030172,0.346332930849771
4399.99999999848,57.8517193773149,1.00000000014691,0.266466773426663
4499.99999999884,56.6332227183226,1.00000000031292,0.353547369203524
4599.9999999992,55.4359469409617,1.00000000055377,0.469275137468858
4699.99999999957,54.2965147393325,1.00000000073194,0.50977011166494
4799.99999999993,53.2551998052958,1.00000000074253,0.525592132499215
4900.00000000029,52.3291633335615,1.00000000069321,0.545868850226341
5000.00000000066,51.4706004893327,1.0000000005645,0.512241745316647
5100.00000000102,50.5970317847456,1.00000000036882,0.403071749073369
5200.00000000139,49.6824499619152,1.00000000022204,0.283353287049704
5300.00000000175,48.7917748558787,1.00000000018255,0.247218182135637
5400.00000000211,47.9894627538185,1.00000000028467,0.315957404746645
5500.00000000248,47.2442511677183,1.00000000050308,0.424803136548119
5600.00000000284,46.4922073079199,1.00000000062344,0.512145532036435
5700.00000000321,45.7263048267811,1.00000000060663,0.518506751247666
5800.00000000357,44.9680123928207,1.00000000048397,0.465536997297808
5900.00000000393,44.2224719082911,1.0000000005616,0.453661242686311
6000.0000000043,43.4911786079137,1.0000000007303,0.513647602555826
6100.00000000466,42.7922843009245,1.0000000007515,0.5583918836344
6200.00000000502,42.1357286915797,1.00000000069248,0.549120772339506
6300.00000000539,41.4998512917202,1.00000000050216,0.485042296872013
6400.00000000575,40.8720696455124,1.00000000028023,0.378600171786487
6500.00000000612,40.3023004128107,1.00000000013688,0.27497188838866
6600.00000000648,39.8739975063229,1.00000000017082,0.234890824288089
6700.00000000684,39.6201499946205,1.00000000027138,0.274131076790637
6800.00000000721,39.5068288805133,1.00000000039928,0.352495249362528
6900.00000000757,39.4385909198608,1.000000000519,0.435434931977524
7000.00000000793,39.3115921053767,1.0000000006089,0.488270960123694
7100.0000000083,39.0719938528964,1.00000000068265,0.508781251855421
7200.00000000866,38.7294820941733,1.00000000066474,0.528730878466567
7300.00000000903,38.330234067248,1.00000000060445,0.537794497929436
7400.00000000939,37.9253453489731,1.00000000042823,0.497870395202826
7500.00000000975,37.5535305743747,1.00000000032537,0.441045932865928
7600.00000001012,37.2140752089779,1.00000000037263,0.437764021714726
7700.00000001048,36.8681945328947,1.00000000052068,0.470034857009789
7800.00000001084,36.4877871831857,1.00000000058831,0.493426730580184
7900.00000001121,36.0742362158088,1.00000000064078,0.497690679249278
8000.00000001157,35.6402344399236,1.00000000070635,0.514981767231343
8100.00000001194,35.2047654908644,1.00000000077387,0.549313224693017
8200.0000000123,34.7850981476369,1.00000000073163,0.56298835478691
8300.00000001266,34.3814779122838,1.00000000058367,0.543627772811078
8400.00000001303,33.9830052544577,1.0000000004285,0.489884083822285
8500.00000001339,33.5971476545048,1.00000000027194,0.409302052881946
8600.00000001376,33.2736884344879,1.00000000016279,0.328511358679831
8700.00000001412,33.0890020427776,1.00000000013944,0.26631258063687
8800.00000001448,33.1089592304449,1.00000000016811,0.239996564319932
8900.00000001485,33.3606057290549,1.00000000022234,0.259097664541836
9000.00000001521,33.8160916108391,1.00000000030259,0.306420228946579
9100.00000001557,34.3880232408681,1.00000000044352,0.368888032993984
9200.00000001594,34.9600589910752,1.00000000055756,0.432150467668655
9300.0000000163,35.4503620557092,1.0000000005993,0.479596826452337
9400.00000001667,35.817184917075,1.00000000061046,0.509464442422444
9500.00000001703,36.0488330949446,1.00000000065258,0.533245784226765
9600.00000001739,36.1610710824445,1.00000000060101,0.548821274845787
9700.00000001776,36.1878555137698,1.00000000053189,0.541144015254173
9800.00000001812,36.1669393369749,1.00000000046518,0.50810749052649
9900.00000001848,36.1142331457604,1.00000000046328,0.480460497105343
10000.0000000188,36.0170048179281,1.00000000057405,0.488611700273383
10100.0000000192,35.8608110341104,1.00000000064213,0.515482210986855
10200.0000000196,35.6616202856087,1.00000000059636,0.532492384912568
10300.0000000199,35.4517656576655,1.00000000047436,0.516415954847094
10400.0000000203,35.2558394261519,1.0000000004188,0.486611375839101
10500.0000000207,35.0809248413495,1.00000000043367,0.465881744480932
10600.000000021,34.9233827114037,1.0000000004551,0.460919981651852
10700.0000000214,34.7798986962083,1.00000000044566,0.469569213071991
10800.0000000218,34.641207502009,1.00000000046253,0.480680759435399
10900.0000000221,34.4981049206273,1.00000000051871,0.497142225036777
11000.0000000225,34.3410975697245,1.00000000052643,0.517966549989747
11100.0000000229,34.1657930207611,1.0000000005069,0.533335890350176
11200.0000000232,33.9793965538085,1.00000000043685,0.528801659524338
11300.0000000236,33.7923566318578,1.00000000040996,0.521079450208339
11400.0000000239,33.6053188862824,1.00000000042176,0.521152841790701
11500.0000000243,33.4081720553229,1.00000000048613,0.52502696988203
11600.0000000247,33.1928861483131,1.00000000051057,0.526864911209137
11700.000000025,32.9582999394155,1.00000000055675,0.527124699016535
11800.0000000254,32.7061685294268,1.00000000061811,0.531639123637309
11900.0000000258,32.4430325309838,1.00000000068659,0.539791361601155
12000.0000000261,32.1799819310855,1.0000000007174,0.545879515016284
12100.0000000265,31.930603103137,1.00000000079997,0.553888413405098
12200.0000000269,31.7060371075405,1.00000000078791,0.56373201148885
12300.0000000272,31.5077264343085,1.00000000071241,0.568388378007822
12400.0000000276,31.3247605876002,1.00000000062632,0.561214934855103
12500.0000000279,31.1364861547826,1.00000000055144,0.537148215520941
12600.0000000283,30.9267488963798,1.00000000042184,0.497366536966207
12700.0000000287,30.6956823239088,1.00000000031368,0.446356535746352
12800.000000029,30.4665783425335,1.00000000022464,0.387892632917619
12900.0000000294,30.2856146722465,1.00000000016518,0.333870869029014
13000.0000000298,30.2115004879055,1.00000000014323,0.292881091917435
13100.0000000301,30.302577930744,1.00000000013196,0.264250818249206
13200.0000000305,30.6118805031071,1.00000000012889,0.248184012663286
13300.0000000309,31.166053867478,1.00000000016561,0.252573419758475
13400.0000000312,31.9549519858733,1.00000000025528,0.279400659209194
13500.0000000316,32.9392336823155,1.00000000030498,0.315701313758729
13600.0000000319,34.0593785219121,1.00000000040505,0.356889119648229
13700.0000000323,35.2304905789263,1.00000000050611,0.397601483704586
13800.0000000327,36.3714690717243,1.00000000055223,0.437219833966471
13900.000000033,37.4339938508683,1.00000000060831,0.467898839831408
14000.0000000334,38.3862311037373,1.00000000061087,0.492549913609035
14100.0000000338,39.2122134284638,1.000000000609,0.517797037526123
14200.0000000341,39.9070669062491,1.00000000060422,0.538648764272533
14300.0000000345,40.4777816501562,1.00000000059801,0.550462133217687
14400.0000000349,40.9424758627986,1.00000000054821,0.545390276614316
14500.0000000352,41.3218570603324,1.00000000053128,0.535823680861158
14600.0000000356,41.6299072413826,1.00000000050166,0.538624087206784
14700.0000000359,41.8661950955637,1.00000000053458,0.554862462067353
14800.0000000363,42.0346927646271,1.00000000054556,0.56443811192377
14900.0000000367,42.1441010900997,1.0000000005463,0.562692419838978
15000.000000037,42.2035452583991,1.00000000054292,0.547042762354764
15100.0000000374,42.2229515447828,1.00000000049525,0.528612981117888
15200.0000000378,42.2144755838693,1.00000000049219,0.517993234836475
15300.0000000381,42.186483510131,1.00000000049694,0.517802901230374
15400.0000000385,42.1326421808393,1.000000000529,0.530715839275475
15500.0000000389,42.0500245224142,1.00000000054035,0.536964851774138
15600.0000000392,41.948020895551,1.00000000048417,0.538784733059777
15700.0000000396,41.8360321958694,1.00000000050095,0.541420157465978
15800.0000000399,41.7122021273944,1.00000000051551,0.543126196650132
15900.0000000403,41.5735014461641,1.00000000055007,0.542874785747466
16000.0000000407,41.4240212417951,1.00000000050545,0.538757286112243
16100.000000041,41.2709765285499,1.00000000045101,0.532721795733675
16200.0000000414,41.121765294427,1.0000000004088,0.519883306577797
16300.0000000418,40.9800314633783,1.00000000040122,0.51576705109363
16400.0000000418,40.8425181932342,1.00000000046711,0.519564330552145
16500.0000000404,40.6992424711163,1.0000000004784,0.520462278865899
16600.0000000389,40.5446465470815,1.00000000054497,0.523210374420804
16700.0000000375,40.3790845720369,1.00000000056172,0.527939075532794
16800.000000036,40.201260635,1.00000000062724,0.537808702395479
16900.0000000346,40.0106392444635,1.00000000061777,0.550937781713905
17000.0000000331,39.8108139712814,1.0000000005641,0.555636162682238
17100.0000000317,39.6084394805782,1.00000000051959,0.550429890727715
17200.0000000302,39.4100095136703,1.00000000048299,0.547072083734755
17300.0000000287,39.2243019071966,1.00000000041687,0.530206670299978
17400.0000000273,39.0618309644202,1.00000000035781,0.508555745052789
17500.0000000258,38.9293339669786,1.0000000003463,0.490569136684881
17600.0000000244,38.8231561541417,1.00000000043396,0.47615538318525
17700.0000000229,38.7360688850954,1.00000000043238,0.469833890465207
17800.0000000215,38.6621648210351,1.00000000046046,0.476936669910071
17900.00000002,38.5971134573498,1.00000000046719,0.485202564167253
18000.0000000186,38.5410547822325,1.00000000044978,0.488986546180349
18100.0000000171,38.4904259950019,1.00000000047059,0.500619010480734
18200.0000000156,38.4406956027555,1.00000000048807,0.517110650382031
18300.0000000142,38.3887420077163,1.00000000048741,0.526030206157699
18400.0000000127,38.3302710047854,1.00000000053439,0.53217837713841
18500.0000000113,38.2615191500797,1.00000000054284,0.530485100864124
18600.0000000098,38.1835986558053,1.0000000005327,0.527812066115474
18700.0000000084,38.1006603597863,1.00000000047673,0.530211428811055
18800.0000000069,38.0124144010995,1.00000000048577,0.535687081740849
18900.0000000055,37.9181379479263,1.00000000050605,0.546782993622533
19000.000000004,37.8180018425588,1.00000000049382,0.560916976358878
19100.0000000026,37.7142160242358,1.00000000049281,0.569156624736057
19200.0000000011,37.6079472750552,1.00000000049943,0.57013032514229
19299.9999999996,37.4967048794117,1.00000000054671,0.568910222144755
19399.9999999982,37.3777676397228,1.00000000053173,0.576092239683477
19499.9999999967,37.2487959976746,1.0000000005367,0.581940226054384
19599.9999999953,37.1114833789317,1.00000000056005,0.578974142802647
19699.9999999938,36.9720827923942,1.0000000004632,0.578189655336296
19799.9999999924,36.8373431579787,1.00000000043291,0.574051222103389
19899.9999999909,36.7081403113737,1.0000000004489,0.564583794632555
19999.9999999895,36.5790381417752,1.00000000053147,0.562044738124129
20099.999999988,36.4449434268182,1.0000000005422,0.555031258548117
20199.9999999865,36.3078214773079,1.00000000048771,0.540462991224541
20299.9999999851,36.1732972480542,1.00000000044717,0.53580033011004
20399.9999999836,36.0440051741363,1.00000000042801,0.539885866722662
20499.9999999822,35.9186344767595,1.00000000048633,0.543352328808429
20599.9999999807,35.7933624671621,1.0000000004614,0.548251093601381
20699.9999999793,35.6684897832753,1.00000000049078,0.552832903132516
20799.9999999778,35.5450415307254,1.00000000048995,0.560453465923717
20899.9999999764,35.421779098253,1.0000000005096,0.556906237125431
20999.9999999749,35.2952681339196,1.00000000055671,0.553433993525084
21099.9999999734,35.1620716969689,1.00000000056673,0.56174237792675
21199.999999972,35.0227111060321,1.00000000052926,0.560011205192969
21299.9999999705,34.8794955589356,1.00000000052309,0.551802406018451
21399.9999999691,34.734121639922,1.00000000049987,0.550190657408722
21499.9999999676,34.58625141254,1.00000000053585,0.562484764812648
21599.9999999662,34.4363635050687,1.00000000056476,0.577911434817611
21699.9999999647,34.2862593179443,1.00000000050847,0.581343008079814
21799.9999999633,34.1370816773038,1.00000000044846,0.574169665264415
21899.9999999618,33.989440172699,1.00000000045254,0.570240784348034
21999.9999999603,33.8426184458006,1.00000000051529,0.576665073499928
22099.9999999589,33.6946088842351,1.00000000054198,0.576064085996121
22199.9999999574,33.5456214521007,1.00000000050512,0.582259522363064
22299.999999956,33.3972489546109,1.00000000047992,0.58370802553542
22399.9999999545,33.2498468294608,1.00000000041382,0.571078010716306
22499.9999999531,33.1038287877439,1.00000000039213,0.563790179832707
22599.9999999516,32.9591184189592,1.00000000042123,0.568290205864214
22699.9999999502,32.8152356909663,1.00000000044005,0.574495963501209
22799.9999999487,32.6723963846665,1.00000000043643,0.573480560342786
22899.9999999473,32.5310252543963,1.00000000045008,0.570399406090966
22999.9999999458,32.3913158841064,1.00000000048857,0.573059234167894
23099.9999999443,32.2547166750664,1.00000000049787,0.584765618069335
23199.9999999429,32.1225947828464,1.00000000053344,0.578446777474793
23299.9999999414,31.9975048939544,1.00000000054602,0.570092938423389
23399.99999994,31.8830585714407,1.00000000058624,0.582987964162551
23499.9999999385,31.7830422045007,1.00000000058572,0.592011774943106
23599.9999999371,31.7046466714656,1.00000000061017,0.588694157430463
23699.9999999356,31.6507315793854,1.00000000064604,0.586828130429852
23799.9999999342,31.6299011707596,1.00000000064814,0.595362927307941
23899.9999999327,31.6463088870617,1.00000000072846,0.601169753088998
23999.9999999312,31.7091685351498,1.0000000007245,0.607519626306736
24099.9999999298,31.82497058862,1.00000000071189,0.609938823286263
24199.9999999283,31.9913889902595,1.00000000074815,0.610524157429175
24299.9999999269,32.218989423473,1.00000000077572,0.607098347389388
24399.9999999254,32.4936139691386,1.00000000076876,0.603690345053929
24499.999999924,32.8351078515828,1.00000000079097,0.596607201474789
24599.9999999225,33.2083947074034,1.00000000074574,0.589123630663081
24699.9999999211,33.6275818082011,1.00000000071437,0.581124866878099
24799.9999999196,34.0379324239625,1.0000000006989,0.574681947015066
24899.9999999181,34.4467787150814,1.00000000058989,0.564610974163567
24999.9999999167,34.8021021022153,1.00000000051747,0.550742341564243
25099.9999999152,35.107226091537,1.00000000047075,0.530915478179025
25199.9999999138,35.3303407939794,1.00000000040038,0.506401623775736
25299.9999999123,35.4725317294492,1.00000000034602,0.481044723757151
25399.9999999109,35.5319029046324,1.00000000029969,0.452451099003406
25499.9999999094,35.5150298432222,1.00000000025484,0.423132374411938
25599.999999908,35.4408417683708,1.00000000021865,0.393037520660373
25699.9999999065,35.3280622709207,1.00000000018331,0.36638360557616
25799.9999999051,35.2055314984417,1.00000000016608,0.340503612674429
25899.9999999036,35.1065818580975,1.00000000014205,0.315531428315541
25999.9999999021,35.0616166368756,1.00000000012698,0.294158838912349
26099.9999999007,35.1103816071064,1.00000000011358,0.278640403310503
26199.9999998992,35.2863679515675,1.00000000011458,0.262611995978489
26299.9999998978,35.6185734100858,1.00000000010824,0.251563726238658
26399.9999998963,36.1470327536347,1.00000000012918,0.249599621002899
26499.9999998949,36.873095848008,1.00000000014045,0.253192805788648
26599.9999998934,37.8411834732821,1.00000000015569,0.258650133553327
26699.999999892,39.019297484339,1.00000000019455,0.270562513848511
26799.9999998905,40.4344537025064,1.00000000022629,0.283014465232223
26899.999999889,42.0453239100966,1.00000000027538,0.301907029003548
26999.9999998876,43.8296605482699,1.00000000035735,0.321570500706072
27099.9999998861,45.7628222924961,1.00000000038283,0.341965137599598
27199.9999998847,47.7816925885894,1.00000000043264,0.361223608296229
27299.9999998832,49.886426216388,1.00000000049578,0.381122506414703
27399.9999998818,51.9799847986912,1.00000000050788,0.397636173886015
27499.9999998803,54.0967217911057,1.00000000056977,0.41112933718711
27599.9999998789,56.1404431417995,1.0000000005982,0.427262984541884
27699.9999998774,58.137890720906,1.00000000062478,0.444120516229266
27799.9999998759,60.0305065890387,1.00000000066956,0.463342552779557
27899.9999998745,61.837528977817,1.00000000062913,0.476329972134336
27999.999999873,63.5390586925462,1.00000000065945,0.485787434454978
28099.9999998716,65.1243433269702,1.00000000067494,0.492322345790322
28199.9999998701,66.6037156034822,1.00000000061071,0.506433925810618
28299.9999998687,67.9600368735526,1.00000000061923,0.522306604280276
28399.9999998672,69.2224450366055,1.00000000057695,0.532107748411808
28499.9999998658,70.3763540686858,1.00000000058669,0.535810630159089
28599.9999998643,71.4417402650828,1.0000000005871,0.535432162381458
28699.9999998629,72.4096747963334,1.00000000060246,0.543046200378269
28799.9999998614,73.2851797909996,1.00000000056788,0.552876739260923
28899.9999998599,74.0814973247832,1.00000000056861,0.565190249227151
28999.9999998585,74.8000769598096,1.0000000005642,0.564106401878827
