Time,AGPnorm,Energy,Entropy
0,0,1,-1.02309433965588e-17
99.9999999999986,1.63166634246803e-05,1.00000000000002,0.000770486704113448
199.999999999993,0.00145165309961355,1.00000000000119,0.00120705397753685
300,0.00375282151842349,0.999999999999423,0.00212569922275797
400.000000000022,0.00524073367127465,1.00000000000097,0.00365256731677891
500.000000000045,0.00619920988447061,1.0000000000003,0.00487728645718574
600.000000000068,0.00884598706892784,0.999999999999785,0.00686245745238055
700.000000000091,0.0110886303458481,1.00000000000126,0.00875320231922194
800.000000000113,0.014404843336301,0.999999999999587,0.0107695336075246
900.000000000136,0.0178027631589088,1.00000000000065,0.0133125517829318
1000.00000000016,0.0204941608175678,1.00000000000055,0.0155979733248083
1100.0000000001,0.0248715987317785,0.999999999999695,0.018354895150893
1200,0.0293639124832454,1.00000000000124,0.021174174542508
1299.99999999991,0.0337999963752975,0.999999999999758,0.0239963971096453
1399.99999999982,0.0384381370417125,1.00000000000032,0.027279954839301
1499.99999999973,0.0431162472849898,1.00000000000078,0.0303730001225241
1599.99999999964,0.0491916054842038,0.999999999999732,0.03378978029713
1699.99999999955,0.0551418816065088,1.00000000000108,0.0373912525622894
1799.99999999946,0.0604612531090275,0.999999999999904,0.0409198870637508
1899.99999999937,0.0663569184121201,1.0000000000001,0.044851466124952
1999.99999999928,0.0728737703891181,1.00000000000101,0.048704712896693
2099.99999999919,0.0801130831604468,0.999999999999809,0.0527934336847217
2199.99999999909,0.0868768031010432,1.00000000000078,0.0571406509112238
2299.999999999,0.0930675000346047,1.00000000000006,0.0613736165228216
2399.99999999891,0.100232698775262,1.00000000000006,0.0660009415481077
2499.99999999882,0.108082144449628,1.00000000000116,0.0706791162096177
2599.99999999873,0.115817629875319,0.999999999999827,0.0755319980675251
2699.99999999864,0.122965278676688,1.00000000000044,0.0806804919096382
2799.99999999855,0.130168117669805,1.00000000000026,0.0857561588231582
2899.99999999846,0.138376231659711,1.00000000000015,0.0912562192870979
2999.99999999837,0.146886533315827,1.00000000000111,0.0969491255542392
3099.99999999828,0.154583240871551,0.999999999999799,0.102759374684079
3199.99999999819,0.162016088396761,1.00000000000023,0.108949691596731
3299.99999999809,0.170150988994082,1.00000000000056,0.115216003741871
3399.999999998,0.178931827143216,1.00000000000025,0.121979105752195
3499.99999999791,0.187362306634561,1.00000000000091,0.129117093260532
3599.99999999782,0.19481979204702,0.999999999999951,0.136407697478085
3699.99999999773,0.202626457974762,1.00000000000043,0.144322889624387
3799.99999999764,0.211217888995832,1.00000000000141,0.152629459200866
3899.99999999755,0.220093261335299,1.00000000000126,0.16164290833198
3999.99999999746,0.227838921926268,1.00000000000274,0.171352157720655
4099.99999999738,0.235123873690507,1.00000000000434,0.181446593575748
4199.99999999775,0.244001175014553,1.0000000000079,0.192461865131015
4299.99999999811,0.251872623406428,1.00000000001315,0.204087055200333
4399.99999999848,0.261937799241848,1.00000000002048,0.216153529283962
4499.99999999884,0.270639402710595,1.00000000003096,0.228675276449651
4599.9999999992,0.279656712696076,1.00000000004149,0.241095212237906
4699.99999999957,0.298112497729295,1.00000000005631,0.25383831164342
4799.99999999993,0.313181920601838,1.00000000007536,0.266529815738054
4900.00000000029,0.341850139517364,1.00000000008908,0.278846163475909
5000.00000000066,0.381429172679109,1.00000000010696,0.29111493247152
5100.00000000102,0.429589690598933,1.00000000013189,0.302898844100881
5200.00000000139,0.515216020395962,1.00000000014511,0.314736751069709
5300.00000000175,0.615183618109125,1.00000000016808,0.326267094544955
5400.00000000211,0.759471379759321,1.0000000001954,0.33714347069257
5500.00000000248,0.957852410690089,1.0000000002205,0.347943220134081
5600.00000000284,1.19629758856014,1.00000000023955,0.358488451577599
5700.00000000321,1.5254787205183,1.00000000025599,0.368736988403992
5800.00000000357,1.92139102458596,1.00000000028093,0.378623188625881
5900.00000000393,2.41131383337447,1.00000000030338,0.387941103917286
6000.0000000043,3.02336028199593,1.00000000030621,0.397267685992884
6100.00000000466,3.73063473903171,1.0000000003263,0.406279474081687
6200.00000000502,4.59234965392541,1.00000000035565,0.41469222770392
6300.00000000539,5.59234902422114,1.00000000037385,0.422934020733598
6400.00000000575,6.74050180576003,1.00000000038912,0.430762717165359
6500.00000000612,8.07868587881449,1.00000000041852,0.438405997895499
6600.00000000648,9.57414844146726,1.00000000041741,0.445895846112061
6700.00000000684,11.2756723946256,1.00000000044139,0.452663016023286
6800.00000000721,13.1786231678411,1.00000000042865,0.459462621395418
6900.00000000757,15.2727583750831,1.00000000044335,0.466016983609367
7000.00000000793,17.6032055529577,1.0000000004761,0.472049545677169
7100.0000000083,20.1387168380739,1.0000000004757,0.477951197533349
7200.00000000866,22.9064487060076,1.00000000047861,0.483410901298789
7300.00000000903,25.9106518962376,1.00000000048502,0.488880511740472
7400.00000000939,29.1290969742652,1.000000000492,0.494100200850608
7500.00000000975,32.5984215124015,1.00000000049767,0.498701916364975
7600.00000001012,36.2931431682023,1.00000000050226,0.503288766759901
7700.00000001048,40.2192654263984,1.00000000050689,0.507658396291259
7800.00000001084,44.3839241932337,1.00000000048794,0.512024698675902
7900.00000001121,48.7620805312107,1.00000000051218,0.515824954225304
8000.00000001157,53.3766217357769,1.00000000052031,0.519326496881749
8100.00000001194,58.2065202672215,1.00000000054319,0.522803715114536
8200.0000000123,63.2445978239462,1.0000000005311,0.52622798061109
8300.00000001266,68.4955818221896,1.00000000051959,0.529450559788095
8400.00000001303,73.9376628973033,1.00000000053277,0.532235568919506
8500.00000001339,79.579154820369,1.00000000052814,0.535001267302686
8600.00000001376,85.4017554840637,1.00000000051474,0.537736437131154
8700.00000001412,91.3945423716445,1.0000000005189,0.540166318566335
8800.00000001448,97.5563016699749,1.00000000051436,0.542420540335672
8900.00000001485,103.869121401778,1.00000000054518,0.544462425138534
9000.00000001521,110.331751898999,1.00000000052344,0.546479721192217
9100.00000001557,116.926647060334,1.00000000050672,0.54853247063712
9200.00000001594,123.644125066733,1.00000000051834,0.550162807347713
9300.0000000163,130.477715901513,1.00000000050812,0.551772031060826
9400.00000001667,137.41199651753,1.00000000051688,0.553203487952875
9500.00000001703,144.442701150817,1.00000000051105,0.554501302292842
9600.00000001739,151.55047456308,1.00000000050968,0.555958896066174
9700.00000001776,158.729003765352,1.00000000050965,0.557150828208336
9800.00000001812,165.970069229812,1.00000000050302,0.557999072351531
9900.00000001848,173.256905487595,1.00000000052537,0.559171486274936
10000.0000000188,180.588014687701,1.00000000049041,0.560112481532875
10100.0000000192,187.94228403392,1.00000000050059,0.56078064172429
10200.0000000196,195.315831831698,1.00000000050966,0.561713627150106
10300.0000000199,202.702255605936,1.00000000049333,0.561948992468922
10400.0000000203,210.08228485079,1.00000000048812,0.56297652029512
10500.0000000207,217.458621223172,1.00000000048532,0.563407121723793
10600.000000021,224.810216123118,1.00000000047416,0.563750037565557
10700.0000000214,232.134357731879,1.00000000048179,0.56441715124596
10800.0000000218,239.42793106772,1.00000000049119,0.564330445592995
10900.0000000221,246.669272182917,1.0000000004611,0.565051369907751
11000.0000000225,253.864529243308,1.0000000004803,0.56533147442176
11100.0000000229,260.99623595575,1.00000000047016,0.565102394132354
11200.0000000232,268.05830102513,1.00000000047265,0.565566110365935
11300.0000000236,275.053543110179,1.0000000004379,0.56595255173064
11400.0000000239,281.96078567356,1.00000000045385,0.565535625570956
11500.0000000243,288.784652077059,1.00000000044355,0.565913118961047
11600.0000000247,295.51421598053,1.00000000042993,0.566001855152011
11700.000000025,302.142840121311,1.00000000043904,0.565774138303975
11800.0000000254,308.673380044987,1.00000000043328,0.565851590951869
11900.0000000258,315.089192850603,1.00000000042582,0.56586297595962
12000.0000000261,321.393850737609,1.00000000044145,0.565266029551059
12100.0000000265,327.580523602131,1.00000000043659,0.565407330466193
12200.0000000269,333.64313608563,1.00000000042615,0.565185670870403
12300.0000000272,339.585220160287,1.00000000042228,0.564802359219593
12400.0000000276,345.392617754391,1.00000000041822,0.56500438415677
12500.0000000279,351.070074525719,1.00000000041325,0.564433356268345
12600.0000000283,356.615288741489,1.00000000041416,0.564315673658923
12700.0000000287,362.019119665621,1.00000000041085,0.564041733855326
12800.000000029,367.28923470907,1.00000000041162,0.56357478944437
12900.0000000294,372.412796444862,1.00000000040623,0.56345791760287
13000.0000000298,377.394597466731,1.00000000039187,0.563106014737174
13100.0000000301,382.234723258412,1.00000000038085,0.562785774198771
13200.0000000305,386.925183772424,1.00000000038077,0.562639899006112
13300.0000000309,391.47305989525,1.00000000037995,0.561914277819272
13400.0000000312,395.86978832935,1.00000000038956,0.56177099052939
13500.0000000316,400.118633036955,1.00000000038279,0.561708797144123
13600.0000000319,404.223481049471,1.00000000037302,0.560860885695121
13700.0000000323,408.174644633313,1.00000000035949,0.560677213499985
13800.0000000327,411.980948138072,1.00000000036031,0.560424711446384
13900.000000033,415.637208837996,1.00000000036028,0.560162609039883
14000.0000000334,419.144290549344,1.00000000036004,0.559860560636549
14100.0000000338,422.508503815985,1.00000000034755,0.559440928897323
14200.0000000341,425.721419716911,1.00000000033584,0.55873977164334
14300.0000000345,428.79138736417,1.00000000033996,0.558368705920275
14400.0000000349,431.715626836896,1.00000000033948,0.558408620388435
14500.0000000352,434.495875543986,1.00000000033861,0.55820015557562
14600.0000000356,437.137111572376,1.00000000032414,0.558037485260802
14700.0000000359,439.633824493136,1.00000000033855,0.557507231678665
14800.0000000363,441.993244131843,1.00000000033351,0.556111497218871
14900.0000000367,444.214311462247,1.00000000031792,0.556001533455351
15000.000000037,446.296122386044,1.00000000033109,0.556691500506299
15100.0000000374,448.248354302241,1.0000000003165,0.557986381863351
15200.0000000378,450.066706887659,1.00000000031052,0.556997882525897
15300.0000000381,451.75517886305,1.00000000030652,0.553873541071773
15400.0000000385,453.315139606391,1.00000000030958,0.553510104688572
15500.0000000389,454.743127165544,1.00000000030208,0.553821584232022
15600.0000000392,456.052098303031,1.00000000030791,0.557715103896346
15700.0000000396,457.238290398743,1.00000000030475,0.557911500370929
15800.0000000399,458.312815239123,1.00000000031418,0.5565791272837
15900.0000000403,459.271266501898,1.00000000028997,0.551119942528361
16000.0000000407,460.110004931317,1.00000000027858,0.549154708265016
16100.000000041,460.830526515632,1.00000000027956,0.551131161347164
16200.0000000414,461.440256236118,1.00000000029176,0.558094434292816
16300.0000000418,461.952684239244,1.00000000030123,0.561154112205419
16400.0000000418,462.37679971781,1.00000000030096,0.557579716206885
16500.0000000404,462.700953331701,1.00000000027169,0.54866458946603
16600.0000000389,462.91897482947,1.00000000027519,0.543108314816251
16700.0000000375,463.026712358318,1.00000000026546,0.545366432445152
16800.000000036,463.036604870165,1.00000000028515,0.555453280920836
16900.0000000346,462.970939626536,1.00000000030504,0.563079934655442
17000.0000000331,462.837699347455,1.00000000031098,0.562599502196061
17100.0000000317,462.638747334435,1.00000000028728,0.552034040620238
17200.0000000302,462.355016115596,1.00000000024932,0.539507009219769
17300.0000000287,461.973982796913,1.00000000024084,0.534266702407713
17400.0000000273,461.499745992547,1.00000000024982,0.542003786745475
17500.0000000258,460.951152799274,1.00000000029139,0.557774587052159
17600.0000000244,460.357068582344,1.00000000033046,0.567272949558261
17700.0000000229,459.72916155509,1.00000000032539,0.564206620374497
17800.0000000215,459.056551762133,1.00000000029143,0.548695529833465
17900.00000002,458.319499892939,1.00000000024118,0.5309135574028
18000.0000000186,457.496435003667,1.00000000021,0.521997181012132
18100.0000000171,456.591904281953,1.00000000023538,0.53138987854325
18200.0000000156,455.629272434885,1.00000000029434,0.553188311321001
18300.0000000142,454.639393187452,1.00000000034286,0.569076257047387
18400.0000000127,453.642363575846,1.00000000034706,0.569184227499951
18500.0000000113,452.629893724459,1.00000000031609,0.554188515674673
18600.0000000098,451.580639855816,1.00000000025828,0.529842321750915
18700.0000000084,450.467215254006,1.00000000020136,0.509603629656972
18800.0000000069,449.278645743597,1.00000000019934,0.509169935588093
18900.0000000055,448.031047349298,1.00000000024793,0.530586158973234
19000.000000004,446.753196502537,1.0000000003201,0.558646427933503
19100.0000000026,445.476583306747,1.00000000037636,0.57324623679106
19200.0000000011,444.213113105088,1.00000000037604,0.569748052400533
19299.9999999996,442.950708352757,1.00000000033267,0.549675824961044
19399.9999999982,441.664779819043,1.00000000025196,0.519695279049526
19499.9999999967,440.326412347227,1.0000000001932,0.495500923645039
19599.9999999953,438.927006803543,1.00000000018008,0.491789128812371
19699.9999999938,437.476503190646,1.00000000023302,0.514923481877218
19799.9999999924,436.003137339899,1.00000000031306,0.54980763022931
19899.9999999909,434.538710627943,1.00000000038692,0.57272672725132
19999.9999999895,433.098474587272,1.00000000041292,0.575438432294425
20099.999999988,431.679347784717,1.00000000037053,0.560924800905015
20199.9999999865,430.262580213595,1.00000000029591,0.532262103485744
20299.9999999851,428.82025994913,1.00000000022177,0.498705330664505
20399.9999999836,427.334479356552,1.00000000017388,0.476792571869156
20499.9999999822,425.798109454919,1.0000000001743,0.480645934409725
20599.9999999807,424.228614665026,1.00000000023603,0.512471070872928
20699.9999999793,422.652219791138,1.00000000033965,0.550340879136842
20799.9999999778,421.092630636512,1.00000000041055,0.57278393939562
20899.9999999764,419.563103601473,1.00000000042995,0.575918422462464
20999.9999999749,418.061806762104,1.00000000041006,0.56387592280889
21099.9999999734,416.573651036934,1.00000000033537,0.53768636747899
21199.999999972,415.077793962927,1.00000000025528,0.502094854127316
21299.9999999705,413.553202246915,1.0000000001941,0.472557104884011
21399.9999999691,411.993534087149,1.00000000017014,0.465233339074023
21499.9999999676,410.402230120503,1.00000000020907,0.483928574705645
21599.9999999662,408.797351014891,1.00000000028301,0.520961987851579
21699.9999999647,407.199993935557,1.00000000036479,0.554682225124365
21799.9999999633,405.625084273594,1.00000000042494,0.572229749704227
21899.9999999618,404.080591096089,1.0000000004078,0.57283148534935
21999.9999999603,402.563566759756,1.00000000039633,0.559378233492934
22099.9999999589,401.061894970376,1.0000000003311,0.534718711310582
22199.9999999574,399.560497874916,1.00000000026615,0.5018406677138
22299.999999956,398.04356022964,1.00000000020328,0.472734603075828
22399.9999999545,396.505340596391,1.00000000017736,0.46025759918661
22499.9999999531,394.945547692251,1.00000000019163,0.468693878819185
22599.9999999516,393.37312413918,1.0000000002506,0.495149353089717
22699.9999999502,391.802181054367,1.00000000033255,0.528276114589467
22799.9999999487,390.244495062083,1.00000000038779,0.554800918155225
22899.9999999473,388.709314680267,1.00000000041937,0.566446763606793
22999.9999999458,387.200121306575,1.00000000041112,0.562969518861236
23099.9999999443,385.712736442422,1.00000000038004,0.549877252598346
23199.9999999429,384.240338420683,1.00000000033397,0.528786039075667
23299.9999999414,382.7722442118,1.00000000028698,0.50310988641447
23399.99999994,381.299834523771,1.00000000023007,0.478125211856455
23499.9999999385,379.81805028252,1.00000000020305,0.464255804375334
23599.9999999371,378.325514763411,1.00000000020504,0.463837207583404
23699.9999999356,376.82703079634,1.00000000022547,0.477361592212182
23799.9999999342,375.327199925133,1.00000000027523,0.500379746493466
23899.9999999327,373.834445461159,1.00000000033054,0.526249948885317
23999.9999999312,372.355293069238,1.00000000036596,0.544182269502945
24099.9999999298,370.893653155121,1.00000000038659,0.553473062442099
24199.9999999283,369.450985906524,1.00000000037973,0.549762150644466
24299.9999999269,368.0256824912,1.00000000038885,0.539769670526248
24399.9999999254,366.613151059198,1.00000000034433,0.524695336837518
24499.999999924,365.209044128149,1.00000000030945,0.509297616531072
24599.9999999225,363.808280201558,1.00000000026582,0.491864504908019
24699.9999999211,362.408295602921,1.00000000023436,0.478101342866292
24799.9999999196,361.007516314781,1.00000000022413,0.471312139981288
24899.9999999181,359.606766988961,1.00000000022846,0.470983033819021
24999.9999999167,358.208087818482,1.00000000025217,0.48070520271091
25099.9999999152,356.81321554506,1.00000000026709,0.495044243938644
25199.9999999138,355.425991747254,1.00000000029623,0.511507975978123
25299.9999999123,354.049085694261,1.00000000033134,0.526362228001185
25399.9999999109,352.684197141182,1.00000000035992,0.534519362025395
25499.9999999094,351.332661732126,1.00000000037817,0.535102648895999
25599.999999908,349.993854248148,1.0000000003503,0.531168958518535
25699.9999999065,348.666313149286,1.00000000033144,0.523939580124941
25799.9999999051,347.348816504422,1.00000000031919,0.516086642390798
25899.9999999036,346.039029332866,1.00000000028326,0.507873881083335
25999.9999999021,344.736237878489,1.00000000028716,0.501517105486391
26099.9999999007,343.439253402561,1.00000000026301,0.492887706480034
26199.9999998992,342.148393509772,1.00000000023872,0.48568461187884
26299.9999998978,340.863526699698,1.00000000024531,0.481763123092004
26399.9999998963,339.584763184178,1.00000000024337,0.480344573149564
26499.9999998949,338.313089725914,1.00000000025687,0.485257248737402
26599.9999998934,337.04851712931,1.00000000027458,0.492870093730138
26699.999999892,335.792336110636,1.00000000029774,0.502287974346538
26799.9999998905,334.545272473095,1.00000000030366,0.511183705060273
26899.999999889,333.307406854327,1.00000000034119,0.518272777488691
26999.9999998876,332.079067542644,1.00000000034998,0.520953335921257
27099.9999998861,330.860131186082,1.00000000035163,0.522128586468044
27199.9999998847,329.649988014915,1.00000000033063,0.520938744106111
27299.9999998832,328.448758774267,1.00000000030487,0.517161928047339
27399.9999998818,327.255736203715,1.00000000029893,0.512641289309571
27499.9999998803,326.071143510363,1.00000000028961,0.509907421716119
27599.9999998789,324.8947770082,1.00000000029712,0.511117703171226
27699.9999998774,323.72695471047,1.00000000028098,0.509240725579745
27799.9999998759,322.568062486301,1.00000000028089,0.503897808702708
27899.9999998745,321.418016819124,1.00000000027611,0.496923514209385
27999.999999873,320.2776557367,1.00000000025007,0.489279584738724
28099.9999998716,319.146347205707,1.00000000023919,0.483699924686
28199.9999998701,318.024748703636,1.00000000023766,0.480606938688828
28299.9999998687,316.913131589278,1.00000000024549,0.48280467456286
28399.9999998672,315.811033853265,1.00000000027761,0.48971177821503
28499.9999998658,314.717941702676,1.00000000031221,0.498579022027663
28599.9999998643,313.633126969006,1.0000000003406,0.506925108486199
28699.9999998629,312.555243390221,1.00000000034901,0.51575808828854
28799.9999998614,311.48375615501,1.00000000035474,0.519581714204147
28899.9999998599,310.418808322869,1.00000000032989,0.519502666403078
