Time,AGPnorm,Energy,Entropy
0,0,1,1.04111361373983e-18
99.9999999999986,0.00515512505036414,0.999999999996914,0.0156720153835117
199.999999999993,0.0138992820527312,0.999999999999855,0.0453446127454052
300,0.0289128326414907,0.999999999997383,0.089227523579983
400.000000000022,0.0444199244659437,1.00000000000183,0.146333723222327
500.000000000045,0.0604875207336435,1.00000000004116,0.227200116046951
600.000000000068,0.0979328134610867,1.00000000033906,0.332017262755898
700.000000000091,0.237753386476424,1.00000000094103,0.431301993980989
800.000000000113,0.832285740585227,1.00000000168322,0.498579771971613
900.000000000136,2.11995301657809,1.00000000179448,0.539960819424128
1000.00000000016,4.26266151434605,1.00000000202311,0.560476756219073
1100.0000000001,7.11167157933162,1.00000000197331,0.570230696963468
1200,10.4332911791856,1.00000000188827,0.570658479913173
1299.99999999991,13.9109193039197,1.000000001959,0.568433122147331
1399.99999999982,17.2911440451289,1.00000000185131,0.56084784056781
1499.99999999973,20.3351828384637,1.00000000168628,0.551162800152309
1599.99999999964,22.9345945895978,1.00000000158327,0.54607113725623
1699.99999999955,24.995031239018,1.0000000014795,0.534461936506768
1799.99999999946,26.5429660149917,1.00000000142983,0.540445369339249
1899.99999999937,27.5479898416362,1.00000000121845,0.511609029138271
1999.99999999928,28.1319263890955,1.00000000133663,0.547101151923261
2099.99999999919,28.2878193095672,1.00000000097231,0.475080442494002
2199.99999999909,28.1345864687514,1.00000000146562,0.563021199087251
2299.999999999,27.8467990630274,1.00000000102253,0.473798530769406
2399.99999999891,27.2501336381472,1.00000000101329,0.479962584738608
2499.99999999882,26.6636409333521,1.00000000173485,0.583074679078146
2599.99999999873,26.0708963273923,1.00000000082352,0.429897171352215
2699.99999999864,25.3063980092587,1.00000000081617,0.412513894005299
2799.99999999855,24.5540140073494,1.00000000179064,0.565378510143063
2899.99999999846,23.9182575570076,1.00000000153916,0.545643429915608
2999.99999999837,23.2660793462845,1.00000000062309,0.358060793112128
3099.99999999828,22.5682099674092,1.00000000088217,0.395040514164422
3199.99999999819,21.8816380387509,1.00000000157613,0.528349773087777
3299.99999999809,21.2548238874933,1.00000000166183,0.556805762511842
3399.999999998,20.691341317971,1.00000000126776,0.525693019111736
3499.99999999791,20.1408904896859,1.00000000069772,0.359183332422405
3599.99999999782,19.635317331347,1.00000000083182,0.373913680527809
3699.99999999773,19.1540215126489,1.00000000138185,0.497910407055115
3799.99999999764,18.674180557577,1.0000000012383,0.527719226667579
3899.99999999755,18.2090883155437,1.00000000148831,0.509288568487578
3999.99999999746,17.7560328868697,1.00000000173216,0.577319388450231
4099.99999999738,17.3342159978483,1.00000000118792,0.507713594252477
4199.99999999775,16.9694929274486,1.00000000056348,0.365109975837835
4299.99999999811,16.7096913467064,1.00000000088571,0.357325859779025
4399.99999999848,16.4985410542485,1.00000000130496,0.463443326228185
4499.99999999884,16.2625639894423,1.00000000151001,0.52852157944043
4599.9999999992,15.9911673078134,1.00000000146904,0.552331799017106
4699.99999999957,15.7300198350872,1.00000000094869,0.512938337429039
4799.99999999993,15.4741112275591,1.00000000124592,0.514428950050448
4900.00000000029,15.1931087024049,1.00000000160932,0.535640774166261
5000.00000000066,14.8995531774495,1.00000000164796,0.580616768277173
5100.00000000102,14.6170360276698,1.00000000127032,0.546123484326
5200.00000000139,14.3852109641947,1.0000000006587,0.42412623303052
5300.00000000175,14.2705158918872,1.00000000063596,0.359574690732938
5400.00000000211,14.2796743337912,1.00000000085737,0.379829378457133
5500.00000000248,14.3238306947622,1.00000000133652,0.464727988833023
5600.00000000284,14.3212142340949,1.00000000152464,0.530550488116637
5700.00000000321,14.2879906576498,1.00000000123732,0.536202952083008
5800.00000000357,14.2348154762856,1.00000000121345,0.541823427303891
5900.00000000393,14.144714419812,1.00000000145905,0.559183079999147
6000.0000000043,14.0259993554241,1.00000000126434,0.539090758128596
6100.00000000466,13.9010050093525,1.00000000115721,0.548993675886066
6200.00000000502,13.7760747518269,1.00000000118543,0.544841987256601
6300.00000000539,13.655946311954,1.00000000115839,0.547440386449139
6400.00000000575,13.522536532839,1.00000000133105,0.550977067582439
6500.00000000612,13.3653252351029,1.00000000145323,0.556353552620419
6600.00000000648,13.1886650134469,1.0000000017637,0.569659941867006
6700.00000000684,13.0023491288711,1.00000000162757,0.588457591175918
6800.00000000721,12.8202805048703,1.00000000119576,0.554035669864135
6900.00000000757,12.6706714956544,1.00000000075982,0.471194178934163
7000.00000000793,12.6117968684657,1.00000000059013,0.393378626228236
7100.0000000083,12.6882156391595,1.00000000070832,0.376771195589633
7200.00000000866,12.8855187528195,1.00000000093212,0.394783889718462
7300.00000000903,13.1224065345028,1.00000000135275,0.449518061361883
7400.00000000939,13.3359027326334,1.0000000013514,0.499333762714392
7500.00000000975,13.5072616590724,1.00000000138679,0.538806070964817
7600.00000001012,13.6337153807961,1.00000000133938,0.551199895522682
7700.00000001048,13.7278895430331,1.00000000127954,0.562097713637659
7800.00000001084,13.7878418392124,1.00000000136466,0.580746214136759
7900.00000001121,13.8038710446142,1.00000000131595,0.588956721417065
8000.00000001157,13.7898736993081,1.00000000124855,0.576188510522647
8100.00000001194,13.7599761774589,1.00000000128289,0.563847202446657
8200.0000000123,13.7229027433244,1.00000000132805,0.56065827125377
8300.00000001266,13.6717567925523,1.00000000130197,0.551576746862017
8400.00000001303,13.6101579631072,1.00000000125385,0.55238028914779
8500.00000001339,13.5516429297322,1.00000000104849,0.555432921612661
8600.00000001376,13.4976179448919,1.00000000122886,0.554399534711143
8700.00000001412,13.4395917822433,1.00000000125671,0.559274977285661
8800.00000001448,13.3801832049143,1.00000000124492,0.564738935553719
8900.00000001485,13.3200320329166,1.00000000127698,0.561730718989175
9000.00000001521,13.2545155155428,1.00000000135181,0.559364578284754
9100.00000001557,13.1771643425754,1.00000000141268,0.562882469643752
9200.00000001594,13.0870429866364,1.00000000131677,0.591395922008433
9300.0000000163,12.9905512421345,1.00000000117781,0.597440018990727
9400.00000001667,12.8965815190827,1.00000000110311,0.584614909591924
9500.00000001703,12.8012334094484,1.00000000123229,0.592086707014351
9600.00000001739,12.6999943312206,1.0000000013341,0.589011287534631
9700.00000001776,12.5912429900324,1.00000000155111,0.593234125893161
9800.00000001812,12.478015116707,1.00000000164788,0.601869495925394
9900.00000001848,12.3668800668594,1.00000000160745,0.595511214311958
10000.0000000188,12.2598117682962,1.00000000190057,0.601046888251265
10100.0000000192,12.1528521363081,1.00000000147455,0.591644726484716
10200.0000000196,12.0399368588446,1.00000000126132,0.567549600425917
10300.0000000199,11.9269465294154,1.00000000092182,0.511784916092348
10400.0000000203,11.842212706765,1.00000000072235,0.458402324807826
10500.0000000207,11.8284058233255,1.00000000063614,0.408557884816029
10600.000000021,11.9223067035214,1.00000000075705,0.388724975295497
10700.0000000214,12.1373818735707,1.00000000068375,0.391430360462345
10800.0000000218,12.4519786522165,1.00000000114924,0.412123905239102
10900.0000000221,12.810955009193,1.00000000119879,0.442079360187423
11000.0000000225,13.1765134074305,1.00000000147825,0.472459740297098
11100.0000000229,13.5096355484255,1.00000000139245,0.500916885300664
11200.0000000232,13.8142833307078,1.00000000140789,0.521483908910481
11300.0000000236,14.0818579301829,1.00000000147811,0.549270014754453
11400.0000000239,14.316224076681,1.00000000140866,0.56426825662471
11500.0000000243,14.5183342363978,1.00000000138571,0.568560005299184
11600.0000000247,14.6870703558535,1.00000000138206,0.582885496522147
11700.000000025,14.8253787643142,1.00000000136634,0.595765629073478
11800.0000000254,14.9321050016297,1.00000000138206,0.607342224738804
11900.0000000258,15.0095742480171,1.00000000142758,0.611395285909327
12000.0000000261,15.0613605795581,1.00000000137067,0.61069954325415
12100.0000000265,15.092744846093,1.0000000013704,0.611301202175179
12200.0000000269,15.1053052028487,1.00000000146045,0.610344037363082
12300.0000000272,15.1075643929828,1.00000000125368,0.595573577662456
12400.0000000276,15.1018425974496,1.00000000146077,0.594497760618106
12500.0000000279,15.078902101976,1.00000000152653,0.595432338797364
12600.0000000283,15.0512260272371,1.00000000126305,0.581436470484481
12700.0000000287,15.0150491856135,1.00000000141499,0.591933388169218
12800.000000029,14.9666579048151,1.00000000132405,0.592807907231956
12900.0000000294,14.9123461887289,1.00000000140397,0.602313668782249
13000.0000000298,14.8512294092005,1.00000000140463,0.600983617925705
13100.0000000301,14.7828354563808,1.00000000154448,0.615262901929124
13200.0000000305,14.7093923100417,1.00000000142624,0.610700112883113
13300.0000000309,14.6391246894246,1.00000000123042,0.599476178244131
13400.0000000312,14.5750613400036,1.00000000126177,0.580630642966632
13500.0000000316,14.519751781614,1.0000000012668,0.564344471423801
13600.0000000319,14.471654567552,1.00000000143531,0.568996238270292
13700.0000000323,14.42356815141,1.00000000138898,0.578641412993388
13800.0000000327,14.3762839568627,1.00000000143324,0.575565958203316
13900.000000033,14.3268248409853,1.00000000149459,0.576121139864872
14000.0000000334,14.2773291710549,1.00000000130385,0.58583806934001
14100.0000000338,14.2336545677218,1.00000000130443,0.587077303515074
14200.0000000341,14.1915371293437,1.00000000144198,0.584335002593004
14300.0000000345,14.1477304324451,1.00000000143001,0.584991382306237
14400.0000000349,14.1080480461044,1.00000000128135,0.586335812802802
14500.0000000352,14.0740029895621,1.00000000123628,0.569772500076186
14600.0000000356,14.0420896407837,1.0000000015411,0.560620919352
14700.0000000359,14.0070977178001,1.00000000151162,0.560802225749201
14800.0000000363,13.9744617413878,1.00000000125029,0.568932127489311
14900.0000000367,13.9461673961613,1.00000000145579,0.58650145285722
15000.000000037,13.9172133106356,1.00000000141483,0.604752250675255
15100.0000000374,13.888732714973,1.00000000148847,0.607300493967361
15200.0000000378,13.861359888483,1.00000000149966,0.593296397618531
15300.0000000381,13.8303438522841,1.00000000149883,0.587130437184682
15400.0000000385,13.7974010508087,1.00000000137402,0.600929243393485
15500.0000000389,13.7692408051623,1.00000000135516,0.60276693108857
15600.0000000392,13.7396768670267,1.00000000152055,0.612126289051607
15700.0000000396,13.7062834708968,1.00000000145931,0.616612646300488
15800.0000000399,13.6725270454049,1.00000000133495,0.606312332439552
15900.0000000403,13.6352286770439,1.00000000149026,0.617170228091494
16000.0000000407,13.5907455543222,1.0000000015265,0.622942822827731
16100.000000041,13.5431551613068,1.00000000147666,0.612649095417107
16200.0000000414,13.4928212985328,1.0000000013579,0.612892248573963
16300.0000000418,13.4412731140601,1.00000000140068,0.617201032044238
16400.0000000418,13.3942021729821,1.00000000131761,0.619962095892498
16500.0000000404,13.3511074632083,1.00000000135647,0.617098480507007
16600.0000000389,13.3048913598508,1.0000000016891,0.620074308260557
16700.0000000375,13.2520212652547,1.00000000145374,0.610829667801804
16800.000000036,13.1993036202085,1.00000000121407,0.616017130486271
16900.0000000346,13.1511543729859,1.00000000136543,0.626131875044708
17000.0000000331,13.0997067258166,1.00000000152718,0.621662954133154
17100.0000000317,13.048651345923,1.00000000131768,0.607228523273944
17200.0000000302,13.0014684313719,1.00000000132874,0.613149030894219
17300.0000000287,12.9533904411003,1.00000000140967,0.605159403024907
17400.0000000273,12.9025236804345,1.00000000138152,0.618918226097644
17500.0000000258,12.8491660267475,1.00000000146325,0.626434850250765
17600.0000000244,12.7927458909867,1.0000000014848,0.625497775843697
17700.0000000229,12.7347749962882,1.00000000146982,0.611264595530234
17800.0000000215,12.6753622764766,1.00000000153678,0.629635506726645
17900.00000002,12.6122368796455,1.00000000161373,0.636303282510385
18000.0000000186,12.5478799771452,1.00000000144758,0.635399016650024
18100.0000000171,12.4850644805538,1.00000000132781,0.627582391060921
18200.0000000156,12.4216168484732,1.00000000145293,0.648530540618253
18300.0000000142,12.3555873898221,1.00000000163439,0.632543378865527
18400.0000000127,12.2892276091634,1.00000000146449,0.641697510422259
18500.0000000113,12.2235225432298,1.00000000132967,0.618969980540947
18600.0000000098,12.1583869801787,1.00000000145515,0.632921147251643
18700.0000000084,12.0937538915594,1.00000000138745,0.642310868350209
18800.0000000069,12.0299449899975,1.00000000121806,0.62969697345773
18900.0000000055,11.9673216851981,1.00000000149435,0.629766825978791
19000.000000004,11.9062811547347,1.00000000138783,0.631379691233197
19100.0000000026,11.8481467398053,1.00000000145449,0.63623059854884
19200.0000000011,11.7936654365414,1.00000000153946,0.632423050778244
19299.9999999996,11.7450840801866,1.00000000156266,0.640844389187409
19399.9999999982,11.705670925193,1.00000000168672,0.644631309276594
19499.9999999967,11.6756334542123,1.00000000172584,0.646472126976686
19599.9999999953,11.6638084311196,1.00000000172508,0.652481655052389
19699.9999999938,11.6641261653249,1.000000001781,0.648669449463081
19799.9999999924,11.6929940479665,1.00000000181485,0.64700701300008
19899.9999999909,11.732086071888,1.00000000191909,0.635826048578665
19999.9999999895,11.7995583528966,1.00000000187464,0.617679636873992
20099.999999988,11.8662641039693,1.00000000182885,0.607727996227526
20199.9999999865,11.944282239815,1.00000000176149,0.59513790690632
20299.9999999851,12.0019777098341,1.00000000158458,0.586927086464375
20399.9999999836,12.0404350902723,1.00000000152134,0.577585730859868
20499.9999999822,12.0466318577097,1.00000000127554,0.547551556577881
20599.9999999807,12.0218920939863,1.00000000111886,0.51963174735971
20699.9999999793,11.9775003455054,1.00000000089207,0.488523978193791
20799.9999999778,11.9282059675064,1.00000000091856,0.463634583798896
20899.9999999764,11.8976957978579,1.00000000089221,0.437427964703169
20999.9999999749,11.9106456316675,1.00000000087084,0.421398297762464
21099.9999999734,11.9927896429864,1.00000000085364,0.403875740889087
21199.999999972,12.1586113274139,1.0000000007992,0.397318149385041
21299.9999999705,12.4368346891586,1.00000000086737,0.398647394897789
21399.9999999691,12.8010299052752,1.00000000103024,0.403773382601254
21499.9999999676,13.2849965989161,1.00000000123938,0.414692487611129
21599.9999999662,13.816125116431,1.0000000013128,0.429756055321142
21699.9999999647,14.4225953734474,1.00000000141669,0.437963086070471
21799.9999999633,15.0336861282956,1.00000000150105,0.450340660850979
21899.9999999618,15.6688343863384,1.0000000013555,0.460052345893223
21999.9999999603,16.2962607467109,1.0000000016351,0.47759082704585
22099.9999999589,16.902617224199,1.00000000158019,0.492057669860524
22199.9999999574,17.5004889782196,1.00000000163466,0.502113274436147
22299.999999956,18.054768086287,1.00000000161767,0.517555799100994
22399.9999999545,18.6059980370291,1.00000000164352,0.524144170111968
22499.9999999531,19.1168099018633,1.00000000155982,0.534837275144872
22599.9999999516,19.6065739453653,1.00000000158083,0.53929154518255
22699.9999999502,20.0766733813357,1.00000000149434,0.557755824687015
22799.9999999487,20.5175323522041,1.00000000161454,0.562032599876063
22899.9999999473,20.939882814598,1.00000000159971,0.569957191714246
22999.9999999458,21.3237470040006,1.00000000151566,0.584699979113036
23099.9999999443,21.698231266028,1.00000000152784,0.596914518339644
23199.9999999429,22.0364101204099,1.00000000148611,0.59700622987918
23299.9999999414,22.3539568728072,1.00000000153522,0.604922721373574
23399.99999994,22.6422305555343,1.00000000162095,0.627207548697476
23499.9999999385,22.9019854289502,1.00000000163085,0.628508694776803
23599.9999999371,23.1450319573542,1.00000000146629,0.624357446297015
23699.9999999356,23.358787469303,1.00000000164927,0.631416614252369
23799.9999999342,23.5542103879634,1.00000000155043,0.640508494398793
23899.9999999327,23.7163932355979,1.00000000169852,0.645474487969737
23999.9999999312,23.8644035300239,1.00000000151009,0.635195504438714
24099.9999999298,23.9902429813374,1.00000000159065,0.627333127519672
24199.9999999283,24.098405486572,1.00000000137459,0.636469186875959
24299.9999999269,24.1881955305796,1.00000000159461,0.642690653807719
24399.9999999254,24.2547678712853,1.00000000155953,0.637444469087503
24499.999999924,24.3133776506641,1.00000000148785,0.634272393407716
24599.9999999225,24.3598995295059,1.00000000166417,0.628433653069125
24699.9999999211,24.4032499201773,1.00000000139928,0.621723092468473
24799.9999999196,24.4323364167102,1.00000000163014,0.622435840635118
24899.9999999181,24.4461888876835,1.00000000171012,0.646655350285047
24999.9999999167,24.4415061044634,1.00000000165314,0.640827808027683
25099.9999999152,24.432884559892,1.00000000140048,0.625321175436425
25199.9999999138,24.425213137165,1.00000000147604,0.619115881451909
25299.9999999123,24.4141388453692,1.00000000148631,0.615001761937312
25399.9999999109,24.3981827654872,1.0000000016081,0.614727100438973
25499.9999999094,24.3750452282412,1.00000000163097,0.612799761768986
25599.999999908,24.3494916229017,1.00000000156876,0.620783731673806
25699.9999999065,24.3195033751279,1.00000000153564,0.637716226406166
25799.9999999051,24.2848369914652,1.0000000015682,0.638038888765284
25899.9999999036,24.2516008271314,1.00000000140921,0.601867527062806
25999.9999999021,24.2219416325695,1.00000000129831,0.586600766654316
26099.9999999007,24.188456929228,1.00000000172995,0.599917672147908
26199.9999998992,24.1448771987414,1.00000000176686,0.590536911214826
26299.9999998978,24.0947925547191,1.0000000017709,0.600370017380462
26399.9999998963,24.0426089542173,1.00000000146611,0.597787677460753
26499.9999998949,23.9942968479876,1.00000000165175,0.604792883435578
26599.9999998934,23.9453776240404,1.00000000161931,0.635948665794945
26699.999999892,23.890504668341,1.00000000186872,0.643072485245189
26799.9999998905,23.8310058094774,1.00000000163208,0.643735523621926
26899.999999889,23.7714403121097,1.00000000152055,0.630631527423187
26999.9999998876,23.716214344403,1.00000000138498,0.616232786410318
27099.9999998861,23.6634678156573,1.00000000152573,0.616326795706786
27199.9999998847,23.61178867807,1.00000000169009,0.618401039988283
27299.9999998832,23.5612164432989,1.00000000150386,0.606588546033307
27399.9999998818,23.5175017214385,1.0000000016102,0.582706208798871
27499.9999998803,23.4797589623984,1.0000000016457,0.598304273042047
27599.9999998789,23.4371923589035,1.00000000178777,0.619157715001258
27699.9999998774,23.386845381603,1.00000000182872,0.622800179557697
27799.9999998759,23.3330576860428,1.00000000152737,0.61621097122575
27899.9999998745,23.284265411593,1.00000000145272,0.609738197421744
27999.999999873,23.2370838602217,1.0000000016424,0.638810335155139
28099.9999998716,23.1846549840393,1.00000000165673,0.633586704460682
28199.9999998701,23.1287417776361,1.00000000159869,0.617989197840496
28299.9999998687,23.074523067746,1.00000000147074,0.609970495540838
28399.9999998672,23.0253994447788,1.00000000152908,0.607064451337298
28499.9999998658,22.9791836045384,1.00000000156405,0.605895477179356
28599.9999998643,22.9340476059894,1.00000000156814,0.616979318350787
28699.9999998629,22.8837992143529,1.00000000169891,0.626272424985974
28799.9999998614,22.8309402184226,1.00000000154616,0.616505526257641
28899.9999998599,22.7795041509615,1.00000000157867,0.629333011494585
28999.9999998585,22.7252698194735,1.00000000166108,0.629246426693611
