Time,AGPnorm,Energy,Entropy
0,0,1,-1.51361902305254e-17
99.9999999999986,9.30447241082494e-06,0.999999999996179,0.000431850831584571
199.999999999993,0.000812046242451372,0.999999999998816,0.000698861893400219
300,0.00199157393927423,0.999999999998614,0.00120678070689028
400.000000000022,0.00269032380438004,0.999999999996296,0.0021343794577677
500.000000000045,0.00325375430730629,1.00000000000003,0.00285190088697076
600.000000000068,0.00482722412418501,0.999999999996633,0.0039815626290517
700.000000000091,0.00599959270883427,0.999999999998098,0.00517602091495391
800.000000000113,0.00758526195831935,0.999999999999253,0.00633170181796618
900.000000000136,0.00954941070575905,0.999999999996035,0.00787539572648558
1000.00000000016,0.0111444686756248,0.99999999999979,0.00926847403768775
1100.0000000001,0.0134547779276029,0.999999999997262,0.010853164644945
1200,0.0157294579237984,0.999999999997378,0.012643569875564
1299.99999999991,0.0181201528974679,0.999999999999715,0.0142889041081936
1399.99999999982,0.0211226690602684,0.999999999996044,0.0162572347173916
1499.99999999973,0.0237975046743869,0.999999999999328,0.0181793721393896
1599.99999999964,0.0268184088032502,0.999999999997962,0.0201398400671925
1699.99999999955,0.0299441640366151,0.999999999996756,0.0223873477696718
1799.99999999946,0.0331205107467109,0.999999999999951,0.0244680552476863
1899.99999999937,0.0370183253355975,0.999999999996321,0.0267792243340668
1999.99999999928,0.0406756075399331,0.999999999998689,0.0291633239086261
2099.99999999919,0.0443859843431652,0.999999999998629,0.0314739312565685
2199.99999999909,0.0483413811634278,0.999999999996335,0.0340991819684393
2299.999999999,0.0522550286657428,0.999999999999954,0.0365998911473261
2399.99999999891,0.056760426885286,0.999999999996808,0.0392325180637145
2499.99999999882,0.0611478181831566,0.999999999997964,0.042044304304302
2599.99999999873,0.0655141736202983,0.999999999999177,0.0447126212995431
2699.99999999864,0.0703328569566823,0.999999999996167,0.0476816106076112
2799.99999999855,0.074976924527162,0.99999999999971,0.0506086341736798
2899.99999999846,0.0798478913312121,0.999999999997412,0.0535765911782725
2999.99999999837,0.084698255025064,0.99999999999728,0.0567995485827102
3099.99999999828,0.0896286974210569,0.99999999999957,0.059866723123843
3199.99999999819,0.0951808333120402,0.999999999996265,0.063188221024142
3299.99999999809,0.10049388464338,0.999999999999215,0.0665717083823564
3399.999999998,0.105626637958169,0.999999999998031,0.0699130528158735
3499.99999999791,0.110851704018917,0.999999999996756,0.0735577382301736
3599.99999999782,0.116224136141743,0.999999999999813,0.077090631732764
3699.99999999773,0.122203177267786,0.999999999996589,0.0808186719561162
3799.99999999764,0.127947626806105,0.999999999998522,0.0847158392751557
3899.99999999755,0.133333656628747,0.999999999998561,0.0885085758806394
3999.99999999746,0.138992661610552,0.999999999996456,0.0926384502119178
4099.99999999738,0.144737952590919,0.999999999999868,0.0967379918491498
4199.99999999775,0.150825872597397,0.999999999997075,0.10097981925758
4299.99999999811,0.156675694197602,0.999999999997797,0.105488873634408
4399.99999999848,0.162307223721568,0.999999999998958,0.109882090357142
4499.99999999884,0.168396633948688,0.999999999996393,0.114642872211966
4599.9999999992,0.174448725531092,0.999999999999646,0.119496423240022
4699.99999999957,0.180442524555499,0.999999999997644,0.12443943472305
4799.99999999993,0.186200480695279,0.999999999997277,0.129757247648632
4900.00000000029,0.19200879138262,0.999999999999353,0.13503725216047
5000.00000000066,0.198376112054922,0.999999999996689,0.140728707437136
5100.00000000102,0.204498059783509,0.999999999999315,0.14668944270504
5200.00000000139,0.210382434825362,0.999999999998498,0.152729653253907
5300.00000000175,0.216078127491355,0.999999999997474,0.159296210857621
5400.00000000211,0.221987551619739,1.00000000000063,0.165966234350092
5500.00000000248,0.228629681617295,0.999999999998534,0.173115861417552
5600.00000000284,0.23438134402656,1.00000000000089,0.180712844739477
5700.00000000321,0.240605635227229,1.00000000000234,0.188375319964455
5800.00000000357,0.246744184196117,1.00000000000235,0.196614778698279
5900.00000000393,0.252966857730529,1.00000000000801,0.204996832652545
6000.0000000043,0.261602033959418,1.00000000000821,0.21366658133107
6100.00000000466,0.26802481331238,1.00000000001308,0.222688640893867
6200.00000000502,0.277793855056791,1.00000000001761,0.231569237089345
6300.00000000539,0.290127897328603,1.00000000002034,0.24075814117701
6400.00000000575,0.302552103535903,1.00000000002923,0.249921071161755
6500.00000000612,0.325065889075257,1.0000000000325,0.258925651819543
6600.00000000648,0.347900391506739,1.00000000003872,0.268117191267324
6700.00000000684,0.381431911672828,1.00000000004931,0.276858004004755
6800.00000000721,0.430909930895301,1.00000000005479,0.285747366766755
6900.00000000757,0.486021738384667,1.00000000006295,0.294560564078361
7000.00000000793,0.570178120395961,1.00000000007273,0.302866173009075
7100.0000000083,0.672059174489081,1.00000000007745,0.311354749365132
7200.00000000866,0.800113949931805,1.00000000009376,0.319347806443867
7300.00000000903,0.975435789667231,1.00000000009696,0.327367140118926
7400.00000000939,1.17663070719043,1.00000000010868,0.335375448948745
7500.00000000975,1.43760526768552,1.00000000011423,0.342819534660266
7600.00000001012,1.75534723219558,1.0000000001194,0.350391699458076
7700.00000001048,2.1251516345534,1.00000000013307,0.357659472504133
7800.00000001084,2.58897794849462,1.00000000013697,0.364653620114867
7900.00000001121,3.11790747084549,1.0000000001457,0.371811971273697
8000.00000001157,3.74369628433887,1.00000000016098,0.378299168076248
8100.00000001194,4.48247005642326,1.00000000016306,0.384950935377781
8200.0000000123,5.30882998104448,1.00000000016762,0.391504368861073
8300.00000001266,6.28019153262779,1.00000000018201,0.397440998564756
8400.00000001303,7.37059249330867,1.00000000018022,0.403721927595733
8500.00000001339,8.59349660125629,1.00000000019867,0.409382875411119
8600.00000001376,9.99028153109382,1.00000000019992,0.415043370750294
8700.00000001412,11.5167801533194,1.00000000020815,0.420793543449408
8800.00000001448,13.2307626812083,1.00000000022395,0.425841617787466
8900.00000001485,15.1222719399472,1.00000000021259,0.431246995114586
9000.00000001521,17.1751651361029,1.00000000021802,0.436281026933445
9100.00000001557,19.4535218442942,1.00000000023655,0.44089050062571
9200.00000001594,21.9049665196745,1.00000000022872,0.445924542904368
9300.0000000163,24.5695785820051,1.00000000024078,0.450195530655325
9400.00000001667,27.4628091419121,1.00000000024559,0.454672866279024
9500.00000001703,30.5387109109425,1.00000000023621,0.459153719133853
9600.00000001739,33.8712777678705,1.00000000026559,0.462892770015228
9700.00000001776,37.4154784320226,1.00000000024541,0.467229892555426
9800.00000001812,41.1801142175036,1.00000000024296,0.470913394287925
9900.00000001848,45.2075553006014,1.00000000026407,0.474494760111849
10000.0000000188,49.4321261802366,1.00000000025149,0.478407130130571
10100.0000000192,53.9199227789712,1.00000000025821,0.481499943724159
10200.0000000196,58.6462519077792,1.00000000026178,0.485038180879243
10300.0000000199,63.5852497891868,1.00000000026161,0.488212760992042
10400.0000000203,68.7992213513717,1.00000000026324,0.491074887805938
10500.0000000207,74.2179026304956,1.00000000028012,0.494246996193834
10600.000000021,79.8843173339765,1.00000000029107,0.496776029209592
10700.0000000214,85.8005598958547,1.00000000026221,0.499708554284509
10800.0000000218,91.9109156800775,1.0000000002821,0.502497448367471
10900.0000000221,98.2864470644169,1.00000000028329,0.504623045157296
11000.0000000225,104.866565718584,1.00000000029019,0.507313816880998
11100.0000000229,111.661917583556,1.00000000028415,0.509467252767297
11200.0000000232,118.701562552346,1.00000000029683,0.511547109276363
11300.0000000236,125.911838184772,1.00000000028155,0.514161834828087
11400.0000000239,133.357828734742,1.00000000027631,0.515722136203437
11500.0000000243,140.999347157704,1.00000000028824,0.51785173206739
11600.0000000247,148.814449329672,1.00000000028435,0.519776171466902
11700.000000025,156.852164764337,1.0000000002847,0.521157153940051
11800.0000000254,165.034682977818,1.00000000028118,0.523392626413643
11900.0000000258,173.409463404969,1.00000000028797,0.524652818808962
12000.0000000261,181.961820362306,1.00000000028238,0.526039262204321
12100.0000000265,190.642656506631,1.00000000028793,0.527938641698203
12200.0000000269,199.511026749766,1.00000000027829,0.528809737065691
12300.0000000272,208.498358217817,1.00000000028178,0.53025673786589
12400.0000000276,217.62577314508,1.00000000028912,0.531652023729807
12500.0000000279,226.905140876103,1.0000000002833,0.532450237461997
12600.0000000283,236.269435427386,1.00000000028355,0.533983434832666
12700.0000000287,245.776870255451,1.0000000002853,0.53480935454286
12800.000000029,255.377736433654,1.00000000028392,0.535543912211992
12900.0000000294,265.064355806713,1.00000000027891,0.536771743306856
13000.0000000298,274.86903111674,1.00000000027921,0.537270883335448
13100.0000000301,284.721663163866,1.0000000002786,0.538302089614582
13200.0000000305,294.666706004275,1.00000000027798,0.539000541902175
13300.0000000309,304.679466542315,1.00000000027492,0.539606810626919
13400.0000000312,314.727690818066,1.00000000027539,0.540424253530386
13500.0000000316,324.854719923851,1.00000000027273,0.540706844063635
13600.0000000319,334.996674544255,1.00000000027715,0.541418646097845
13700.0000000323,345.181560074218,1.0000000002716,0.542019582254774
13800.0000000327,355.404867356734,1.00000000027454,0.542313095197827
13900.000000033,365.62108458931,1.00000000027653,0.542807255736319
14000.0000000334,375.874638819996,1.00000000026812,0.54293986004324
14100.0000000338,386.115403395436,1.00000000026267,0.543317762067258
14200.0000000341,396.351201051705,1.00000000026287,0.544040846900906
14300.0000000345,406.597300063297,1.00000000026227,0.544092415244846
14400.0000000349,416.799428173659,1.00000000025959,0.544143757246822
14500.0000000352,426.996880804349,1.00000000026216,0.54436920304848
14600.0000000356,437.157728657111,1.00000000025059,0.544549512427873
14700.0000000359,447.272664700639,1.0000000002536,0.544787770202426
14800.0000000363,457.36585868108,1.00000000025663,0.544943630670636
14900.0000000367,467.388955937329,1.00000000026666,0.54496786820236
15000.000000037,477.369648079602,1.00000000025406,0.544677172741191
15100.0000000374,487.291390021354,1.00000000025852,0.544739465914908
15200.0000000378,497.134339802751,1.00000000025409,0.545231497875957
15300.0000000381,506.926359417578,1.00000000024646,0.54514881819533
15400.0000000385,516.625316152714,1.00000000025217,0.545131406578166
15500.0000000389,526.248417189572,1.00000000024019,0.544871925242187
15600.0000000392,535.794797817753,1.00000000023904,0.544672439432643
15700.0000000396,545.234409881094,1.00000000024077,0.544825311256228
15800.0000000399,554.59703039047,1.00000000023898,0.544913879542571
15900.0000000403,563.850255945124,1.00000000023105,0.54474137958158
16000.0000000407,572.999640053577,1.00000000024076,0.544567031870234
16100.000000041,582.056324993477,1.0000000002392,0.544337365008292
16200.0000000414,590.98641920306,1.00000000023777,0.544199946414105
16300.0000000418,599.816789963374,1.00000000023406,0.544102343934468
16400.0000000418,608.524444777401,1.00000000023722,0.543718465807816
16500.0000000404,617.108967787317,1.00000000024056,0.544269097272931
16600.0000000389,625.585444199513,1.00000000023322,0.543517762394701
16700.0000000375,633.92251919774,1.00000000023868,0.543812952241642
16800.000000036,642.14148742956,1.00000000023441,0.542975318676829
16900.0000000346,650.230442251505,1.0000000002342,0.543089699813616
17000.0000000331,658.180481889568,1.00000000022297,0.542581965437901
17100.0000000317,666.009676547534,1.0000000002253,0.542782996903755
17200.0000000302,673.692255305684,1.00000000021229,0.542446697399545
17300.0000000287,681.2408867087,1.00000000021821,0.542362984738214
17400.0000000273,688.653445048093,1.00000000021049,0.541593663222618
17500.0000000258,695.915838944394,1.00000000021701,0.541553278822067
17600.0000000244,703.047016247482,1.00000000020731,0.541085067713316
17700.0000000229,710.026589570897,1.00000000021422,0.540823824456041
17800.0000000215,716.860436178266,1.00000000021442,0.540612863397463
17900.00000002,723.555124115625,1.0000000002145,0.540444805347153
18000.0000000186,730.092277907504,1.00000000021102,0.540230416686358
18100.0000000171,736.491043112947,1.00000000021046,0.539853664680464
18200.0000000156,742.734850065747,1.00000000021114,0.539132617057539
18300.0000000142,748.827802063872,1.0000000001999,0.539177050613637
18400.0000000127,754.77895007012,1.0000000002049,0.53850326457219
18500.0000000113,760.570921051849,1.0000000002019,0.538582143220494
18600.0000000098,766.218474254752,1.00000000020151,0.538196551499645
18700.0000000084,771.712468043145,1.00000000019277,0.538099709130409
18800.0000000069,777.052931160975,1.00000000019663,0.537908125001929
18900.0000000055,782.250432119444,1.00000000018803,0.537220320301775
19000.000000004,787.290020333355,1.00000000019355,0.53670683243577
19100.0000000026,792.182095606352,1.00000000018385,0.536335200987649
19200.0000000011,796.924924155563,1.00000000019103,0.536218697296921
19299.9999999996,801.514122890144,1.00000000018666,0.536197715022579
19399.9999999982,805.961739273112,1.00000000019068,0.536263086801376
19499.9999999967,810.255431435838,1.00000000018514,0.535886133759622
19599.9999999953,814.402505450101,1.00000000018683,0.535502452047833
19699.9999999938,818.405348544981,1.00000000017717,0.534419400597151
19799.9999999924,822.255982645954,1.0000000001821,0.533597573888473
19899.9999999909,825.966886063919,1.00000000017874,0.533390487291504
19999.9999999895,829.528409758708,1.00000000018219,0.533402382124746
20099.999999988,832.947009740377,1.00000000017429,0.534500092239297
20199.9999999865,836.228233970454,1.00000000018117,0.534844637432567
20299.9999999851,839.364683993601,1.00000000017172,0.535035245114461
20399.9999999836,842.367809863913,1.00000000016878,0.534152605302012
20499.9999999822,845.229913859056,1.00000000016928,0.532232522175385
20599.9999999807,847.952771056287,1.00000000017408,0.530704723264986
20699.9999999793,850.541229170359,1.00000000016827,0.529223910651223
20799.9999999778,852.986898898697,1.00000000017044,0.529628962229514
20899.9999999764,855.301206763491,1.00000000016458,0.531469424330923
20999.9999999749,857.482904224869,1.00000000016423,0.533811978496163
21099.9999999734,859.53657086189,1.00000000016761,0.53577116235583
21199.999999972,861.472547998694,1.00000000016457,0.535804592632527
21299.9999999705,863.283355165125,1.00000000016795,0.534196013030997
21399.9999999691,864.974596940545,1.00000000016135,0.530449279211444
21499.9999999676,866.540400241926,1.00000000015566,0.526294893718863
21599.9999999662,867.97541035523,1.00000000015114,0.523833336167253
21699.9999999647,869.285286883249,1.0000000001506,0.523801560557009
21799.9999999633,870.466066679088,1.00000000014959,0.527545756504438
21899.9999999618,871.529580436079,1.00000000015491,0.532571307872966
21999.9999999603,872.486718460974,1.00000000016338,0.537528246825744
22099.9999999589,873.342994502629,1.00000000016322,0.540024032820043
22199.9999999574,874.109731685472,1.00000000016703,0.538894432364788
22299.999999956,874.780849240229,1.0000000001584,0.534193236660247
22399.9999999545,875.351619274844,1.00000000015445,0.526755562451044
22499.9999999531,875.814451178034,1.00000000014395,0.518932586943955
22599.9999999516,876.156908346745,1.00000000013903,0.514799134176024
22699.9999999502,876.382523525655,1.00000000013201,0.51605917107266
22799.9999999487,876.493444298523,1.0000000001388,0.522711135784684
22899.9999999473,876.505072691793,1.00000000014657,0.531865462048384
22999.9999999458,876.437168140116,1.00000000016547,0.540119709684543
23099.9999999443,876.300626146672,1.00000000017378,0.545205941052982
23199.9999999429,876.108458954715,1.0000000001729,0.544913001852367
23299.9999999414,875.857056155563,1.00000000017717,0.538825937274174
23399.99999994,875.536752050239,1.00000000015179,0.528150288468522
23499.9999999385,875.134893437148,1.00000000014053,0.515038650126333
23599.9999999371,874.631194458861,1.00000000012388,0.50452884497409
23699.9999999356,874.020501361438,1.00000000011291,0.500912146640597
23799.9999999342,873.30328353253,1.00000000011843,0.506354724141935
23899.9999999327,872.49278089086,1.00000000012991,0.518888089371641
23999.9999999312,871.61390683975,1.00000000015006,0.532970606214234
24099.9999999298,870.685440074045,1.00000000016619,0.544628867050378
24199.9999999283,869.727979708277,1.00000000018457,0.550657376771558
24299.9999999269,868.749346120205,1.0000000001876,0.55002051796011
24399.9999999254,867.746296678259,1.00000000018058,0.542770206698978
24499.999999924,866.708627478536,1.00000000016612,0.528159321171647
24599.9999999225,865.612495528852,1.00000000013443,0.510234162314934
24699.9999999211,864.438954014282,1.00000000011258,0.492974443426913
24799.9999999196,863.173382192344,1.00000000010205,0.482710823967419
24899.9999999181,861.810522355122,1.00000000009919,0.485364511450912
24999.9999999167,860.366024271481,1.00000000011369,0.499823883243429
25099.9999999152,858.857647698206,1.0000000001425,0.519391686756606
25199.9999999138,857.312752323568,1.00000000016538,0.538125192246858
25299.9999999123,855.756050633823,1.00000000019336,0.550239112387669
25399.9999999109,854.200459140218,1.00000000020822,0.555819612953979
25499.9999999094,852.655558957418,1.0000000002045,0.554637418288603
25599.999999908,851.11377045806,1.00000000019614,0.544896987025193
25699.9999999065,849.560159652563,1.00000000016887,0.528340320462808
25799.9999999051,847.974599412335,1.00000000014257,0.50569548985138
25899.9999999036,846.3304094657,1.00000000011265,0.482003176700957
25999.9999999021,844.612410986609,1.00000000008588,0.465569334191801
26099.9999999007,842.812296394108,1.00000000008582,0.462617762726851
26199.9999998992,840.937012137607,1.00000000009293,0.475698789353995
26299.9999998978,839.007391405536,1.00000000012377,0.499949038941898
26399.9999998963,837.045551840018,1.0000000001551,0.524770917286815
26499.9999998949,835.077900761703,1.00000000018235,0.544069071683655
26599.9999998934,833.123804259468,1.00000000020622,0.555493824003333
26699.999999892,831.194284165798,1.00000000021671,0.559945813504689
26799.9999998905,829.294249656667,1.00000000022429,0.55775094357106
26899.999999889,827.415377918174,1.00000000020285,0.547998767428874
26999.9999998876,825.543712185266,1.00000000018295,0.530777949332779
27099.9999998861,823.65961355036,1.000000000156,0.505854019334732
27199.9999998847,821.738011387106,1.00000000011257,0.477334613904161
27299.9999998832,819.763277333759,1.00000000008961,0.453360088602407
27399.9999998818,817.722162816402,1.00000000007385,0.441687616267638
27499.9999998803,815.617528489595,1.00000000007862,0.448042451931296
27599.9999998789,813.463160432466,1.00000000010297,0.471322307874088
27699.9999998774,811.277062205704,1.00000000013407,0.500835057198034
27799.9999998759,809.083142842294,1.00000000017315,0.527479383470804
27899.9999998745,806.900549196512,1.00000000019835,0.546414862420508
27999.999999873,804.743623793683,1.00000000021912,0.556137275841094
28099.9999998716,802.622838544826,1.00000000024084,0.560829874778128
28199.9999998701,800.538269653302,1.00000000022317,0.557651664394376
28299.9999998687,798.486105985403,1.00000000021928,0.551892388699015
28399.9999998672,796.455573262208,1.00000000019633,0.536349680720785
28499.9999998658,794.42862947582,1.00000000016977,0.513654920383374
28599.9999998643,792.389470004549,1.00000000013803,0.484515339128386
28699.9999998629,790.317173417569,1.00000000010325,0.453499932665874
