Time,AGPnorm,Energy,Entropy
0,0,1,-7.87585287580794e-17
99.9999999999986,0.00061610147195701,1.00000000000076,0.00222290315930197
199.999999999993,0.00411197764247921,1.00000000000084,0.00663870332777344
300,0.00850717088600326,1.00000000000019,0.0123507224483619
400.000000000022,0.0131603772863645,0.999999999999975,0.0194118670933245
500.000000000045,0.0185698190934079,1.00000000000022,0.0280113962783994
600.000000000068,0.0260719916931389,1.00000000000082,0.0379275984500358
700.000000000091,0.0338617367674492,1.00000000000052,0.0487947473311301
800.000000000113,0.0423068235928303,1.00000000000023,0.0605862618186228
900.000000000136,0.0515716080909808,1.00000000000005,0.0736887971184662
1000.00000000016,0.0612929720771821,1.00000000000039,0.0880990172786097
1100.0000000001,0.0718425779083875,1.00000000000085,0.104064662894127
1200,0.0818794988150359,1.00000000000048,0.121432671857715
1299.99999999991,0.092849736761316,1.00000000000076,0.140933315565295
1399.99999999982,0.103004956497584,1.00000000000172,0.163117805432235
1499.99999999973,0.114052004689594,1.00000000000702,0.188798040831634
1599.99999999964,0.125701144400095,1.00000000002214,0.218372341852238
1699.99999999955,0.140866982511724,1.00000000005799,0.251121652768203
1799.99999999946,0.157882238314722,1.00000000010946,0.285820008202339
1899.99999999937,0.189714764741901,1.00000000019295,0.319933329817149
1999.99999999928,0.275977046317229,1.00000000028641,0.352061695112909
2099.99999999919,0.455665793726287,1.00000000038207,0.380956288441809
2199.99999999909,0.762200024934835,1.0000000004772,0.407015243067108
2299.999999999,1.2548294611363,1.00000000056524,0.430063786047432
2399.99999999891,2.01860221399082,1.00000000062769,0.45044705726818
2499.99999999882,3.12050720020522,1.00000000069144,0.468255236211383
2599.99999999873,4.59126046842245,1.00000000076098,0.483856924816075
2699.99999999864,6.46758434144359,1.00000000079726,0.497432328558708
2799.99999999855,8.78380483154295,1.00000000082296,0.508931784728448
2899.99999999846,11.5550959313224,1.00000000086908,0.518736293141887
2999.99999999837,14.7699280621067,1.00000000085668,0.527268964967435
3099.99999999828,18.4089010079501,1.00000000084859,0.534293023617039
3199.99999999819,22.4457426297113,1.00000000087456,0.540196380308517
3299.99999999809,26.8357427664131,1.0000000009192,0.544934119693884
3399.999999998,31.5339541485675,1.0000000009143,0.548613374062234
3499.99999999791,36.4967518820772,1.00000000089709,0.551660046422407
3599.99999999782,41.6741537474752,1.00000000090452,0.554218247494623
3699.99999999773,46.9988753642356,1.00000000090593,0.55595662161619
3799.99999999764,52.4135983027598,1.00000000086563,0.556597059662994
3899.99999999755,57.8792733764375,1.00000000084694,0.557335508811383
3999.99999999746,63.3493940292823,1.00000000081428,0.558127250742296
4099.99999999738,68.7728328489433,1.00000000083166,0.556732294280077
4199.99999999775,74.0966930040097,1.00000000083272,0.556580571687748
4299.99999999811,79.2857409215908,1.00000000077664,0.556441786537663
4399.99999999848,84.3198354871514,1.00000000078657,0.554323551846597
4499.99999999884,89.1703587988271,1.00000000075389,0.55353100488231
4599.9999999992,93.7999517040667,1.0000000007499,0.551783458227074
4699.99999999957,98.184732882266,1.00000000071013,0.550693195288889
4799.99999999993,102.31640311385,1.00000000073966,0.549258554776181
4900.00000000029,106.189213858533,1.00000000066661,0.547294412980101
5000.00000000066,109.78658053718,1.00000000067214,0.545397960419085
5100.00000000102,113.099404648119,1.00000000063633,0.544952280126568
5200.00000000139,116.12286405999,1.00000000063521,0.542035983805963
5300.00000000175,118.867285008615,1.00000000059184,0.539950964571982
5400.00000000211,121.333342964302,1.00000000062047,0.541338717695716
5500.00000000248,123.522432207632,1.00000000058291,0.538836585534188
5600.00000000284,125.427725099618,1.00000000058025,0.533133836188767
5700.00000000321,127.060676873029,1.00000000054842,0.537145842761601
5800.00000000357,128.447400365607,1.00000000055358,0.541466444902947
5900.00000000393,129.592934544952,1.00000000051991,0.530050655708983
6000.0000000043,130.478554385291,1.00000000049113,0.521540396740395
6100.00000000466,131.125736764455,1.00000000051789,0.538085573363919
6200.00000000502,131.592925355665,1.00000000055628,0.546834635902793
6300.00000000539,131.88274341795,1.00000000048308,0.524457959455358
6400.00000000575,131.946249068803,1.00000000040407,0.505182823495498
6500.00000000612,131.806138016869,1.00000000050479,0.531772387137881
6600.00000000648,131.557158934117,1.0000000005941,0.556458120382409
6700.00000000684,131.231502897863,1.00000000054574,0.537508343340882
6800.00000000721,130.759147897946,1.00000000036449,0.49089261049978
6900.00000000757,130.098390449681,1.00000000036542,0.492771110257027
7000.00000000793,129.330747982013,1.00000000055289,0.545000226912643
7100.0000000083,128.559464802539,1.00000000067479,0.566329494087976
7200.00000000866,127.785330981977,1.00000000056668,0.534744320196635
7300.00000000903,126.917912702098,1.00000000032501,0.467964023998584
7400.00000000939,125.904225958796,1.00000000029044,0.458394466730899
7500.00000000975,124.810555100754,1.00000000052339,0.525018126715125
7600.00000001012,123.740491737326,1.00000000069202,0.566328189092763
7700.00000001048,122.729720094018,1.00000000069685,0.560590900093041
7800.00000001084,121.724747663005,1.00000000049112,0.500123470463504
7900.00000001121,120.641166947796,1.00000000026258,0.423124413644145
8000.00000001157,119.459028878033,1.00000000030034,0.432730114957413
8100.00000001194,118.242505679644,1.0000000005393,0.510432243302591
8200.0000000123,117.064648873661,1.00000000073683,0.558280173022706
8300.00000001266,115.954989266626,1.00000000073777,0.563629859003412
8400.00000001303,114.89080805724,1.00000000063765,0.524840148983984
8500.00000001339,113.813897273849,1.00000000037926,0.442896388777057
8600.00000001376,112.681727902509,1.00000000024934,0.385484078923943
8700.00000001412,111.505210801783,1.00000000031201,0.41533797647685
8800.00000001448,110.324785394265,1.00000000055716,0.492986501389505
8900.00000001485,109.177209039478,1.00000000073252,0.542879885912372
9000.00000001521,108.083012970215,1.00000000075106,0.553375138832487
9100.00000001557,107.037775226702,1.00000000069383,0.538436233970629
9200.00000001594,106.014929988562,1.00000000051659,0.490499739967218
9300.0000000163,104.983716480468,1.00000000035703,0.419325329662341
9400.00000001667,103.932786119825,1.00000000026778,0.379328438704768
9500.00000001703,102.872868057303,1.00000000033302,0.402501661314494
9600.00000001739,101.820692580405,1.00000000049578,0.4612434470621
9700.00000001776,100.787493398873,1.00000000064711,0.512409123644663
9800.00000001812,99.7810283101115,1.00000000072104,0.532947867531547
9900.00000001848,98.8065108476813,1.00000000068116,0.538931157043089
10000.0000000188,97.8608595386766,1.00000000064428,0.529089401876624
10100.0000000192,96.932667605501,1.00000000050735,0.492428109031094
10200.0000000196,96.0119701309896,1.0000000003964,0.442793882752033
10300.0000000199,95.0985427729607,1.00000000034946,0.406973715628307
10400.0000000203,94.1992393974286,1.00000000036116,0.401444957353803
10500.0000000207,93.3188820526584,1.00000000040592,0.430852807569552
10600.000000021,92.4566115583189,1.00000000047942,0.463763848698835
10700.0000000214,91.6094206226042,1.00000000053989,0.49761950357033
10800.0000000218,90.7753388901404,1.00000000057561,0.50995082267294
10900.0000000221,89.9539206329391,1.00000000063523,0.516414967873218
11000.0000000225,89.1447593810833,1.00000000068509,0.528886583489251
11100.0000000229,88.3488246455785,1.00000000063985,0.534957585489396
11200.0000000232,87.5673301968796,1.00000000052186,0.506125714328274
11300.0000000236,86.8026009444165,1.00000000036754,0.457233757490537
11400.0000000239,86.0605246980003,1.00000000033379,0.421070238015743
11500.0000000243,85.3458268751267,1.00000000040499,0.415154952877535
11600.0000000247,84.6582447451539,1.00000000045573,0.425617110355906
11700.000000025,83.9926046226039,1.00000000049105,0.454431080004
11800.0000000254,83.342262419077,1.00000000053327,0.47587517464533
11900.0000000258,82.7040644675791,1.00000000051595,0.487353696559021
12000.0000000261,82.078195744806,1.00000000049038,0.494174794674306
12100.0000000265,81.4652561443916,1.00000000046474,0.493107260912823
12200.0000000269,80.8609226127434,1.00000000055998,0.497242697231519
12300.0000000272,80.256164882994,1.00000000066098,0.515805459638836
12400.0000000276,79.6468892868914,1.00000000074626,0.533296771822847
12500.0000000279,79.0374803280001,1.00000000064655,0.536334825342399
12600.0000000283,78.4364964707138,1.00000000051484,0.511403572309315
12700.0000000287,77.8549811999094,1.00000000040373,0.467352600709697
12800.000000029,77.3048174103281,1.00000000031503,0.431579409580196
12900.0000000294,76.7920669944113,1.0000000003436,0.416507137167555
13000.0000000298,76.3117988796476,1.00000000042128,0.424118818579532
13100.0000000301,75.8528440091818,1.00000000053865,0.441961276134883
13200.0000000305,75.4049772229815,1.00000000056326,0.464176260184886
13300.0000000309,74.9621338309965,1.00000000055944,0.48489007857852
13400.0000000312,74.5234947408187,1.00000000055374,0.494303336772467
13500.0000000316,74.0912969609685,1.00000000050902,0.49644359038056
13600.0000000319,73.6688531798273,1.0000000004722,0.496124350283961
13700.0000000323,73.2580619724013,1.00000000045773,0.4980492086704
13800.0000000327,72.8558065825999,1.00000000049287,0.500266397606689
13900.000000033,72.4542652776098,1.00000000057073,0.502704201557684
14000.0000000334,72.0456002298585,1.0000000006396,0.510721049439261
14100.0000000338,71.625123455385,1.00000000065176,0.521456553910674
14200.0000000341,71.1944888646214,1.0000000006389,0.532053770288402
14300.0000000345,70.7607321242126,1.00000000055792,0.532186373822059
14400.0000000349,70.3346249891144,1.00000000048717,0.515520269657711
14500.0000000352,69.9282663412935,1.0000000004267,0.485095355170804
14600.0000000356,69.5519662967476,1.00000000038903,0.453313332100771
14700.0000000359,69.2118110464075,1.00000000036473,0.438878438784684
14800.0000000363,68.9073178934218,1.00000000038141,0.439016870934221
14900.0000000367,68.6320272060888,1.00000000041912,0.438355468188809
15000.000000037,68.3745647124723,1.00000000050238,0.454128872931587
15100.0000000374,68.1243555636615,1.00000000054566,0.47579931582018
15200.0000000378,67.8775724552673,1.00000000054297,0.483882914428005
15300.0000000381,67.6367714572319,1.00000000048323,0.48600813592594
15400.0000000385,67.404374930203,1.00000000048655,0.49054520564137
15500.0000000389,67.1755590106107,1.00000000053431,0.501969444460337
15600.0000000392,66.9437425768748,1.00000000057506,0.518833157009368
15700.0000000396,66.7030425327445,1.0000000005848,0.528685336838176
15800.0000000399,66.4540172925598,1.0000000005448,0.534271597005678
15900.0000000403,66.201818305459,1.00000000049757,0.53782673264956
16000.0000000407,65.9503744209585,1.00000000046707,0.529323496739859
16100.000000041,65.7017350193385,1.00000000047566,0.520078685484954
16200.0000000414,65.4558657917957,1.00000000048335,0.508131767782461
16300.0000000418,65.2082010748522,1.00000000054029,0.501798875537548
16400.0000000418,64.9541464991561,1.00000000059093,0.513493953769858
16500.0000000404,64.6880175319484,1.00000000065997,0.530106164630775
16600.0000000389,64.4095787210084,1.00000000065864,0.543686601634396
16700.0000000375,64.125186074849,1.00000000059676,0.544790046004505
16800.000000036,63.8460859275199,1.00000000050565,0.528707829912668
16900.0000000346,63.585407494202,1.00000000041183,0.502752347242589
17000.0000000331,63.3544401037317,1.00000000037425,0.479246322297111
17100.0000000317,63.1592873031552,1.00000000036128,0.459134488832733
17200.0000000302,62.9986733774341,1.0000000004003,0.4529730421466
17300.0000000287,62.8669158461542,1.00000000045137,0.454868677989472
17400.0000000273,62.7538997699,1.00000000047679,0.462401059011475
17500.0000000258,62.6507451116326,1.00000000051219,0.468051788789807
17600.0000000244,62.5521380793181,1.00000000052491,0.472696752026769
17700.0000000229,62.4547991067289,1.00000000055865,0.483595364553662
17800.0000000215,62.3574849608758,1.00000000053582,0.496658269808923
17900.00000002,62.2611994094624,1.00000000050452,0.506329730259591
18000.0000000186,62.1709453044425,1.00000000046591,0.509482015535433
18100.0000000171,62.0923293744334,1.00000000043977,0.51066408165212
18200.0000000156,62.0255857388796,1.00000000044394,0.512856778867928
18300.0000000142,61.9627815315793,1.0000000004915,0.520143307167676
18400.0000000127,61.8941412576254,1.00000000056743,0.529077916895549
18500.0000000113,61.809170985801,1.00000000057729,0.534735187060051
18600.0000000098,61.7024288478481,1.00000000061399,0.54107763365322
18700.0000000084,61.5734096649613,1.00000000058934,0.541127598077825
18800.0000000069,61.4268936318388,1.00000000056248,0.541342428879263
18900.0000000055,61.2698931644757,1.00000000051284,0.549453584393539
19000.000000004,61.1101311813844,1.00000000048781,0.554076370961074
19100.0000000026,60.9531233437957,1.00000000047034,0.545980663636796
19200.0000000011,60.8014141086003,1.00000000043408,0.537254777247329
19299.9999999996,60.6555099748335,1.00000000045345,0.537236066255072
19399.9999999982,60.5117136491439,1.00000000048127,0.535339920838781
19499.9999999967,60.3658285841737,1.00000000053735,0.528880692835141
19599.9999999953,60.2149781701285,1.00000000053897,0.527815329342989
19699.9999999938,60.056670001146,1.00000000057809,0.53242882679151
19799.9999999924,59.889785659761,1.00000000064717,0.543181081858395
19899.9999999909,59.7128312420412,1.00000000065681,0.552705808960313
19999.9999999895,59.5288712921714,1.00000000059853,0.556358103368761
20099.999999988,59.3450474609942,1.00000000049859,0.550600073908802
20199.9999999865,59.1713002143764,1.000000000465,0.536741714651628
20299.9999999851,59.0176453804796,1.00000000042054,0.518771089965987
20399.9999999836,58.8908555430572,1.00000000038618,0.498381252073372
20499.9999999822,58.7942393171702,1.00000000038122,0.484640625943841
20599.9999999807,58.7276519996462,1.00000000040163,0.473528465246735
20699.9999999793,58.6871123680093,1.00000000042344,0.474675779132475
20799.9999999778,58.6666977729979,1.00000000046505,0.480129442936337
20899.9999999764,58.6618405875499,1.00000000050417,0.480802762207214
20999.9999999749,58.6667154662401,1.00000000051842,0.476759219050476
21099.9999999734,58.6736178431459,1.00000000054308,0.47958309650881
21199.999999972,58.6796067366939,1.00000000052053,0.484410234050008
21299.9999999705,58.6884460722592,1.00000000048291,0.481671501660922
21399.9999999691,58.7054577591454,1.00000000045963,0.480685375928056
21499.9999999676,58.7327478451862,1.00000000045707,0.490176379966126
21599.9999999662,58.7653465162093,1.00000000048975,0.509183514004034
21699.9999999647,58.7951967561384,1.00000000053259,0.524431303062221
21799.9999999633,58.8154251314042,1.000000000581,0.534100092289663
21899.9999999618,58.8229095592026,1.00000000057235,0.543813842708465
21999.9999999603,58.8189307467023,1.0000000005431,0.550383709201397
22099.9999999589,58.8093156460266,1.0000000005331,0.552428642219735
22199.9999999574,58.7980984599609,1.00000000048654,0.548501202702537
22299.999999956,58.7863791735938,1.00000000049694,0.548431265698441
22399.9999999545,58.774487031354,1.00000000049438,0.553482106892531
22499.9999999531,58.7618242597838,1.00000000048651,0.561775986460956
22599.9999999516,58.747346885333,1.0000000004939,0.56346609768818
22699.9999999502,58.7269444891615,1.00000000051705,0.563306623898832
22799.9999999487,58.6974173175193,1.0000000005575,0.561489674412463
22899.9999999473,58.6557703129388,1.00000000054328,0.560164916076927
22999.9999999458,58.6010251604841,1.00000000054477,0.558408268620902
23099.9999999443,58.5329674633701,1.00000000054285,0.547083953835815
23199.9999999429,58.4534652915523,1.00000000054346,0.536673721818522
23299.9999999414,58.3647434512139,1.00000000054646,0.540809503737794
23399.99999994,58.2683888189323,1.00000000054612,0.553184745612694
23499.9999999385,58.1640533655572,1.00000000053567,0.562393200472068
23599.9999999371,58.0531564243163,1.00000000055204,0.568494202713878
23699.9999999356,57.9390299056301,1.00000000049992,0.565508274092071
23799.9999999342,57.8259751245034,1.0000000004616,0.560560810879987
23899.9999999327,57.7171004704555,1.00000000043531,0.557958350922612
23999.9999999312,57.6130446245669,1.00000000045951,0.563067606409476
24099.9999999298,57.5120161210486,1.00000000047058,0.564494518926499
24199.9999999283,57.4117153695257,1.00000000047633,0.56070569347453
24299.9999999269,57.3104831708344,1.00000000051355,0.561005448105765
24399.9999999254,57.2073323556004,1.0000000005358,0.561054533218514
24499.999999924,57.1013283994584,1.00000000055012,0.558901146746301
24599.9999999225,56.9911759808053,1.00000000056496,0.55528023432676
24699.9999999211,56.8757811950216,1.00000000061722,0.55108481957427
24799.9999999196,56.7548577043948,1.00000000062574,0.55212174353226
24899.9999999181,56.627933956188,1.00000000065761,0.553495532535093
24999.9999999167,56.4961193899863,1.00000000058973,0.552537790551953
25099.9999999152,56.3636164394394,1.00000000054857,0.552933031602119
25199.9999999138,56.2369654202097,1.00000000048578,0.549938985638006
25299.9999999123,56.1228801405566,1.00000000045065,0.541018879895511
25399.9999999109,56.0271775673641,1.00000000041318,0.526150403519869
25499.9999999094,55.9536983542777,1.00000000038027,0.516537430208702
25599.999999908,55.9052654127034,1.00000000039897,0.51041133647998
25699.9999999065,55.8825961038229,1.00000000039516,0.500830416951527
25799.9999999051,55.8834613705482,1.00000000043948,0.495062787493575
25899.9999999036,55.9035383740812,1.00000000046088,0.492341193245725
25999.9999999021,55.9400097649842,1.000000000468,0.490742086760558
26099.9999999007,55.9904346029074,1.0000000004639,0.490997108486764
26199.9999998992,56.0485635078791,1.00000000051082,0.492992600021741
26299.9999998978,56.1096082209959,1.00000000053586,0.498984507111061
26399.9999998963,56.1730494650412,1.00000000050849,0.502452687014984
26499.9999998949,56.2408108952646,1.00000000050319,0.498065366816317
26599.9999998934,56.3153638321774,1.00000000046484,0.491323805250201
26699.999999892,56.3959655709995,1.00000000047014,0.494276598868566
26799.9999998905,56.479043385995,1.00000000048564,0.50273701453366
26899.999999889,56.5613780685308,1.00000000051223,0.513452653090232
26999.9999998876,56.6419162257651,1.00000000050802,0.523698416724877
27099.9999998861,56.7203856784767,1.00000000052454,0.53445003300883
27199.9999998847,56.7954349487494,1.00000000051047,0.542649650505544
27299.9999998832,56.8656157108616,1.00000000055033,0.549285379594514
27399.9999998818,56.9307823605123,1.0000000005479,0.555632203395122
27499.9999998803,56.9900289964885,1.00000000052222,0.561288729472273
27599.9999998789,57.0429830209597,1.00000000053935,0.567607563899076
27699.9999998774,57.0895738267273,1.00000000052208,0.573132756912405
27799.9999998759,57.1296466822633,1.00000000052073,0.574749711560187
27899.9999998745,57.16260371856,1.00000000053018,0.571593490724842
27999.999999873,57.1882613670253,1.00000000051681,0.569184652491196
28099.9999998716,57.206706567889,1.00000000053746,0.570526454988991
28199.9999998701,57.217916606067,1.00000000054678,0.571910027764151
28299.9999998687,57.2224217602111,1.00000000054584,0.570607272162699
28399.9999998672,57.2217902415622,1.00000000051872,0.577419428565489
28499.9999998658,57.2185608509818,1.00000000048409,0.580950153534977
28599.9999998643,57.2154966899372,1.00000000049613,0.575205086919852
28699.9999998629,57.2134679777922,1.00000000050754,0.571388924305902
28799.9999998614,57.2105313654112,1.00000000051278,0.571971392997326
28899.9999998599,57.2045185967145,1.00000000053852,0.572053902952946
28999.9999998585,57.1941417448916,1.00000000052481,0.573679058977344
