Time,AGPnorm,Energy,Entropy
0,0,1,-1.30339415873969e-17
99.9999999999986,4.28007089263538e-05,1.00000000000062,0.00177523964032575
199.999999999993,0.00369831286358351,1.00000000000387,0.00270403814850886
300,0.00963043260257412,0.9999999999984,0.00477931793593342
400.000000000022,0.0133482231038238,1.00000000000355,0.00814588396251585
500.000000000045,0.0158628694772133,1.00000000000096,0.0106855920023534
600.000000000068,0.0227003699421992,0.999999999999806,0.0150283177575278
700.000000000091,0.0279038518319254,1.00000000000418,0.0189922715050763
800.000000000113,0.0357259398933711,0.999999999998829,0.0233276310285423
900.000000000136,0.0439733705356021,1.00000000000262,0.0288164224761276
1000.00000000016,0.0509365164090189,1.00000000000183,0.0335103174720386
1100.0000000001,0.0614925900046817,0.999999999999366,0.0394914209681047
1200,0.071638639791861,1.00000000000409,0.0455194195247782
1299.99999999991,0.0815053869456087,0.999999999999438,0.0515759062756111
1399.99999999982,0.091995895757989,1.00000000000171,0.0588077884013006
1499.99999999973,0.102635451659508,1.0000000000026,0.065462207845811
1599.99999999964,0.115616372359068,0.99999999999926,0.073172879520084
1699.99999999955,0.128330505591031,1.00000000000356,0.0813574497057848
1799.99999999946,0.13980338091144,1.00000000000008,0.0893704443007828
1899.99999999937,0.15203937461006,1.00000000000106,0.098766571587718
1999.99999999928,0.164951118992952,1.00000000000319,0.108015835316998
2099.99999999919,0.178396533588614,0.999999999999428,0.118322660321903
2199.99999999909,0.191389480980625,1.00000000000288,0.129744930138532
2299.999999999,0.203770938388896,1.00000000000095,0.141302205006006
2399.99999999891,0.216995903456772,1.00000000000169,0.155036147266902
2499.99999999882,0.230332007946552,1.00000000000727,0.169902598408665
2599.99999999873,0.243550449810767,1.00000000001219,0.186406199038183
2699.99999999864,0.255587501595715,1.00000000003257,0.205328249864512
2799.99999999855,0.266540018229498,1.0000000000625,0.224419805778629
2899.99999999846,0.286331248202286,1.00000000010497,0.245184609635879
2999.99999999837,0.297093372501094,1.00000000017039,0.265713010257248
3099.99999999828,0.325667484609961,1.0000000002453,0.285284898629135
3199.99999999819,0.367339922700041,1.00000000031468,0.305496061415564
3299.99999999809,0.415011075880303,1.00000000039137,0.324138162681784
3399.999999998,0.528314329115619,1.00000000047119,0.342828050588534
3499.99999999791,0.657274357111488,1.00000000057829,0.360926053004887
3599.99999999782,0.867751042209889,1.00000000063816,0.377460170135367
3699.99999999773,1.17578390953822,1.00000000071735,0.394201974675698
3799.99999999764,1.54650559039766,1.0000000008035,0.409603682388425
3899.99999999755,2.08958088254732,1.00000000085034,0.424101487620677
3999.99999999746,2.74056387841298,1.00000000093171,0.438341581208863
4099.99999999738,3.55477627928742,1.00000000100038,0.450867784141178
4199.99999999775,4.57733120442027,1.0000000010144,0.463607493579997
4299.99999999811,5.73855635374081,1.00000000105976,0.47521741759964
4399.99999999848,7.15090674768116,1.00000000112435,0.485497582837671
4499.99999999884,8.75510724438744,1.00000000117225,0.495821614871082
4599.9999999992,10.5640875683778,1.0000000011765,0.504941617239402
4699.99999999957,12.6364869157935,1.0000000012366,0.513455175082031
4799.99999999993,14.8848689641225,1.0000000012352,0.521743092785514
4900.00000000029,17.3890560201288,1.0000000012138,0.528883688608403
5000.00000000066,20.104960486666,1.00000000126132,0.535968172236978
5100.00000000102,23.0094407604939,1.00000000125193,0.542247800453578
5200.00000000139,26.15605865671,1.00000000130751,0.547745636209785
5300.00000000175,29.4586227540039,1.0000000012886,0.553248574244812
5400.00000000211,32.9616504722866,1.00000000130414,0.557958848575311
5500.00000000248,36.6350187736921,1.00000000128129,0.562620238269122
5600.00000000284,40.4385088577443,1.00000000130397,0.566805177564914
5700.00000000321,44.4130912743127,1.00000000129039,0.570393573387073
5800.00000000357,48.4842553526102,1.00000000126639,0.573928907932102
5900.00000000393,52.6728601737697,1.00000000128491,0.576762236251469
6000.0000000043,56.9581833323273,1.00000000125789,0.579643396082171
6100.00000000466,61.2973158226628,1.00000000130622,0.581945351514117
6200.00000000502,65.7201435716156,1.00000000123133,0.584173344927508
6300.00000000539,70.1662059549817,1.00000000122404,0.586462496351196
6400.00000000575,74.6452737526902,1.00000000123223,0.587884052128472
6500.00000000612,79.1431074319205,1.00000000118422,0.589670966358542
6600.00000000648,83.6201789022234,1.0000000011689,0.591092300124182
6700.00000000684,88.1004259299056,1.00000000116111,0.592091515139293
6800.00000000721,92.5370892507079,1.00000000116411,0.59296659719575
6900.00000000757,96.9344006933947,1.00000000116006,0.593701182202874
7000.00000000793,101.284652417155,1.00000000115955,0.594449160295547
7100.0000000083,105.554176371198,1.00000000111057,0.594967607216594
7200.00000000866,109.763904862092,1.00000000112535,0.595101504493518
7300.00000000903,113.879160897809,1.00000000110882,0.595969059099692
7400.00000000939,117.901201140998,1.00000000108767,0.595845476384099
7500.00000000975,121.828899827544,1.00000000104821,0.596098118543771
7600.00000001012,125.635985493894,1.00000000103374,0.595938169078063
7700.00000001048,129.340518703851,1.00000000098496,0.596339495199891
7800.00000001084,132.916403215613,1.00000000100677,0.595991595287948
7900.00000001121,136.367317884585,1.00000000099843,0.595730025789503
8000.00000001157,139.695391959175,1.00000000096663,0.595602418028311
8100.00000001194,142.882298555072,1.00000000097964,0.595670777553444
8200.0000000123,145.940773150912,1.00000000093465,0.594699712547508
8300.00000001266,148.858712187649,1.00000000093619,0.594866800164866
8400.00000001303,151.633585144144,1.00000000093947,0.59416864995871
8500.00000001339,154.276190559918,1.00000000091665,0.593914494522649
8600.00000001376,156.767621344523,1.00000000089988,0.593317100788794
8700.00000001412,159.125005147276,1.00000000089973,0.592965894963529
8800.00000001448,161.335291410397,1.00000000086563,0.592191825733946
8900.00000001485,163.404407294954,1.00000000086574,0.592696282943505
9000.00000001521,165.337820385676,1.00000000083079,0.590709024012875
9100.00000001557,167.126355379767,1.00000000085805,0.592213574155516
9200.00000001594,168.782128984514,1.00000000083065,0.589457291657342
9300.0000000163,170.298676193606,1.00000000081588,0.590934378607643
9400.00000001667,171.681993833327,1.00000000077506,0.589992563825267
9500.00000001703,172.937820713236,1.00000000078643,0.588602931927498
9600.00000001739,174.060464021674,1.00000000079961,0.589746130604272
9700.00000001776,175.06132965069,1.00000000076549,0.588323544097984
9800.00000001812,175.937677535926,1.00000000078694,0.588327501900458
9900.00000001848,176.693819170958,1.00000000075312,0.589676503974494
10000.0000000188,177.339944260293,1.00000000074598,0.587718209361464
10100.0000000192,177.868593733661,1.00000000074995,0.587650439312134
10200.0000000196,178.294040438866,1.0000000007553,0.590062012327875
10300.0000000199,178.616960540608,1.00000000071388,0.585080806333943
10400.0000000203,178.834715023262,1.00000000072318,0.586303569653299
10500.0000000207,178.965144349213,1.00000000072148,0.589701833003057
10600.000000021,179.00390033461,1.00000000067664,0.582619151179438
10700.0000000214,178.952717571981,1.00000000069525,0.584097495633007
10800.0000000218,178.825727503164,1.0000000007349,0.588745689658613
10900.0000000221,178.625328344696,1.00000000068676,0.580867230290566
11000.0000000225,178.348903236312,1.00000000067176,0.578661624891102
11100.0000000229,178.006126490963,1.00000000073967,0.586961086203992
11200.0000000232,177.611814781392,1.00000000072039,0.580968703547931
11300.0000000236,177.15577322565,1.00000000063999,0.572411387556907
11400.0000000239,176.640821543341,1.00000000069914,0.579910670540553
11500.0000000243,176.086751536798,1.00000000074974,0.582933062787224
11600.0000000247,175.490051029887,1.00000000069607,0.574097633548809
11700.000000025,174.844242484984,1.00000000064791,0.566729530021441
11800.0000000254,174.156498946912,1.00000000072937,0.580998234005564
11900.0000000258,173.444666901703,1.00000000076395,0.57912577403801
12000.0000000261,172.706383281128,1.00000000066674,0.567615650017633
12100.0000000265,171.926814624264,1.00000000063347,0.559205103606202
12200.0000000269,171.119780586326,1.00000000076095,0.580467785865474
12300.0000000272,170.303359802968,1.00000000079377,0.577181764037032
12400.0000000276,169.468966549018,1.00000000069366,0.562521359779806
12500.0000000279,168.604282761504,1.00000000060485,0.551610742967721
12600.0000000283,167.716452311796,1.0000000007737,0.574731825051866
12700.0000000287,166.828833693894,1.00000000082644,0.579232844915216
12800.000000029,165.935855931993,1.0000000007219,0.558940374472978
12900.0000000294,165.023667553099,1.00000000063079,0.549234126431081
13000.0000000298,164.091118033881,1.00000000069713,0.555668192911363
13100.0000000301,163.156918591638,1.00000000087019,0.582660292174376
13200.0000000305,162.229167133911,1.00000000079738,0.563164944505514
13300.0000000309,161.296407108789,1.00000000065278,0.546318427078333
13400.0000000312,160.348682048527,1.00000000067366,0.545010265946206
13500.0000000316,159.393508786395,1.00000000075811,0.559890803362402
13600.0000000319,158.444223000192,1.00000000087857,0.577703163253849
13700.0000000323,157.504433155067,1.00000000081735,0.554792484165173
13800.0000000327,156.562666246319,1.00000000062099,0.538337794272644
13900.000000033,155.612474703634,1.00000000069977,0.544906380498385
14000.0000000334,154.660921000759,1.00000000077411,0.553983967612509
14100.0000000338,153.715462143288,1.00000000084637,0.57156462438653
14200.0000000341,152.781217795428,1.00000000082683,0.557164744880956
14300.0000000345,151.850851658763,1.0000000006822,0.532536199775254
14400.0000000349,150.917740820419,1.00000000066888,0.541511250529588
14500.0000000352,149.985699823184,1.00000000075161,0.548828788589103
14600.0000000356,149.057708714122,1.00000000080012,0.555653753723171
14700.0000000359,148.139852542402,1.00000000083611,0.56334680980799
14800.0000000363,147.230963378417,1.00000000078711,0.541342973467297
14900.0000000367,146.326031578015,1.00000000069914,0.528326574936503
15000.000000037,145.423742209946,1.00000000070119,0.544076733836781
15100.0000000374,144.525197724659,1.00000000076091,0.54756683514636
15200.0000000378,143.633622681277,1.0000000007601,0.547965231189159
15300.0000000381,142.75084818417,1.00000000080628,0.552524127573972
15400.0000000385,141.875943791664,1.00000000076443,0.541907948200569
15500.0000000389,141.008182047947,1.0000000007011,0.52794361597684
15600.0000000392,140.14569258452,1.00000000069258,0.539833507426113
15700.0000000396,139.289822711361,1.00000000074113,0.547975443376951
15800.0000000399,138.440495745399,1.00000000075952,0.543852701403764
15900.0000000403,137.598427787305,1.00000000078562,0.540999967168668
16000.0000000407,136.764805817188,1.00000000074909,0.542572062728545
16100.000000041,135.938878723924,1.00000000078064,0.537778454034651
16200.0000000414,135.120771856173,1.00000000075005,0.532505631156061
16300.0000000418,134.310525822472,1.00000000073449,0.539945998266714
16400.0000000418,133.50755197496,1.00000000071805,0.547415226288769
16500.0000000404,132.712397578733,1.00000000075981,0.543141509365189
16600.0000000389,131.924497639115,1.00000000071637,0.533348130346203
16700.0000000375,131.144360660532,1.00000000075082,0.535562947729675
16800.000000036,130.372489231663,1.00000000076211,0.543421879498626
16900.0000000346,129.608530532633,1.00000000076758,0.539521798252541
17000.0000000331,128.853286337697,1.0000000007398,0.536453390165294
17100.0000000317,128.106262101614,1.00000000073064,0.544930859766353
17200.0000000302,127.367795966209,1.0000000007152,0.546206983849504
17300.0000000287,126.637289697885,1.00000000071827,0.535661242535757
17400.0000000273,125.914617967628,1.00000000069568,0.530191153622541
17500.0000000258,125.200410765908,1.00000000072431,0.534559916104499
17600.0000000244,124.494302755376,1.00000000073674,0.543111080210233
17700.0000000229,123.796271543615,1.00000000073719,0.546762825326884
17800.0000000215,123.106538324767,1.00000000076185,0.541381437150717
17900.00000002,122.425072483489,1.00000000075069,0.543605638587055
18000.0000000186,121.752633048013,1.00000000073984,0.547105970435693
18100.0000000171,121.089090349751,1.00000000065235,0.536180755216826
18200.0000000156,120.43472591631,1.00000000068835,0.529009732734492
18300.0000000142,119.788867726207,1.00000000075102,0.531703807756729
18400.0000000127,119.150935404263,1.00000000073323,0.535286301889209
18500.0000000113,118.521372021047,1.00000000073676,0.5429660420191
18600.0000000098,117.899048635501,1.00000000074226,0.550377651009418
18700.0000000084,117.284000929678,1.00000000079518,0.547645203366389
18800.0000000069,116.676381300806,1.00000000077811,0.546555459496721
18900.0000000055,116.076671399641,1.00000000074239,0.545291414004449
19000.000000004,115.487408410172,1.0000000006549,0.535787396976665
19100.0000000026,114.908310540782,1.0000000006735,0.527819374447396
19200.0000000011,114.338613403328,1.00000000074344,0.52640723839094
19299.9999999996,113.776709642988,1.00000000076308,0.531172466177187
19399.9999999982,113.222192273749,1.00000000074373,0.533453094945144
19499.9999999967,112.675134178281,1.00000000074062,0.540918109323722
19599.9999999953,112.133943698492,1.00000000078331,0.551524513011412
19699.9999999938,111.598136129679,1.00000000080565,0.554893951728626
19799.9999999924,111.067967152556,1.00000000075512,0.548768855347447
19899.9999999909,110.54441263811,1.00000000076551,0.543706603682332
19999.9999999895,110.030534083034,1.00000000067356,0.535717297950523
20099.999999988,109.527990029972,1.0000000006568,0.527139410103368
20199.9999999865,109.036484297098,1.00000000067168,0.520164919181183
20299.9999999851,108.553642165137,1.00000000074681,0.521472278582426
20399.9999999836,108.077055623499,1.00000000083427,0.530613783795395
20499.9999999822,107.606566055306,1.0000000007153,0.52742147625085
20599.9999999807,107.142219798752,1.00000000074852,0.534201539529329
20699.9999999793,106.681764983753,1.00000000080234,0.549708284816881
20799.9999999778,106.224071470912,1.00000000084481,0.557428503739958
20899.9999999764,105.769715094885,1.00000000080759,0.551985135207899
20999.9999999749,105.320039100453,1.0000000007588,0.543762858691928
21099.9999999734,104.877434553168,1.00000000070431,0.536052354456613
21199.999999972,104.445870244548,1.00000000067242,0.525870362340262
21299.9999999705,104.025997783303,1.00000000066079,0.527250941954301
21399.9999999691,103.616147495103,1.00000000069662,0.520621141687036
21499.9999999676,103.214457165433,1.00000000074936,0.519099184375272
21599.9999999662,102.818642539865,1.0000000007656,0.52242762311286
21699.9999999647,102.427533624609,1.00000000077635,0.525499367447826
21799.9999999633,102.040717166415,1.00000000073822,0.527988071034675
21899.9999999618,101.656366966712,1.00000000078622,0.539289992453215
21999.9999999603,101.272447734673,1.00000000082455,0.552241982691446
22099.9999999589,100.889016415524,1.00000000081094,0.556000374646407
22199.9999999574,100.508002464589,1.00000000078419,0.54979987964582
22299.999999956,100.13195466022,1.00000000076004,0.539485930784761
22399.9999999545,99.7633994204978,1.00000000073646,0.534089822098092
22499.9999999531,99.4046311798446,1.0000000006825,0.532152117324661
22599.9999999516,99.0562667600764,1.00000000067494,0.528446451943415
22699.9999999502,98.7179752965533,1.00000000069975,0.52738527883932
22799.9999999487,98.3880484937318,1.00000000072503,0.522396475895972
22899.9999999473,98.0654327599056,1.00000000072527,0.519470264788857
22999.9999999458,97.7483080173121,1.00000000076546,0.525055194609767
23099.9999999443,97.4347894428328,1.00000000076299,0.529702740072105
23199.9999999429,97.1234117636902,1.00000000078499,0.536994746527423
23299.9999999414,96.8121267231673,1.00000000079189,0.541653754638458
23399.99999994,96.4992249747014,1.00000000085717,0.547297516276365
23499.9999999385,96.1856988069283,1.00000000078454,0.553224944694682
23599.9999999371,95.8737705100021,1.00000000073945,0.551233237113822
23699.9999999356,95.5659800387062,1.00000000074003,0.544865863812755
23799.9999999342,95.2642650984169,1.00000000072707,0.543026083563763
23899.9999999327,94.968724124141,1.0000000007326,0.542996714968603
23999.9999999312,94.6813278846363,1.00000000070352,0.541361946821831
24099.9999999298,94.4029949254203,1.00000000066655,0.537172566760063
24199.9999999283,94.1347690522796,1.00000000069213,0.530108427033755
24299.9999999269,93.8753884961617,1.00000000070292,0.528617852208467
24399.9999999254,93.6236636604298,1.00000000069912,0.524061946705093
24499.999999924,93.3786602032134,1.0000000007197,0.526493789935105
24599.9999999225,93.1384202266165,1.00000000073881,0.534157331552422
24699.9999999211,92.8990869406135,1.00000000078529,0.543547424908456
24799.9999999196,92.6589817047578,1.00000000077816,0.546119687596684
24899.9999999181,92.4179766390844,1.0000000007717,0.543821938565541
24999.9999999167,92.1751279870396,1.00000000083216,0.550061707926739
25099.9999999152,91.9307122705404,1.00000000077426,0.551732754655615
25199.9999999138,91.6881347268816,1.00000000071281,0.551264002862888
25299.9999999123,91.4492829123503,1.00000000072507,0.55193716615763
25399.9999999109,91.2146846837355,1.00000000075837,0.548908114278042
25499.9999999094,90.9844553479742,1.00000000075517,0.549742872460622
25599.999999908,90.7577319375288,1.00000000076757,0.552719022241401
25699.9999999065,90.5357148082335,1.00000000069991,0.548579459582183
25799.9999999051,90.3217813464666,1.00000000070836,0.540083039939188
25899.9999999036,90.1177909731716,1.00000000067807,0.532082004174077
25999.9999999021,89.9242103765388,1.00000000067835,0.528025904118679
26099.9999999007,89.7388654611743,1.00000000072916,0.531050696241021
26199.9999998992,89.5598811842235,1.00000000073686,0.532846228960756
26299.9999998978,89.3856835169046,1.00000000071628,0.537729916299307
26399.9999998963,89.2143272012696,1.00000000080383,0.541831756662379
26499.9999998949,89.0424002887269,1.00000000080938,0.549537409061288
26599.9999998934,88.8676575260802,1.00000000084326,0.555667963532481
26699.999999892,88.6904229735445,1.00000000078942,0.551430587349699
26799.9999998905,88.5113738056446,1.00000000079841,0.549416835091571
26899.999999889,88.3309076713631,1.00000000076994,0.549286623818038
26999.9999998876,88.1513062559463,1.00000000074045,0.544417584561703
27099.9999998861,87.9738178811788,1.00000000072114,0.549639206243708
27199.9999998847,87.7992700809976,1.00000000072074,0.555998895853013
27299.9999998832,87.6262467422147,1.00000000082349,0.562160144478762
27399.9999998818,87.4534566259401,1.00000000079452,0.559437369895588
27499.9999998803,87.2815320112313,1.0000000007835,0.553231881377319
27599.9999998789,87.111956990904,1.00000000077411,0.550219905662753
27699.9999998774,86.947421721926,1.00000000071437,0.543783492570866
27799.9999998759,86.7920452270002,1.00000000067829,0.535667990637983
27899.9999998745,86.6461567871188,1.00000000068495,0.532264744082744
27999.999999873,86.5103118591621,1.00000000068962,0.528328126989298
28099.9999998716,86.381968404489,1.00000000073107,0.534406875724045
28199.9999998701,86.2587511415763,1.00000000073961,0.537442388443576
28299.9999998687,86.1384209211977,1.0000000007692,0.54316216470895
28399.9999998672,86.019381761979,1.00000000075264,0.550170789843145
28499.9999998658,85.9000585106469,1.00000000078851,0.556925709455845
28599.9999998643,85.7782262028728,1.00000000079718,0.561033278003133
28699.9999998629,85.6524085953272,1.00000000084061,0.562597122138761
28799.9999998614,85.5233200996134,1.00000000079191,0.562474173335338
28899.9999998599,85.3931676081555,1.00000000076722,0.552892406119174
