Time,AGPnorm,Energy,Entropy
0,0,1,-7.07957257343107e-17
99.9999999999986,0.000989088064771222,0.999999999999834,0.00337078733881356
199.999999999993,0.00667112918376448,0.999999999997308,0.00985786423018412
300,0.0137218633181468,0.99999999999687,0.0180436271662258
400.000000000022,0.0206976507261831,0.999999999999257,0.0283656919493813
500.000000000045,0.0289914546866116,0.999999999999983,0.0410803096535035
600.000000000068,0.0402604020615623,0.999999999998266,0.0556409729674188
700.000000000091,0.0520771724168954,0.999999999996829,0.0715858806296133
800.000000000113,0.0640808311220201,0.999999999998457,0.0893098965095213
900.000000000136,0.0766650359157772,0.99999999999996,0.109841621856163
1000.00000000016,0.090113833075931,0.99999999999908,0.133281224836755
1100.0000000001,0.104333221933578,0.999999999999022,0.160453045226861
1200,0.117847734836865,1.00000000000847,0.192546605109927
1299.99999999991,0.131954397161727,1.00000000004964,0.231393556672477
1399.99999999982,0.142978252010683,1.00000000014229,0.275180795068758
1499.99999999973,0.171640942552225,1.00000000028489,0.319124049699562
1599.99999999964,0.260760199613668,1.00000000047067,0.359417311364592
1699.99999999955,0.439238910827297,1.00000000061967,0.395325509627536
1799.99999999946,0.757774454511834,1.00000000084178,0.427104938434511
1899.99999999937,1.32781512371019,1.00000000099478,0.454462880588597
1999.99999999928,2.24871819879804,1.00000000110013,0.477427933386883
2099.99999999919,3.54258537877446,1.00000000120727,0.497044016706884
2199.99999999909,5.22702944075883,1.00000000126489,0.514212111350423
2299.999999999,7.36049406004748,1.00000000134775,0.528086121303547
2399.99999999891,9.95671124121751,1.00000000140056,0.539067551527147
2499.99999999882,12.9579669368794,1.00000000135781,0.548525170097632
2599.99999999873,16.3015501989241,1.00000000141298,0.556144555991053
2699.99999999864,19.9651984380967,1.00000000139452,0.562041530860082
2799.99999999855,23.9038953495832,1.00000000132764,0.566356410788649
2899.99999999846,28.0267437125012,1.00000000129268,0.569488700428404
2999.99999999837,32.253026563129,1.00000000139376,0.571389471616807
3099.99999999828,36.5356939439541,1.00000000131197,0.572806692642246
3199.99999999819,40.829946842695,1.00000000131967,0.572970125163083
3299.99999999809,45.0648974836787,1.00000000129294,0.572744003853096
3399.999999998,49.1784988777698,1.0000000011806,0.57180125175722
3499.99999999791,53.1369144289941,1.00000000124447,0.571699496453305
3599.99999999782,56.9110015465953,1.00000000121906,0.570964600785877
3699.99999999773,60.4709636881679,1.00000000111011,0.56801972967573
3799.99999999764,63.7867484251832,1.00000000107169,0.565496779188816
3899.99999999755,66.8330376940318,1.00000000111672,0.566983787922641
3999.99999999746,69.6027555894656,1.00000000098344,0.563626169571635
4099.99999999738,72.1023856959589,1.00000000096542,0.560299741911985
4199.99999999775,74.315920536017,1.00000000100274,0.560322941981354
4299.99999999811,76.238270710216,1.00000000093149,0.557331803564094
4399.99999999848,77.8856399837319,1.00000000091027,0.557933789025067
4499.99999999884,79.2637599315181,1.00000000087281,0.551662428363561
4599.9999999992,80.3827775334999,1.00000000083624,0.555690425239408
4699.99999999957,81.2613292806516,1.00000000087565,0.553677304924202
4799.99999999993,81.8941419413486,1.00000000077141,0.543375080357783
4900.00000000029,82.3121662686002,1.00000000081631,0.560742216805757
5000.00000000066,82.5572840582411,1.00000000074914,0.545673689593552
5100.00000000102,82.5959012339921,1.00000000069274,0.531391986324998
5200.00000000139,82.4726173283026,1.00000000086371,0.565485680923444
5300.00000000175,82.2547676555006,1.0000000007709,0.548455178590367
5400.00000000211,81.8758428825113,1.0000000005804,0.513177026161557
5500.00000000248,81.3644732998983,1.00000000083146,0.557920892671946
5600.00000000284,80.8286132022047,1.00000000096012,0.567510224916812
5700.00000000321,80.2198094476099,1.00000000062024,0.507741031510801
5800.00000000357,79.4752892649984,1.000000000618,0.508405732717795
5900.00000000393,78.6967501151068,1.00000000103182,0.573189598384197
6000.0000000043,77.9487291319042,1.00000000098302,0.557306517987466
6100.00000000466,77.1534203472345,1.00000000054445,0.478585638870469
6200.00000000502,76.2606863123594,1.00000000058414,0.486335174832827
6300.00000000539,75.3566087226689,1.00000000104386,0.564512015896491
6400.00000000575,74.5068155790214,1.0000000011094,0.566423439209484
6500.00000000612,73.665311480157,1.00000000066835,0.489646517318482
6600.00000000648,72.7660372507591,1.0000000004605,0.441482619907002
6700.00000000684,71.8288382556192,1.00000000077719,0.505258522059011
6800.00000000721,70.9222386248358,1.00000000112575,0.567253839482569
6900.00000000757,70.0684091700409,1.00000000107623,0.551268348951607
7000.00000000793,69.2284196583984,1.0000000007034,0.480161122358936
7100.0000000083,68.3622102583709,1.00000000052275,0.430732304433406
7200.00000000866,67.4759983760794,1.00000000069406,0.467441628414763
7300.00000000903,66.6048918320472,1.00000000105664,0.535011699177464
7400.00000000939,65.771569921006,1.00000000112504,0.55375832621669
7500.00000000975,64.9710386461915,1.00000000093858,0.523690773499712
7600.00000001012,64.1792162570072,1.00000000065601,0.467278704238304
7700.00000001048,63.385116371712,1.00000000053469,0.438507921165062
7800.00000001084,62.5940684565167,1.00000000066328,0.462477827156279
7900.00000001121,61.8153757141866,1.00000000084236,0.501674543092396
8000.00000001157,61.0564754908853,1.0000000010386,0.535349473423522
8100.00000001194,60.3208431844894,1.0000000009997,0.538252736715281
8200.0000000123,59.6045766874019,1.0000000008248,0.507569914613251
8300.00000001266,58.9017976366001,1.00000000062726,0.466000344257158
8400.00000001303,58.2142075575378,1.00000000063564,0.458105610509603
8500.00000001339,57.543672637848,1.00000000072156,0.474561242026263
8600.00000001376,56.8884867888,1.00000000073964,0.487357552611888
8700.00000001412,56.2492547978124,1.00000000083251,0.49967048624034
8800.00000001448,55.6241188597085,1.0000000009051,0.519580648834467
8900.00000001485,55.0097434428663,1.00000000106245,0.532601501703702
9000.00000001521,54.4071027382723,1.00000000084616,0.521849394482894
9100.00000001557,53.822287747681,1.00000000065617,0.479782898870177
9200.00000001594,53.2608939062555,1.0000000006029,0.462266003611227
9300.0000000163,52.7212411650085,1.00000000076364,0.476096648820897
9400.00000001667,52.1964594520317,1.00000000089301,0.495692026293345
9500.00000001703,51.6849399494025,1.00000000080403,0.500643610776206
9600.00000001739,51.1914138512972,1.00000000065557,0.482822184490315
9700.00000001776,50.7148247124627,1.00000000079326,0.499109284148545
9800.00000001812,50.2455997486648,1.00000000092655,0.52210837585616
9900.00000001848,49.7748357159005,1.00000000105248,0.534588478794345
10000.0000000188,49.3075473700182,1.00000000090175,0.522367951253284
10100.0000000192,48.8571144661801,1.00000000069803,0.488574990432098
10200.0000000196,48.4340565547231,1.00000000062532,0.467440090659512
10300.0000000199,48.036075911484,1.00000000071354,0.471563844442181
10400.0000000203,47.65175373484,1.00000000092822,0.488536788126216
10500.0000000207,47.2721820707301,1.00000000100598,0.500774988971681
10600.000000021,46.8987677658396,1.00000000083651,0.509358179527225
10700.0000000214,46.5399932603401,1.00000000067779,0.494784910187337
10800.0000000218,46.1998175008306,1.00000000067621,0.492751638083091
10900.0000000221,45.8693675583916,1.00000000085774,0.512982477718054
11000.0000000225,45.5396079929031,1.00000000096142,0.52857333572152
11100.0000000229,45.204989322784,1.00000000107667,0.536398001526245
11200.0000000232,44.8672843413303,1.00000000092479,0.532355045135527
11300.0000000236,44.5369403758557,1.00000000075545,0.51353079141249
11400.0000000239,44.2272623839175,1.00000000067588,0.491523338171249
11500.0000000243,43.943508193576,1.00000000068103,0.483010569643404
11600.0000000247,43.679860705999,1.00000000071419,0.488089934483143
11700.000000025,43.4302739286293,1.00000000076757,0.492406922320853
11800.0000000254,43.1883593618538,1.00000000084282,0.503531389377371
11900.0000000258,42.9515686823861,1.00000000083184,0.49954110599195
12000.0000000261,42.7202246346255,1.00000000080805,0.508331837081158
12100.0000000265,42.4920084137687,1.00000000087039,0.527154088524517
12200.0000000269,42.2680845840035,1.00000000078438,0.527241437849579
12300.0000000272,42.0479256143388,1.00000000079206,0.533141432747576
12400.0000000276,41.8321713902831,1.00000000075168,0.529424849303101
12500.0000000279,41.6211896723879,1.00000000080148,0.526551512931664
12600.0000000283,41.4126816405092,1.00000000087977,0.525776859315533
12700.0000000287,41.2012092143265,1.00000000099162,0.534994443988178
12800.000000029,40.9833374845611,1.00000000097959,0.540903964166379
12900.0000000294,40.7692682220151,1.00000000079041,0.530070667565004
13000.0000000298,40.5724527924152,1.00000000063792,0.511317335073115
13100.0000000301,40.4001713278948,1.00000000065813,0.494497146267553
13200.0000000305,40.2479101912072,1.00000000070274,0.493148786031922
13300.0000000309,40.1044234776408,1.00000000084787,0.508149336518925
13400.0000000312,39.9630331990655,1.00000000082972,0.508135480192462
13500.0000000316,39.8285634163814,1.00000000078935,0.498319351763608
13600.0000000319,39.7052918833766,1.00000000073548,0.504267914655194
13700.0000000323,39.5938710481703,1.00000000073321,0.51214866548852
13800.0000000327,39.4917401494405,1.00000000076187,0.51343248565314
13900.000000033,39.3892957247215,1.00000000084576,0.526811119659579
14000.0000000334,39.2760050634209,1.00000000090405,0.540722745280594
14100.0000000338,39.1494280187016,1.00000000089561,0.552300891337875
14200.0000000341,39.0132697886799,1.00000000084716,0.557019221529027
14300.0000000345,38.8737247605067,1.00000000080621,0.556789327051161
14400.0000000349,38.7372400006899,1.00000000073204,0.551610634449638
14500.0000000352,38.607486909508,1.00000000075346,0.547365352861973
14600.0000000356,38.4824585781957,1.00000000078247,0.54122062210464
14700.0000000359,38.3585441453924,1.00000000089426,0.536180890488777
14800.0000000363,38.2323546971669,1.0000000009278,0.541913950612741
14900.0000000367,38.1018241808235,1.00000000094343,0.545591098745081
15000.000000037,37.970495248861,1.00000000083654,0.547029054776628
15100.0000000374,37.848089648897,1.00000000075218,0.538724308761807
15200.0000000378,37.7433283366374,1.00000000072167,0.526375640091853
15300.0000000381,37.6570545904693,1.00000000071025,0.516556333300072
15400.0000000385,37.5855461292128,1.00000000072998,0.515697357991281
15500.0000000389,37.5259005940249,1.0000000008085,0.51539093406917
15600.0000000392,37.4718510714484,1.00000000087462,0.51471256134831
15700.0000000396,37.4178383673615,1.00000000084464,0.514377527206053
15800.0000000399,37.3684666111505,1.00000000073699,0.512520775301538
15900.0000000403,37.3282705381369,1.00000000073696,0.518150819758242
16000.0000000407,37.2943085867142,1.00000000078543,0.530288872425369
16100.000000041,37.2607144077322,1.00000000088065,0.546278537867464
16200.0000000414,37.2254764324743,1.00000000083216,0.555371409688738
16300.0000000418,37.1895474847639,1.00000000080222,0.557850813529536
16400.0000000418,37.1556753741411,1.0000000008196,0.559545818529058
16500.0000000404,37.1240864598417,1.00000000077936,0.553462305855026
16600.0000000389,37.0893281500286,1.00000000079418,0.552754479769125
16700.0000000375,37.0450467601372,1.00000000087003,0.562800793164523
16800.000000036,36.9882765175004,1.00000000089065,0.561577061440588
16900.0000000346,36.917184339719,1.00000000087458,0.560374576029493
17000.0000000331,36.8333544826387,1.00000000094587,0.572038326861475
17100.0000000317,36.7406088540557,1.00000000087893,0.583593608964369
17200.0000000302,36.6451558112075,1.00000000074941,0.577919384185572
17300.0000000287,36.5530634514982,1.0000000007125,0.56957612637611
17400.0000000273,36.4682666036624,1.00000000072305,0.561177578888758
17500.0000000258,36.390547288311,1.00000000078418,0.555793857721042
17600.0000000244,36.3166171549351,1.00000000085256,0.553018271826772
17700.0000000229,36.2435989508392,1.00000000090931,0.554428836823438
17800.0000000215,36.1685945950581,1.00000000086298,0.557101051658125
17900.00000002,36.0903878201279,1.00000000092366,0.561487424636387
18000.0000000186,36.0123628800092,1.00000000086809,0.56275913575186
18100.0000000171,35.9406753798626,1.00000000077469,0.558380675444693
18200.0000000156,35.8824189029953,1.00000000071586,0.551240079722966
18300.0000000142,35.8407919784327,1.0000000007138,0.545937904746125
18400.0000000127,35.8136011782331,1.00000000073497,0.53502040050076
18500.0000000113,35.7977432107079,1.00000000081325,0.532989020288907
18600.0000000098,35.7873124025758,1.00000000080539,0.52957653262047
18700.0000000084,35.7786238371707,1.00000000081831,0.53368487766398
18800.0000000069,35.7753425377635,1.00000000080161,0.533501147408706
18900.0000000055,35.7787865014336,1.00000000080302,0.526542576073513
19000.000000004,35.7870638672733,1.00000000075991,0.525221075059489
19100.0000000026,35.7986317023683,1.00000000081093,0.525768697359301
19200.0000000011,35.8125308910723,1.00000000078512,0.522961267689719
19299.9999999996,35.829330450853,1.0000000008065,0.524954826846768
19399.9999999982,35.8471591631032,1.00000000083428,0.536490325656476
19499.9999999967,35.8608194476786,1.00000000087667,0.557643544481067
19599.9999999953,35.8688033968511,1.00000000087688,0.564852722796436
19699.9999999938,35.8731773356628,1.00000000082196,0.564297798186555
19799.9999999924,35.8754969241678,1.00000000080952,0.566363897888742
19899.9999999909,35.8772827911645,1.00000000082305,0.562771339588056
19999.9999999895,35.8767990267336,1.00000000081896,0.5692067224101
20099.999999988,35.8718792867912,1.00000000087764,0.574410398688601
20199.9999999865,35.8612279482331,1.00000000089581,0.582578459223099
20299.9999999851,35.8473991541378,1.00000000080968,0.591353229212859
20399.9999999836,35.8314148515115,1.0000000007986,0.590494138494888
20499.9999999822,35.8102803764652,1.00000000087835,0.589608210361444
20599.9999999807,35.7822215825895,1.00000000083697,0.589006683307249
20699.9999999793,35.7495922825521,1.00000000080722,0.585882461980939
20799.9999999778,35.712178505659,1.00000000082023,0.580110697699259
20899.9999999764,35.667248036,1.00000000086966,0.570709096774043
20999.9999999749,35.61368848342,1.00000000091015,0.567782163546479
21099.9999999734,35.5498931842655,1.00000000094619,0.578850723215267
21199.999999972,35.4786887606558,1.00000000096746,0.584695040845356
21299.9999999705,35.4020104234632,1.00000000090895,0.584668681825801
21399.9999999691,35.3235401363639,1.00000000082364,0.585162061959994
21499.9999999676,35.2460891955002,1.00000000078793,0.584130698523459
21599.9999999662,35.1720342851588,1.0000000007403,0.581008717504471
21699.9999999647,35.1034381789119,1.00000000075124,0.577253520414153
21799.9999999633,35.039272850452,1.00000000078474,0.574553598560979
21899.9999999618,34.9785070375101,1.0000000007918,0.570508999662383
21999.9999999603,34.920721320134,1.00000000084513,0.573879689910046
22099.9999999589,34.8653131496514,1.00000000085314,0.573009272308017
22199.9999999574,34.8108512193591,1.00000000089741,0.569853320377639
22299.999999956,34.7558664834488,1.00000000090628,0.560733084760652
22399.9999999545,34.701024780362,1.00000000091759,0.556118129944167
22499.9999999531,34.6473711690641,1.0000000008693,0.555459609078762
22599.9999999516,34.5983292711825,1.00000000082017,0.557781407417517
22699.9999999502,34.5584149289445,1.0000000007562,0.5583232327769
22799.9999999487,34.5315243829718,1.00000000069774,0.557635448522614
22899.9999999473,34.517072892119,1.00000000074132,0.553834411961936
22999.9999999458,34.5126846805852,1.00000000079977,0.551807567631948
23099.9999999443,34.5175920642171,1.00000000073691,0.551260386935634
23199.9999999429,34.5294276952393,1.00000000083122,0.548506287376783
23299.9999999414,34.5446204766533,1.0000000008575,0.543413045737258
23399.99999994,34.5630247507867,1.00000000083698,0.538930850635298
23499.9999999385,34.5851783636594,1.00000000080498,0.538282528666635
23599.9999999371,34.6142264844081,1.00000000077357,0.540844811057819
23699.9999999356,34.6476377277104,1.00000000079345,0.542266707766816
23799.9999999342,34.683778997071,1.0000000007812,0.541171974692594
23899.9999999327,34.7226990619239,1.00000000082463,0.541522642084198
23999.9999999312,34.7634202316698,1.00000000077875,0.541460723069538
24099.9999999298,34.8058094447474,1.00000000081889,0.544614183994279
24199.9999999283,34.846807686255,1.00000000087939,0.552808678177373
24299.9999999269,34.8830787741833,1.00000000086495,0.566241530171411
24399.9999999254,34.9135419164572,1.00000000084328,0.575394294388847
24499.999999924,34.9394762796744,1.00000000083539,0.579480675148198
24599.9999999225,34.9627582207268,1.00000000087668,0.58396359865049
24699.9999999211,34.9830337671908,1.00000000085159,0.590012445619134
24799.9999999196,35.0014212466652,1.00000000080651,0.594703447220746
24899.9999999181,35.0180908490016,1.00000000088525,0.596554788616011
24999.9999999167,35.0336870633495,1.00000000083096,0.599437657694877
25099.9999999152,35.0481457536014,1.00000000083508,0.604350952465588
25199.9999999138,35.0598785954178,1.00000000087611,0.605424217511134
25299.9999999123,35.0684925338222,1.00000000088322,0.599402611044527
25399.9999999109,35.0755112594374,1.00000000080822,0.596140602886235
25499.9999999094,35.0812175955751,1.00000000085239,0.598361761813714
25599.999999908,35.0825757723755,1.0000000008778,0.597811703970082
25699.9999999065,35.0796037199057,1.00000000086994,0.609284146513851
25799.9999999051,35.0724130037626,1.00000000091467,0.616271386812096
25899.9999999036,35.0624880666047,1.00000000083367,0.612366455264474
25999.9999999021,35.0515583370041,1.00000000085645,0.612273976948412
26099.9999999007,35.037642591147,1.00000000088215,0.612832330897649
26199.9999998992,35.0217352258098,1.00000000085657,0.614604764300954
26299.9999998978,35.0051213206294,1.00000000082125,0.605586968470975
26399.9999998963,34.986821931446,1.00000000085514,0.599179566035635
26499.9999998949,34.9659295852499,1.00000000088195,0.597730712718624
26599.9999998934,34.9425699738337,1.00000000085962,0.595809896471162
26699.999999892,34.9155528219235,1.00000000087298,0.606883755695938
26799.9999998905,34.8828521939607,1.00000000092231,0.612272041712094
26899.999999889,34.8457599651699,1.00000000087913,0.609235900372517
26999.9999998876,34.8065002186617,1.00000000085636,0.614457985145124
27099.9999998861,34.7667778854804,1.00000000084131,0.614722084424966
27199.9999998847,34.7282519170394,1.00000000084349,0.616607586692697
27299.9999998832,34.6896257032466,1.00000000087783,0.618642526225274
27399.9999998818,34.6484609000958,1.00000000083677,0.617719582777949
27499.9999998803,34.6050223926489,1.00000000084552,0.609820150840544
27599.9999998789,34.5597491836849,1.00000000084616,0.610211601066327
27699.9999998774,34.511704025287,1.00000000087575,0.610988479523695
27799.9999998759,34.4606125844027,1.00000000089024,0.609934396182374
27899.9999998745,34.4073489664115,1.00000000088998,0.61045909772676
27999.999999873,34.3508242180057,1.00000000092202,0.612899950210995
28099.9999998716,34.2907574096588,1.00000000094075,0.613855632687696
28199.9999998701,34.2262318152992,1.0000000009367,0.610432297994462
28299.9999998687,34.1578377253935,1.00000000095596,0.618758115014742
28399.9999998672,34.0867135387605,1.00000000087235,0.62295749035908
28499.9999998658,34.0136838950793,1.00000000087427,0.627326488780442
28599.9999998643,33.9393763339253,1.00000000086363,0.630859459118283
28699.9999998629,33.8653490160922,1.00000000084876,0.626570216157175
28799.9999998614,33.7926794064873,1.00000000082029,0.621569427126659
28899.9999998599,33.7224749277811,1.00000000078279,0.615138686772667
28999.9999998585,33.6554884446615,1.000000000799,0.609754963379602
