Time,AGPnorm,Energy,Entropy
0,0,1,-1.46356548393043e-17
99.9999999999986,1.61442182079858e-05,0.999999999997973,0.000734089541740675
199.999999999993,0.0014515213912251,0.99999999999941,0.00117858626898577
300,0.00364801389676015,0.999999999999274,0.00204949587317735
400.000000000022,0.00500760221882544,0.999999999998059,0.00355913717394712
500.000000000045,0.00598621937580356,1,0.00477585051500047
600.000000000068,0.00869698649805081,0.999999999998248,0.00665180599844875
700.000000000091,0.0108626798419963,0.999999999998998,0.00857241839932438
800.000000000113,0.0138484468575483,0.999999999999642,0.0105145820646628
900.000000000136,0.0172809203047412,0.999999999997905,0.0129962215024278
1000.00000000016,0.0200899920302367,0.999999999999837,0.0152872135122606
1100.0000000001,0.0242986778531144,0.999999999998651,0.0179005592422937
1200,0.0285201975606629,0.999999999998599,0.0207422154590246
1299.99999999991,0.0326949748975755,0.999999999999855,0.0234872755299622
1399.99999999982,0.0375824982104106,0.99999999999793,0.0266589691742772
1499.99999999973,0.0423191393932699,0.999999999999564,0.0297774546507041
1599.99999999964,0.0479242711095553,0.99999999999909,0.0330326411877317
1699.99999999955,0.0535659003753432,0.999999999998245,0.0366143744739824
1799.99999999946,0.0588425037330533,0.999999999999905,0.0400825908200384
1899.99999999937,0.0650104141015102,0.999999999998156,0.0438618194797726
1999.99999999928,0.0713863644705352,0.999999999999226,0.0477443653574281
2099.99999999919,0.0779933312675162,0.999999999999449,0.0516539613603118
2199.99999999909,0.0846639618058821,0.999999999997992,0.0559233158453418
2299.999999999,0.0910190648618702,0.999999999999823,0.0601245062180857
2399.99999999891,0.0982345814079888,0.999999999998544,0.0645613683376593
2499.99999999882,0.1056840828573,0.999999999998866,0.0692394146063147
2599.99999999873,0.112874778219755,0.999999999999647,0.0738948236438441
2699.99999999864,0.120256011302138,0.999999999997927,0.0789066744102611
2799.99999999855,0.127668955393234,0.999999999999647,0.0839657299375547
2899.99999999846,0.135581014331397,0.999999999998987,0.0892230915141666
2999.99999999837,0.143530830053541,0.999999999998512,0.0948333617994137
3099.99999999828,0.150996957506126,0.999999999999712,0.100444628927236
3199.99999999819,0.158855017062336,0.999999999998092,0.106426016018591
3299.99999999809,0.167072019043959,0.999999999999392,0.112647243581928
3399.999999998,0.175269078107406,0.99999999999935,0.119075796887673
3499.99999999791,0.183312191220935,0.999999999998185,0.125997679937686
3599.99999999782,0.190920082825636,0.999999999999786,0.133047044799799
3699.99999999773,0.199109292600339,0.99999999999859,0.140613003318424
3799.99999999764,0.207535903122698,0.999999999999415,0.148720111848626
3899.99999999755,0.215699938562079,1.00000000000025,0.157203479124805
3999.99999999746,0.223482164847089,0.99999999999948,0.166464180653554
4099.99999999738,0.231117155894704,1.00000000000283,0.176188671606311
4199.99999999775,0.23993640193947,1.00000000000444,0.186648265311366
4299.99999999811,0.247529861608265,1.0000000000085,0.197910338513208
4399.99999999848,0.256413337822105,1.00000000001535,0.209481033631741
4499.99999999884,0.265250528214773,1.00000000002097,0.22165841417415
4599.9999999992,0.273630851185744,1.00000000003294,0.234011071601656
4699.99999999957,0.289307350616905,1.00000000004598,0.246452685776208
4799.99999999993,0.302158385303959,1.0000000000602,0.259112608580005
4900.00000000029,0.324353635980296,1.00000000007676,0.271301657186948
5000.00000000066,0.358079579465606,1.00000000009178,0.283535266058171
5100.00000000102,0.396340921950419,1.0000000001153,0.295533677948396
5200.00000000139,0.465313447503905,1.00000000012935,0.307181365131615
5300.00000000175,0.549348750326936,1.00000000015156,0.318746272069278
5400.00000000211,0.665967051894466,1.00000000017293,0.329752365299914
5500.00000000248,0.8348989998234,1.00000000019599,0.340561534046718
5600.00000000284,1.03699011857152,1.00000000021173,0.351342089672137
5700.00000000321,1.31545930084505,1.00000000023605,0.361455581350773
5800.00000000357,1.66273506538258,1.00000000026507,0.371396005195325
5900.00000000393,2.08491855046509,1.00000000028071,0.381036323318445
6000.0000000043,2.6247397028617,1.00000000029097,0.390286662723114
6100.00000000466,3.25507098686027,1.00000000031288,0.399528952379794
6200.00000000502,4.01728561294179,1.00000000032684,0.408009382363619
6300.00000000539,4.92364213896309,1.00000000034491,0.416314900165464
6400.00000000575,5.95777766882868,1.00000000034625,0.424596929974784
6500.00000000612,7.17441281187675,1.00000000038586,0.432093479773219
6600.00000000648,8.55138029723977,1.0000000003988,0.439682118246239
6700.00000000684,10.1065093925766,1.00000000041255,0.446752553462943
6800.00000000721,11.8736094784934,1.00000000041868,0.453459865294223
6900.00000000757,13.8185364361425,1.00000000042856,0.460362688131511
7000.00000000793,15.9877507195678,1.00000000045214,0.466431443773097
7100.0000000083,18.3761141198789,1.00000000044533,0.472487687887182
7200.00000000866,20.9688494182135,1.00000000045024,0.478338619295976
7300.00000000903,23.811326359728,1.00000000047207,0.483641132224277
7400.00000000939,26.8672209908548,1.00000000046743,0.489143572065144
7500.00000000975,30.1572623534502,1.00000000048181,0.493875434509546
7600.00000001012,33.6969013960685,1.00000000047073,0.498653569614842
7700.00000001048,37.4459517562524,1.00000000049288,0.503312827486633
7800.00000001084,41.4458918855401,1.00000000048409,0.507484767601972
7900.00000001121,45.6731100558855,1.00000000050118,0.511502199003797
8000.00000001157,50.1161291517767,1.00000000049334,0.515380877579745
8100.00000001194,54.8050692295118,1.00000000049637,0.518978058674481
8200.0000000123,59.6911457965997,1.00000000049528,0.5225766562188
8300.00000001266,64.7981827949674,1.00000000050332,0.525665978722247
8400.00000001303,70.1216643104065,1.00000000052399,0.528670220849089
8500.00000001339,75.6248527843255,1.00000000052087,0.531694830592864
8600.00000001376,81.3402538937455,1.00000000050045,0.534389359516988
8700.00000001412,87.2281332975026,1.00000000052025,0.536944565749993
8800.00000001448,93.2860704357208,1.00000000050626,0.539322756410187
8900.00000001485,99.5282110393118,1.00000000051074,0.541496078014901
9000.00000001521,105.90499486163,1.00000000050511,0.543819511043897
9100.00000001557,112.441034196116,1.00000000051421,0.545656340276704
9200.00000001594,119.113595511982,1.00000000049908,0.547598653989292
9300.0000000163,125.897893047274,1.00000000049761,0.5493060038495
9400.00000001667,132.818466033811,1.00000000049889,0.550761143783038
9500.00000001703,139.826521105594,1.00000000051629,0.552281207870647
9600.00000001739,146.932016507889,1.00000000050149,0.553695827600405
9700.00000001776,154.130901533932,1.00000000049306,0.555026842010229
9800.00000001812,161.38468673131,1.0000000005043,0.556123181650778
9900.00000001848,168.717962668173,1.00000000050391,0.557149985899929
10000.0000000188,176.094335501955,1.00000000050063,0.558280123219854
10100.0000000192,183.506156437666,1.00000000048046,0.559071601370297
10200.0000000196,190.964907942952,1.00000000049593,0.559886919252272
10300.0000000199,198.427419226632,1.00000000047984,0.560628091305276
10400.0000000203,205.91216745597,1.00000000049149,0.56137763745538
10500.0000000207,213.398089258058,1.00000000047984,0.562037167981624
10600.000000021,220.865243395302,1.00000000047557,0.562358088447324
10700.0000000214,228.332215844559,1.00000000046683,0.563110213851457
10800.0000000218,235.761152319749,1.00000000047495,0.563318472540552
10900.0000000221,243.159951374869,1.00000000046825,0.563710518909432
11000.0000000225,250.521906880046,1.00000000046605,0.564205297714819
11100.0000000229,257.821556821908,1.00000000047184,0.564197050282695
11200.0000000232,265.077562522716,1.00000000046422,0.564412255024263
11300.0000000236,272.260813764304,1.00000000044807,0.56506643878596
11400.0000000239,279.370926909503,1.0000000004454,0.564797611740947
11500.0000000243,286.411199208333,1.00000000044124,0.564842406872428
11600.0000000247,293.353724873722,1.00000000043467,0.565257327717704
11700.000000025,300.216838721054,1.00000000042155,0.564878211902565
11800.0000000254,306.978564005381,1.00000000043527,0.565032323104182
11900.0000000258,313.634098710092,1.00000000043476,0.565045069968177
12000.0000000261,320.192726029606,1.00000000042826,0.564497313528805
12100.0000000265,326.627820249783,1.00000000042905,0.564809538843413
12200.0000000269,332.955254213993,1.00000000042575,0.564569793044935
12300.0000000272,339.161907170861,1.00000000041001,0.564230772632205
12400.0000000276,345.237248267051,1.00000000040777,0.564449119612288
12500.0000000279,351.196260254779,1.00000000040989,0.563790481827705
12600.0000000283,357.016531340849,1.00000000041104,0.563823094289615
12700.0000000287,362.706647431783,1.00000000039902,0.5635837850529
12800.000000029,368.263675021806,1.00000000040621,0.56297830326731
12900.0000000294,373.673468548762,1.0000000003999,0.56310591723167
13000.0000000298,378.952772222171,1.0000000004027,0.562511285740636
13100.0000000301,384.084179809966,1.00000000038683,0.562427868319128
13200.0000000305,389.072647324341,1.00000000039011,0.56214815150577
13300.0000000309,393.92026922866,1.00000000038261,0.561408261199294
13400.0000000312,398.612910931501,1.00000000037171,0.56143109007264
13500.0000000316,403.166472000106,1.00000000037053,0.561430841743155
13600.0000000319,407.569963061003,1.00000000037371,0.5605436032338
13700.0000000323,411.821674721023,1.00000000035845,0.560383965875555
13800.0000000327,415.930380474417,1.00000000034777,0.560218737504838
13900.000000033,419.884540730975,1.00000000034815,0.559779876659028
14000.0000000334,423.694372936421,1.00000000035681,0.55927334772187
14100.0000000338,427.355712800987,1.00000000034925,0.559111279853157
14200.0000000341,430.865516783345,1.00000000034407,0.558727239104114
14300.0000000345,434.234131870223,1.00000000034625,0.558153381018156
14400.0000000349,437.450501980875,1.00000000033609,0.55787078711728
14500.0000000352,440.525043137039,1.00000000033115,0.557591829001387
14600.0000000356,443.455634366205,1.00000000031783,0.557430942744161
14700.0000000359,446.238374950563,1.00000000032727,0.557497835631597
14800.0000000363,448.885769522666,1.00000000032448,0.556447663065671
14900.0000000367,451.387344904512,1.00000000031956,0.555414978572605
15000.000000037,453.750091794816,1.00000000031906,0.555305584090603
15100.0000000374,455.976720831371,1.0000000003262,0.556442569926462
15200.0000000378,458.064409569203,1.00000000031084,0.556836617280125
15300.0000000381,460.023703101017,1.00000000030649,0.555279183622125
15400.0000000385,461.847396304709,1.00000000030673,0.554011816331693
15500.0000000389,463.539803693324,1.00000000029604,0.552180595040196
15600.0000000392,465.10422352018,1.00000000031031,0.554355833079503
15700.0000000396,466.538570077189,1.00000000029199,0.555466875159552
15800.0000000399,467.857514517968,1.00000000031939,0.558212839769351
15900.0000000403,469.057727595489,1.00000000028512,0.553988182211227
16000.0000000407,470.138780774374,1.00000000028571,0.551053438884744
16100.000000041,471.098880729576,1.00000000027671,0.54735134139386
16200.0000000414,471.934905535177,1.00000000028643,0.551961614532992
16300.0000000418,472.663252183257,1.00000000029135,0.557255689553902
16400.0000000418,473.291502347425,1.00000000029621,0.560026215399764
16500.0000000404,473.822354647336,1.00000000028825,0.555630946283917
16600.0000000389,474.253133995677,1.00000000027724,0.54794104346255
16700.0000000375,474.571766950368,1.00000000026185,0.542895356871096
16800.000000036,474.780351340592,1.00000000025648,0.545471292989304
16900.0000000346,474.888912939141,1.00000000027336,0.554708898376459
17000.0000000331,474.914036267691,1.0000000002957,0.562093011598278
17100.0000000317,474.87331812074,1.00000000030476,0.561348789561605
17200.0000000302,474.758500766639,1.00000000028071,0.551130985419804
17300.0000000287,474.557479806652,1.00000000024888,0.539487099988962
17400.0000000273,474.256091928086,1.00000000023009,0.533670211627423
17500.0000000258,473.855176605284,1.00000000024502,0.542033481910239
17600.0000000244,473.38040375636,1.00000000028353,0.55690159163742
17700.0000000229,472.853810602541,1.00000000032177,0.566485551250784
17800.0000000215,472.289771114178,1.00000000031419,0.563181398182269
17900.00000002,471.679784450905,1.00000000028021,0.54879814215906
18000.0000000186,471.0000141519,1.00000000022994,0.531327300020899
18100.0000000171,470.234532067703,1.00000000020407,0.521858407163696
18200.0000000156,469.381314821087,1.00000000023156,0.530756314756879
18300.0000000142,468.466256157119,1.00000000028135,0.551554753725016
18400.0000000127,467.520519458924,1.00000000032707,0.567217036617471
18500.0000000113,466.560815458652,1.00000000033688,0.568841843074338
18600.0000000098,465.587160240395,1.00000000031279,0.555689045276234
18700.0000000084,464.575422854501,1.00000000026136,0.53204414088932
18800.0000000069,463.498786097576,1.00000000019887,0.511713089882761
18900.0000000055,462.345255167602,1.00000000018808,0.507770122357062
19000.000000004,461.123790521692,1.00000000022936,0.527238919451688
19100.0000000026,459.869006504712,1.00000000031546,0.555223627695787
19200.0000000011,458.609505520735,1.00000000035423,0.571475376537373
19299.9999999996,457.359834805492,1.00000000037061,0.570658250663197
19399.9999999982,456.114319666484,1.00000000032554,0.55336790999787
19499.9999999967,454.845607968635,1.0000000002627,0.524846443771743
19599.9999999953,453.528937700745,1.00000000019191,0.498107849046411
19699.9999999938,452.145645693755,1.00000000016481,0.489354281187904
19799.9999999924,450.704635173882,1.00000000021461,0.509489775074557
19899.9999999909,449.235646848309,1.00000000029655,0.54428218765903
19999.9999999895,447.768052895279,1.00000000035903,0.569037042382986
20099.999999988,446.322407397489,1.00000000038212,0.575413118849865
20199.9999999865,444.899861740009,1.00000000036518,0.565138061084132
20299.9999999851,443.482798429291,1.0000000003173,0.539717922416716
20399.9999999836,442.046644101536,1.00000000023138,0.50498037781473
20499.9999999822,440.564383681494,1.00000000016845,0.478828058677469
20599.9999999807,439.030542316468,1.00000000016459,0.477004543759897
20699.9999999793,437.455717507947,1.0000000002207,0.503601014528863
20799.9999999778,435.86504092305,1.00000000031294,0.541707994661237
20899.9999999764,434.286779869155,1.00000000037482,0.568265324133943
20999.9999999749,432.736069349346,1.00000000042364,0.576941330563956
21099.9999999734,431.216294846073,1.00000000040925,0.568692848869833
21199.999999972,429.714819826336,1.000000000334,0.546147404180645
21299.9999999705,428.209370035663,1.00000000026327,0.512220271208595
21399.9999999691,426.680472518035,1.00000000019842,0.478808297896088
21499.9999999676,425.112787029123,1.00000000016187,0.463827271834978
21599.9999999662,423.509352700098,1.00000000017663,0.474661833271416
21699.9999999647,421.885068431816,1.00000000024615,0.508483901800619
21799.9999999633,420.25987943743,1.00000000033277,0.546271202348963
21899.9999999618,418.654825118511,1.00000000040274,0.569203623478981
21999.9999999603,417.079267785744,1.0000000004323,0.574016301208924
22099.9999999589,415.533320480502,1.00000000040735,0.56560357232932
22199.9999999574,414.008705154763,1.00000000034561,0.544558659855453
22299.999999956,412.488003198218,1.00000000028127,0.514208177477346
22399.9999999545,410.957056474656,1.00000000021879,0.48117850439471
22499.9999999531,409.403035192543,1.00000000017884,0.460426980590107
22599.9999999516,407.823748789455,1.00000000017148,0.461440851513073
22699.9999999502,406.22746382621,1.00000000021084,0.482472632539464
22799.9999999487,404.6249727543,1.00000000028978,0.516046642661669
22899.9999999473,403.032353738243,1.00000000036812,0.547938379656497
22999.9999999458,401.460429608527,1.0000000003922,0.564366690577847
23099.9999999443,399.914116571357,1.00000000040528,0.566745641207743
23199.9999999429,398.393379985166,1.00000000040198,0.556425343869591
23299.9999999414,396.89108540232,1.00000000034403,0.538805628019811
23399.99999994,395.397573494215,1.00000000029229,0.513958386935795
23499.9999999385,393.902397253228,1.00000000024615,0.48757988974807
23599.9999999371,392.397280350959,1.00000000020599,0.466868778288427
23699.9999999356,390.881090957034,1.00000000018698,0.45905605948793
23799.9999999342,389.353588374965,1.00000000019906,0.46771754381994
23899.9999999327,387.822012916092,1.00000000024132,0.488761843563815
23999.9999999312,386.293827391879,1.0000000002915,0.514488171480113
24099.9999999298,384.776103831876,1.00000000035835,0.539822111235716
24199.9999999283,383.275795118108,1.00000000039178,0.552148480058651
24299.9999999269,381.795065044684,1.00000000038131,0.553717458020438
24399.9999999254,380.333437561842,1.00000000037793,0.546119556565171
24499.999999924,378.887846520072,1.00000000034648,0.532392618475209
24599.9999999225,377.452795842238,1.00000000032576,0.517457895194889
24699.9999999211,376.023363523808,1.00000000026644,0.498590119084029
24799.9999999196,374.594543519503,1.00000000024402,0.483413948216497
24899.9999999181,373.164515178163,1.00000000021758,0.470607369572038
24999.9999999167,371.733281569444,1.00000000021506,0.467072041670141
25099.9999999152,370.301180342922,1.00000000023206,0.472138910326768
25199.9999999138,368.872034010244,1.00000000024152,0.485591258225099
25299.9999999123,367.448182770722,1.00000000028682,0.503332117954774
25399.9999999109,366.033313949976,1.00000000032105,0.520906781532621
25499.9999999094,364.630549304094,1.00000000034144,0.5319802833454
25599.999999908,363.241150463151,1.00000000037463,0.537222711571155
25699.9999999065,361.865448280151,1.0000000003538,0.535112380968341
25799.9999999051,360.502730883586,1.00000000034828,0.528458625071422
25899.9999999036,359.150773490622,1.00000000032987,0.520179871105068
25999.9999999021,357.807996969747,1.00000000030762,0.511392778967778
26099.9999999007,356.472226924833,1.00000000028906,0.504207925466353
26199.9999998992,355.142602102463,1.00000000025507,0.4952038239145
26299.9999998978,353.818301675838,1.00000000024883,0.48728731157945
26399.9999998963,352.49914824618,1.00000000023997,0.479904087605813
26499.9999998949,351.185994393046,1.00000000023162,0.477598052863633
26599.9999998934,349.878399357749,1.00000000023662,0.479942555535449
26699.999999892,348.577868167725,1.00000000025151,0.486828435285772
26799.9999998905,347.285071582687,1.00000000027493,0.496676688037363
26899.999999889,346.000747554912,1.00000000030368,0.507586395973582
26999.9999998876,344.72596634921,1.00000000032332,0.515904172956067
27099.9999998861,343.46102369545,1.00000000033456,0.520787489428523
27199.9999998847,342.205538301271,1.0000000003455,0.523365496472216
27299.9999998832,340.95984737647,1.00000000033082,0.521677102496052
27399.9999998818,339.723047026697,1.00000000031904,0.519400105534481
27499.9999998803,338.494998921469,1.00000000029963,0.51365458090667
27599.9999998789,337.275330225799,1.00000000028772,0.510226473756149
27699.9999998774,336.063732161716,1.000000000287,0.509657924148645
27799.9999998759,334.860629768341,1.00000000027515,0.509607704089962
27899.9999998745,333.665779760546,1.00000000028133,0.505753715150203
27999.999999873,332.480111712678,1.00000000026909,0.498713537706566
28099.9999998716,331.30320358637,1.00000000026054,0.492136474320629
28199.9999998701,330.135468319603,1.00000000024602,0.485188067708074
28299.9999998687,328.977159284792,1.00000000023967,0.480745125314784
28399.9999998672,327.828102322153,1.00000000024557,0.480876219878473
28499.9999998658,326.688743307975,1.00000000025438,0.485654552776516
28599.9999998643,325.558864763922,1.00000000027564,0.492805496871228
28699.9999998629,324.437687079575,1.00000000030309,0.503199638490175
28799.9999998614,323.324412796912,1.0000000003238,0.510348182006757
28899.9999998599,322.218182121678,1.00000000034799,0.516756462449716
