Time,AGPnorm,Energy,Entropy
0,0,1,-1.48358689957928e-17
99.9999999999986,4.52629829709034e-05,1.0000000000062,0.00169313080142856
199.999999999993,0.00378315083376627,0.999999999998976,0.00265902043166547
300,0.00945444941918962,1.00000000000394,0.00494383729676429
400.000000000022,0.0129019051285539,1.00000000000362,0.00810180767098946
500.000000000045,0.0164795648617137,0.999999999999099,0.011177589794704
600.000000000068,0.0235521716162811,1.00000000000632,0.0153907837376137
700.000000000091,0.0289335758580966,0.999999999999653,0.0195212220570169
800.000000000113,0.0361652208601991,1.00000000000272,0.0244995543280093
900.000000000136,0.0452985744895615,1.00000000000483,0.0296351809329318
1000.00000000016,0.0541936928558134,0.999999999998588,0.035118817229322
1100.0000000001,0.0638559483223122,1.00000000000589,0.0412528382950555
1200,0.0737898383818922,1.00000000000068,0.0472888024175966
1299.99999999991,0.0844255446780067,1.0000000000015,0.0543100195356731
1399.99999999982,0.0965799630015708,1.00000000000579,0.0613101536977553
1499.99999999973,0.108808022744506,0.999999999998524,0.0688096422976388
1599.99999999964,0.120049139165694,1.00000000000497,0.0770481907717184
1699.99999999955,0.132690435408818,1.00000000000191,0.0851330277838471
1799.99999999946,0.146229089007221,1.00000000000053,0.0944915507083408
1899.99999999937,0.159881123191049,1.00000000000625,0.104079760852142
1999.99999999928,0.173073643463785,0.999999999998883,0.11423979847596
2099.99999999919,0.184937757126159,1.00000000000387,0.125665545414732
2199.99999999909,0.19879731056284,1.00000000000344,0.137375156401533
2299.999999999,0.213576067685726,1.0000000000007,0.151120357646494
2399.99999999891,0.227174298507694,1.00000000000903,0.166253021838111
2499.99999999882,0.239150169059039,1.00000000001031,0.182823246558419
2599.99999999873,0.252075110269695,1.00000000003092,0.201962099025547
2699.99999999864,0.266125218507068,1.00000000006471,0.22189058028037
2799.99999999855,0.280026736569555,1.00000000011069,0.243138579391207
2899.99999999846,0.300675692755823,1.00000000018219,0.264569949293692
2999.99999999837,0.318869517498387,1.00000000025039,0.284839226983951
3099.99999999828,0.359477678662607,1.00000000034481,0.305700194223231
3199.99999999819,0.420610281753473,1.00000000043789,0.325297242433205
3299.99999999809,0.513265700727046,1.0000000005081,0.344611428469141
3399.999999998,0.661295074997401,1.00000000060417,0.363367193933086
3499.99999999791,0.867680012277887,1.00000000071141,0.380129352295807
3599.99999999782,1.17229956655144,1.00000000076337,0.397756907789138
3699.99999999773,1.57202028011736,1.00000000090268,0.413486536561351
3799.99999999764,2.11041826393202,1.00000000093129,0.42833319456304
3899.99999999755,2.78781764928071,1.0000000010092,0.443099410547595
3999.99999999746,3.62425324926371,1.0000000010767,0.455610778479812
4099.99999999738,4.66527974821388,1.00000000112474,0.468728865352485
4199.99999999775,5.86702292148136,1.00000000120027,0.480532346669078
4299.99999999811,7.30965558201377,1.00000000123652,0.490525569407824
4399.99999999848,8.9524197001903,1.00000000128365,0.501441573512476
4499.99999999884,10.7959437864799,1.00000000125077,0.510466115139398
4599.9999999992,12.9123785197486,1.00000000129337,0.519077031156785
4699.99999999957,15.1943910332824,1.00000000134759,0.527505930555752
4799.99999999993,17.7359047618817,1.0000000013633,0.533812715051865
4900.00000000029,20.4898558726928,1.00000000137869,0.541541937948909
5000.00000000066,23.4036796387263,1.00000000138371,0.547739552616514
5100.00000000102,26.5864012247056,1.00000000137469,0.552817235337007
5200.00000000139,29.8915353038347,1.0000000013821,0.558880842808152
5300.00000000175,33.3909564895633,1.00000000134598,0.562886477910915
5400.00000000211,37.0721507930588,1.00000000134131,0.56774316629936
5500.00000000248,40.8272064880422,1.00000000135692,0.572154995032923
5600.00000000284,44.7846309765253,1.00000000137142,0.574614713710759
5700.00000000321,48.8044916559758,1.00000000129799,0.579061519229799
5800.00000000357,52.9125348540395,1.00000000134822,0.581395077973242
5900.00000000393,57.1437202037644,1.00000000131125,0.583836593605747
6000.0000000043,61.3613037603491,1.00000000135286,0.586840877390129
6100.00000000466,65.6837527524848,1.00000000129226,0.587857943067622
6200.00000000502,70.010448884691,1.00000000131564,0.590276607730282
6300.00000000539,74.3217912941257,1.00000000126924,0.592247269971529
6400.00000000575,78.6854185679591,1.0000000013117,0.592720888845292
6500.00000000612,82.9679105730451,1.00000000129609,0.594664219127231
6600.00000000648,87.2595314610872,1.00000000126297,0.594867578118227
6700.00000000684,91.5056577395784,1.00000000123054,0.596253383466682
6800.00000000721,95.6572200408169,1.00000000124617,0.597375889074687
6900.00000000757,99.7939107355666,1.00000000118849,0.596834429164347
7000.00000000793,103.806508329958,1.00000000120856,0.598007590635496
7100.0000000083,107.752585150861,1.00000000117642,0.598139739272227
7200.00000000866,111.614085497987,1.00000000114831,0.598377820774107
7300.00000000903,115.332482458286,1.00000000113511,0.59888919394291
7400.00000000939,118.983676934544,1.00000000110794,0.597640001424925
7500.00000000975,122.488053196235,1.00000000111325,0.598583593550823
7600.00000001012,125.876188608735,1.00000000108342,0.598443837160269
7700.00000001048,129.155104429861,1.00000000108365,0.597213323907278
7800.00000001084,132.267442135208,1.00000000105605,0.598785064843366
7900.00000001121,135.27961248807,1.00000000102615,0.596423354720561
8000.00000001157,138.1362699819,1.00000000104383,0.598002386726988
8100.00000001194,140.853970910011,1.00000000097856,0.596266945838828
8200.0000000123,143.449217704776,1.00000000097582,0.596944117903704
8300.00000001266,145.875567646075,1.00000000097413,0.595780978635408
8400.00000001303,148.184955757888,1.00000000095415,0.596082695205409
8500.00000001339,150.343650708005,1.00000000094332,0.59423079898628
8600.00000001376,152.355522877589,1.00000000095963,0.595645762599226
8700.00000001412,154.244778260057,1.00000000091815,0.592759754387063
8800.00000001448,155.971739299665,1.00000000091781,0.595075906921265
8900.00000001485,157.580790634544,1.00000000085737,0.592204584969796
9000.00000001521,159.047802650279,1.00000000086509,0.593329070947223
9100.00000001557,160.376669343713,1.00000000086068,0.592195107421034
9200.00000001594,161.587313746374,1.00000000084464,0.591782673409111
9300.0000000163,162.655219462415,1.00000000083383,0.591780509360998
9400.00000001667,163.608799270421,1.00000000082093,0.590974050087253
9500.00000001703,164.440494954048,1.00000000081385,0.591575159347772
9600.00000001739,165.145691954787,1.00000000080193,0.58961479427318
9700.00000001776,165.74751615881,1.00000000079712,0.591298942243948
9800.00000001812,166.228248752802,1.00000000076967,0.589835196242628
9900.00000001848,166.608638490249,1.00000000073989,0.588139527435999
10000.0000000188,166.887381768237,1.00000000077111,0.590835438408726
10100.0000000192,167.064949803517,1.00000000077394,0.58910906958691
10200.0000000196,167.156311455157,1.00000000073098,0.585636465578891
10300.0000000199,167.151857031063,1.00000000075069,0.59004530151838
10400.0000000203,167.074909022265,1.00000000075118,0.586929107636999
10500.0000000207,166.917270273102,1.00000000072031,0.581560566261732
10600.000000021,166.680725767179,1.00000000075507,0.588209677402611
10700.0000000214,166.39152653455,1.00000000075843,0.585954381918046
10800.0000000218,166.030333034823,1.000000000706,0.576429759874337
10900.0000000221,165.609642111786,1.00000000074009,0.58408430876538
11000.0000000225,165.143756798241,1.00000000079894,0.585363868697025
11100.0000000229,164.625971792428,1.000000000722,0.57653072373771
11200.0000000232,164.0575852262,1.00000000071932,0.572657541028638
11300.0000000236,163.444897987361,1.00000000080954,0.585317036250754
11400.0000000239,162.806419665593,1.00000000077177,0.580143825899046
11500.0000000243,162.127818058151,1.00000000066308,0.563130084014804
11600.0000000247,161.404741633215,1.00000000076749,0.576484327028976
11700.000000025,160.668650898553,1.00000000085294,0.583239522034333
11800.0000000254,159.91088841277,1.00000000076121,0.570537759056868
11900.0000000258,159.120663348659,1.00000000067745,0.555470671023225
12000.0000000261,158.303853341204,1.00000000084368,0.579173199300067
12100.0000000265,157.479109412206,1.00000000084639,0.578891981702193
12200.0000000269,156.647108513749,1.00000000075339,0.563777108847219
12300.0000000272,155.785760430272,1.00000000067941,0.550535125428607
12400.0000000276,154.908233828545,1.00000000080179,0.574873798389797
12500.0000000279,154.033045045262,1.00000000090672,0.576815618274466
12600.0000000283,153.152788583869,1.00000000076367,0.560167688186109
12700.0000000287,152.259844952186,1.00000000067646,0.54910537221546
12800.000000029,151.350060533526,1.00000000080567,0.559124380099581
12900.0000000294,150.442206808775,1.00000000088345,0.578708825208936
13000.0000000298,149.541942413939,1.00000000084446,0.559560421442875
13100.0000000301,148.634113606177,1.00000000071538,0.548471451725614
13200.0000000305,147.719279325276,1.00000000076211,0.549573458142718
13300.0000000309,146.799996893216,1.00000000083997,0.561314339466814
13400.0000000312,145.887882786646,1.0000000009185,0.573355031069632
13500.0000000316,144.984182864078,1.00000000079424,0.545628101563475
13600.0000000319,144.075737081632,1.00000000072592,0.544485283493025
13700.0000000323,143.167070849484,1.00000000077815,0.552335377062313
13800.0000000327,142.258642057906,1.00000000079969,0.554857062943556
13900.000000033,141.358119964607,1.00000000092565,0.568926011108664
14000.0000000334,140.467336984601,1.0000000008181,0.542809851316467
14100.0000000338,139.576536131464,1.00000000071827,0.536237289873285
14200.0000000341,138.688934518135,1.00000000077294,0.553938307549742
14300.0000000345,137.804426537999,1.00000000080183,0.55000593491672
14400.0000000349,136.926154486975,1.00000000082955,0.556341596741007
14500.0000000352,136.057612571994,1.00000000087115,0.551560192856404
14600.0000000356,135.194554728489,1.00000000074739,0.53106673052793
14700.0000000359,134.336293915248,1.00000000077259,0.539602646177163
14800.0000000363,133.483278941462,1.00000000081141,0.554978586306047
14900.0000000367,132.636563557793,1.00000000081878,0.549775272465257
15000.000000037,131.797730305739,1.00000000082202,0.543586481498431
15100.0000000374,130.965299563694,1.00000000086475,0.545400359749895
15200.0000000378,130.141007011908,1.00000000079834,0.531548477826922
15300.0000000381,129.323157229335,1.00000000077519,0.536597388085923
15400.0000000385,128.512227643475,1.00000000083603,0.552005753405614
15500.0000000389,127.70941975102,1.00000000083918,0.551768577595228
15600.0000000392,126.913027110525,1.00000000078391,0.539176470159677
15700.0000000396,126.124240266423,1.00000000080082,0.537765692876887
15800.0000000399,125.343232599543,1.00000000079196,0.538302566560099
15900.0000000403,124.569501269986,1.00000000082136,0.536547016392487
16000.0000000407,123.80462887571,1.00000000076039,0.540277812642293
16100.000000041,123.047347343736,1.00000000081955,0.55172501122941
16200.0000000414,122.298148491363,1.00000000078247,0.549354239189844
16300.0000000418,121.556477300322,1.00000000078898,0.536628327779047
16400.0000000418,120.822309917342,1.00000000074945,0.533928181848153
16500.0000000404,120.096412538798,1.00000000081979,0.541678693022042
16600.0000000389,119.378371581438,1.0000000008122,0.544336745310576
16700.0000000375,118.668938161051,1.00000000077732,0.538382605069029
16800.000000036,117.968069445468,1.00000000082406,0.547484630780952
16900.0000000346,117.27551983516,1.00000000081353,0.55136149372008
17000.0000000331,116.591438543243,1.00000000074699,0.540203505332567
17100.0000000317,115.915387322121,1.0000000007359,0.531805566378701
17200.0000000302,115.24761235475,1.00000000079437,0.538771509422548
17300.0000000287,114.58818863967,1.00000000077665,0.541890751601731
17400.0000000273,113.93683498651,1.00000000077561,0.547868155265029
17500.0000000258,113.293704790446,1.00000000081309,0.543299570506674
17600.0000000244,112.658566797791,1.00000000081393,0.545068686400192
17700.0000000229,112.032119232529,1.00000000078732,0.550669355938229
17800.0000000215,111.414887955941,1.00000000068825,0.538773627942875
17900.00000002,110.806940183592,1.00000000074326,0.530805735730832
18000.0000000186,110.207191730396,1.00000000085348,0.536653970971187
18100.0000000171,109.615263427776,1.00000000077076,0.535758767425747
18200.0000000156,109.031752884241,1.00000000076695,0.54360766256094
18300.0000000142,108.455499003015,1.00000000081226,0.552582618038553
18400.0000000127,107.886065872883,1.00000000080076,0.550941528017822
18500.0000000113,107.323687894287,1.00000000082252,0.547074487570454
18600.0000000098,106.769126240995,1.00000000080945,0.545525380254482
18700.0000000084,106.225073271639,1.00000000067,0.536382322558677
18800.0000000069,105.691146953155,1.00000000071781,0.53014412551742
18900.0000000055,105.166184636267,1.00000000081422,0.530595590596117
19000.000000004,104.648012896485,1.00000000078995,0.533492831394343
19100.0000000026,104.137676264779,1.00000000078605,0.534138324022838
19200.0000000011,103.634073421684,1.00000000081446,0.544183126894864
19299.9999999996,103.135587130941,1.00000000084826,0.555281998117638
19399.9999999982,102.642303429856,1.00000000082813,0.554111600255593
19499.9999999967,102.15439048018,1.00000000083948,0.547646222427217
19599.9999999953,101.673431255242,1.00000000080076,0.54154497610045
19699.9999999938,101.20323444733,1.00000000071245,0.531338859756708
19799.9999999924,100.743658403359,1.00000000072853,0.531081768902671
19899.9999999909,100.293995751438,1.0000000007429,0.523415222840442
19999.9999999895,99.8513118650811,1.00000000081558,0.527795703401909
20099.999999988,99.4149314681705,1.00000000080763,0.530148420610452
20199.9999999865,98.9846105262062,1.00000000079,0.53124154274403
20299.9999999851,98.5590638056652,1.00000000081916,0.538818318416357
20399.9999999836,98.1361215293883,1.00000000085213,0.553626428941132
20499.9999999822,97.7154787228315,1.00000000083202,0.558754045425634
20599.9999999807,97.2988131215631,1.00000000083498,0.546016262472448
20699.9999999793,96.888684408906,1.00000000076009,0.537127162859973
20799.9999999778,96.4871446556207,1.00000000077005,0.535303218063149
20899.9999999764,96.0965852154718,1.0000000007195,0.528839019891918
20999.9999999749,95.7162581850644,1.00000000075773,0.531499764409158
21099.9999999734,95.3442706925879,1.00000000076017,0.523670726565789
21199.999999972,94.9794225178337,1.00000000079203,0.524627321037307
21299.9999999705,94.6188861873481,1.00000000082277,0.526215195907373
21399.9999999691,94.2630106585486,1.00000000082417,0.531244489766834
21499.9999999676,93.910088007161,1.00000000081088,0.538776838139314
21599.9999999662,93.5581507952589,1.00000000088697,0.544225640205838
21699.9999999647,93.2063374712114,1.00000000089124,0.556446562618192
21799.9999999633,92.8554222688709,1.0000000008005,0.553111398038485
21899.9999999618,92.5093743701966,1.0000000007909,0.541712451282018
21999.9999999603,92.1701020715825,1.00000000081218,0.53776180738574
22099.9999999589,91.8393511999559,1.00000000073826,0.537648301879307
22199.9999999574,91.5186216935393,1.0000000007653,0.536770165098756
22299.999999956,91.2068961269591,1.00000000073887,0.532561831234851
22399.9999999545,90.9040799703137,1.00000000077724,0.531808044340403
22499.9999999531,90.6081784531062,1.00000000082141,0.527896207950916
22599.9999999516,90.3180201877283,1.00000000078869,0.529176120828612
22699.9999999502,90.0317560986364,1.00000000082599,0.5367848960126
22799.9999999487,89.747160460597,1.00000000080846,0.539770970687965
22899.9999999473,89.4643369712664,1.00000000082718,0.543546339121162
22999.9999999458,89.1804700408375,1.00000000089684,0.547061031319808
23099.9999999443,88.8953516047254,1.00000000086269,0.551405002160205
23199.9999999429,88.6115562621127,1.00000000080575,0.554745359331453
23299.9999999414,88.3311162510311,1.00000000080721,0.550697725845585
23399.99999994,88.0563441092336,1.00000000078462,0.544009037600769
23499.9999999385,87.7883732673223,1.00000000078393,0.545242449731088
23599.9999999371,87.5271420801571,1.00000000078678,0.54751269307759
23699.9999999356,87.2751451088118,1.00000000070321,0.543356161765248
23799.9999999342,87.0327390143733,1.0000000007379,0.536145119930269
23899.9999999327,86.7992625827149,1.00000000075934,0.536347928635588
23999.9999999312,86.5724160973567,1.00000000081274,0.538732722490179
24099.9999999298,86.3502234482963,1.00000000078093,0.536715576438797
24199.9999999283,86.1323617877452,1.00000000079501,0.543180008828037
24299.9999999269,85.9157051084447,1.00000000080084,0.546726505195799
24399.9999999254,85.6994021463808,1.00000000083326,0.550186964517916
24499.999999924,85.4831310930381,1.00000000084974,0.549667549854276
24599.9999999225,85.264803443157,1.00000000086311,0.550995983696369
24699.9999999211,85.0457870975834,1.00000000082125,0.548720054616796
24799.9999999196,84.8278614150872,1.00000000079863,0.554037427269463
24899.9999999181,84.6130906134766,1.00000000079188,0.55658637850648
24999.9999999167,84.4010085695688,1.00000000081742,0.560215969856217
25099.9999999152,84.1913141502582,1.00000000081609,0.556287354989486
25199.9999999138,83.9867309767842,1.00000000079391,0.55096349947064
25299.9999999123,83.7883583063396,1.00000000079727,0.550655201726653
25399.9999999109,83.5982344768981,1.00000000073845,0.54481883743592
25499.9999999094,83.4190001567396,1.00000000070933,0.535355643557796
25599.999999908,83.2485716788488,1.00000000077077,0.539728657811397
25699.9999999065,83.0844134819584,1.00000000079702,0.543972962019818
25799.9999999051,82.9237334746275,1.00000000080398,0.544488158920837
25899.9999999036,82.7660679543299,1.0000000008273,0.546124096926147
25999.9999999021,82.6096182234532,1.0000000008026,0.554294658936779
26099.9999999007,82.4516899484704,1.00000000085356,0.556632745236216
26199.9999998992,82.2923871995078,1.00000000085362,0.559546365832828
26299.9999998978,82.1321386235209,1.00000000082083,0.554614089195727
26399.9999998963,81.9723685818365,1.00000000082684,0.549862770778485
26499.9999998949,81.8129093051943,1.00000000084379,0.550477869185319
26599.9999998934,81.6535755379359,1.00000000081378,0.5515446897006
26699.999999892,81.4953997803046,1.00000000081681,0.562398615305277
26799.9999998905,81.3362961981472,1.00000000082779,0.571287351545963
26899.999999889,81.1770181803425,1.00000000084636,0.570237824045972
26999.9999998876,81.0183063880151,1.00000000086233,0.565936464430722
27099.9999998861,80.8619517949573,1.00000000076378,0.553889681679262
27199.9999998847,80.7118850163141,1.00000000077829,0.546134312948324
27299.9999998832,80.5691740370462,1.00000000076817,0.544891536810909
27399.9999998818,80.4352275201209,1.00000000071518,0.539350494197494
27499.9999998803,80.3113666867747,1.00000000073897,0.537948031603258
27599.9999998789,80.1935837731369,1.00000000079309,0.5454451806141
27699.9999998774,80.0811953116066,1.00000000079185,0.548124919102305
27799.9999998759,79.9709088094865,1.00000000085403,0.556000436722543
27899.9999998745,79.8608728390483,1.00000000082924,0.5566744388123
27999.999999873,79.7503947721674,1.00000000084396,0.561587060731848
28099.9999998716,79.6379480359654,1.00000000082911,0.564361959430667
28199.9999998701,79.5238123918861,1.00000000086013,0.564891201346743
28299.9999998687,79.4077195451883,1.00000000085784,0.567354429646968
28399.9999998672,79.2916448133715,1.00000000079749,0.560172197078978
28499.9999998658,79.1783395228237,1.00000000077687,0.552959108379713
28599.9999998643,79.0661247413267,1.00000000083549,0.559537609172182
28699.9999998629,78.9538033197526,1.00000000083911,0.559811153793272
28799.9999998614,78.8408204224629,1.00000000084755,0.565395051492027
28899.9999998599,78.7251760984825,1.00000000089959,0.575276534286962
