Time,AGPnorm,Energy,Entropy
0,0,1,-8.88950854808637e-18
99.9999999999986,3.28069753170445e-05,0.999999999999686,0.00129953920101337
199.999999999993,0.00286216385246053,0.999999999998385,0.00211076845418453
300,0.00713880919192969,1.00000000000077,0.0037001350613171
400.000000000022,0.00975811060986227,0.999999999998444,0.00629812941048733
500.000000000045,0.0118409009982996,0.999999999999529,0.0085704554766055
600.000000000068,0.0171855565617992,1.0000000000002,0.011781817826042
700.000000000091,0.0215584450923648,0.99999999999808,0.0151527269925621
800.000000000113,0.0271423698538212,1.00000000000071,0.0186788732430058
900.000000000136,0.0336979239761423,0.999999999998818,0.0228538644841259
1000.00000000016,0.0393529208157663,0.99999999999899,0.0270113596954706
1100.0000000001,0.047122796896942,1.00000000000067,0.0315458966262462
1200,0.0552351413346661,0.999999999997966,0.0364646160130042
1299.99999999991,0.0630771086937848,1.00000000000039,0.0414860380526203
1399.99999999982,0.0721343916155564,0.999999999999348,0.0468933594248769
1499.99999999973,0.0811377033723383,0.999999999998517,0.0525660754196109
1599.99999999964,0.0906829296786405,1.00000000000095,0.0584422904571792
1699.99999999955,0.10078475881707,0.999999999998055,0.0647656100397734
1799.99999999946,0.110426809353505,0.999999999999904,0.0713046639853775
1899.99999999937,0.121296441692099,0.99999999999995,0.0781231279507428
1999.99999999928,0.132547370408499,0.999999999998153,0.0854555341227368
2099.99999999919,0.14311317889793,1.0000000000009,0.0930239464650724
2199.99999999909,0.154106756855803,0.999999999998393,0.101085970047536
2299.999999999,0.165046473495188,0.999999999999448,0.109642911390376
2399.99999999891,0.176707153346387,1.00000000000054,0.118632651300273
2499.99999999882,0.188619113189065,0.999999999997986,0.128455517446402
2599.99999999873,0.199483674284788,1.00000000000071,0.138879229318779
2699.99999999864,0.21073381576652,0.999999999999513,0.150200786830058
2799.99999999855,0.22229187113033,1.00000000000086,0.16280199838566
2899.99999999846,0.234137323300765,1.00000000000616,0.176541245620466
2999.99999999837,0.244798112417683,1.00000000001077,0.19189580244031
3099.99999999828,0.255898434438813,1.00000000002808,0.208329119595293
3199.99999999819,0.268637209194738,1.00000000004908,0.225648432114357
3299.99999999809,0.279159539381767,1.00000000008047,0.243598627292605
3399.999999998,0.299493885598897,1.00000000012096,0.261423651514302
3499.99999999791,0.318553919514873,1.00000000016187,0.27907966406538
3599.99999999782,0.350328542990418,1.00000000021332,0.296413642937959
3699.99999999773,0.408493224345756,1.00000000028586,0.313131463663855
3799.99999999764,0.479710242811874,1.00000000032617,0.329924266133693
3899.99999999755,0.602172259762934,1.00000000039173,0.345726206657077
3999.99999999746,0.772757226399691,1.00000000044493,0.360924236638454
4099.99999999738,1.00327519791891,1.00000000048858,0.375979794682337
4199.99999999775,1.33324043605051,1.00000000055838,0.389849133957576
4299.99999999811,1.75078376833531,1.00000000062331,0.403561277501929
4399.99999999848,2.28960275342464,1.00000000063264,0.416627220952365
4499.99999999884,2.97409311883984,1.00000000069938,0.42854929702662
4599.9999999992,3.79725626148032,1.00000000075624,0.440573867442134
4699.99999999957,4.79798254453012,1.00000000077292,0.45158011681041
4799.99999999993,5.9856074973922,1.00000000082503,0.461846821785545
4900.00000000029,7.3544268632642,1.00000000084662,0.471949005734406
5000.00000000066,8.94458624665834,1.00000000086009,0.480873496589096
5100.00000000102,10.744150657584,1.00000000090852,0.489943335447157
5200.00000000139,12.7546389306146,1.00000000086755,0.49824639267155
5300.00000000175,15.0125134812748,1.00000000094325,0.50538345909936
5400.00000000211,17.4765196310471,1.00000000094985,0.512997110659012
5500.00000000248,20.1725940420106,1.00000000100736,0.519269666876226
5600.00000000284,23.1085826603266,1.00000000097011,0.525569201761604
5700.00000000321,26.2370312952321,1.00000000102192,0.531438603741078
5800.00000000357,29.6073145104388,1.00000000101192,0.536486223059481
5900.00000000393,33.1727709835783,1.00000000098421,0.542024373035066
6000.0000000043,36.9230180990085,1.00000000103497,0.546423872679958
6100.00000000466,40.8939554987541,1.00000000101405,0.550373564278998
6200.00000000502,45.0077419055733,1.0000000010341,0.554655556064354
6300.00000000539,49.3029980351134,1.00000000097192,0.558132393019157
6400.00000000575,53.7557574206146,1.00000000098967,0.561510390120667
6500.00000000612,58.3169841958104,1.00000000099626,0.564800443793107
6600.00000000648,63.0405412361737,1.00000000097271,0.567203553522658
6700.00000000684,67.8465079930637,1.0000000009944,0.570213703111921
6800.00000000721,72.7480937891525,1.0000000010013,0.572382474131852
6900.00000000757,77.7524432702768,1.00000000098142,0.574385801966976
7000.00000000793,82.786412447336,1.00000000097285,0.57672102899277
7100.0000000083,87.9047784701055,1.00000000097501,0.577810628421333
7200.00000000866,93.0472020226779,1.00000000094192,0.579746950550807
7300.00000000903,98.1994550411999,1.00000000097058,0.581238771394916
7400.00000000939,103.392024491425,1.00000000096882,0.581894659030737
7500.00000000975,108.548482947115,1.00000000091418,0.583491680898986
7600.00000001012,113.71072102001,1.00000000090435,0.584215401812129
7700.00000001048,118.845977814834,1.00000000090138,0.585146165817327
7800.00000001084,123.920004842246,1.00000000092641,0.585905614871342
7900.00000001121,128.975595378479,1.00000000090919,0.585793089601152
8000.00000001157,133.945985813363,1.00000000088354,0.586919410381264
8100.00000001194,138.857085355834,1.00000000087015,0.587234473458922
8200.0000000123,143.698441301689,1.00000000085689,0.587221622367195
8300.00000001266,148.430013665809,1.00000000084304,0.587856961002297
8400.00000001303,153.092809274805,1.00000000084704,0.587464038846994
8500.00000001339,157.639423741349,1.000000000826,0.587767197569626
8600.00000001376,162.077988472624,1.0000000008408,0.58792940827401
8700.00000001412,166.417938498575,1.00000000080029,0.587323897430799
8800.00000001448,170.615136445705,1.00000000079903,0.587790101480548
8900.00000001485,174.710932619032,1.000000000791,0.587242093330573
9000.00000001521,178.668437364527,1.00000000076721,0.586729783752618
9100.00000001557,182.490657905732,1.00000000078109,0.587410693240396
9200.00000001594,186.191993227809,1.00000000076354,0.585431425304986
9300.0000000163,189.737351006158,1.00000000077206,0.586946285739758
9400.00000001667,193.15809076751,1.00000000074674,0.585081908201746
9500.00000001703,196.433247393362,1.00000000072376,0.585782825838344
9600.00000001739,199.558753746534,1.00000000071438,0.584966184121516
9700.00000001776,202.552652572864,1.00000000070878,0.584409596265177
9800.00000001812,205.389416604007,1.00000000069361,0.584617130626307
9900.00000001848,208.089491265834,1.00000000068652,0.583563171239637
10000.0000000188,210.64701062141,1.00000000068581,0.583956173009479
10100.0000000192,213.050431916227,1.00000000070018,0.582554876410559
10200.0000000196,215.32276049609,1.0000000006822,0.583399079040403
10300.0000000199,217.445248252487,1.00000000067005,0.582353619729257
10400.0000000203,219.430200287044,1.00000000066949,0.581848772792932
10500.0000000207,221.281060901859,1.00000000065143,0.582160589593253
10600.000000021,222.985793110083,1.0000000006293,0.580305502651202
10700.0000000214,224.564216841317,1.0000000006211,0.580904019554577
10800.0000000218,226.004915757434,1.00000000063291,0.580799069961755
10900.0000000221,227.316621745912,1.00000000060664,0.578497052086488
11000.0000000225,228.50231018977,1.00000000060519,0.580138849938763
11100.0000000229,229.557574378925,1.00000000059608,0.580920009904421
11200.0000000232,230.498267994037,1.00000000057368,0.576820114579514
11300.0000000236,231.312269459199,1.00000000057575,0.578427996101577
11400.0000000239,232.01284004822,1.00000000056979,0.58069791465973
11500.0000000243,232.60690070471,1.0000000005495,0.577773189288502
11600.0000000247,233.082547509114,1.00000000054904,0.575760253960623
11700.000000025,233.457210930853,1.00000000055544,0.577821842174934
11800.0000000254,233.730222323754,1.00000000057266,0.579845174621292
11900.0000000258,233.909269593383,1.00000000054094,0.576736322048586
12000.0000000261,233.995244586684,1.00000000050844,0.570647219714061
12100.0000000265,233.981008168292,1.00000000053838,0.57683097634557
12200.0000000269,233.894636847745,1.0000000005803,0.581055645210007
12300.0000000272,233.734077385313,1.00000000054858,0.572540563643833
12400.0000000276,233.487793637053,1.00000000049651,0.56512591981419
12500.0000000279,233.164080063303,1.0000000005469,0.574385577473168
12600.0000000283,232.778726671591,1.000000000575,0.581077846301931
12700.0000000287,232.344531226946,1.000000000545,0.571596444737932
12800.000000029,231.842348568938,1.00000000048547,0.559540743091018
12900.0000000294,231.269177979449,1.00000000050183,0.565412195535948
13000.0000000298,230.652769385673,1.00000000059827,0.581459561309032
13100.0000000301,230.003220786308,1.00000000059663,0.574603091460241
13200.0000000305,229.312384735783,1.00000000049658,0.558644391459904
13300.0000000309,228.559667264257,1.00000000044619,0.549654711854259
13400.0000000312,227.759238599499,1.00000000059072,0.574042325468436
13500.0000000316,226.945772821164,1.00000000065302,0.582170725355714
13600.0000000319,226.112876712267,1.00000000055438,0.565307177670739
13700.0000000323,225.244503924946,1.00000000045458,0.545674724237036
13800.0000000327,224.324607867294,1.00000000045307,0.544517880232929
13900.000000033,223.377967994726,1.00000000066241,0.579241200763785
14000.0000000334,222.434091836029,1.00000000065463,0.579843265086477
14100.0000000338,221.483148708571,1.00000000058432,0.559288122691776
14200.0000000341,220.50450480668,1.00000000046009,0.537166590241929
14300.0000000345,219.485411880099,1.00000000045314,0.53447090719541
14400.0000000349,218.446493970687,1.00000000064347,0.573560963969052
14500.0000000352,217.417352410697,1.00000000070401,0.582510855634872
14600.0000000356,216.39471919667,1.00000000062987,0.560610736993689
14700.0000000359,215.35841229291,1.00000000046888,0.534462713392311
14800.0000000363,214.292500831765,1.00000000045031,0.523833441043977
14900.0000000367,213.203118141807,1.00000000055447,0.547954564315943
15000.000000037,212.120688967524,1.00000000072013,0.582829131482026
15100.0000000374,211.052970407328,1.00000000071434,0.573178068026038
15200.0000000378,209.991548523137,1.00000000057128,0.541977727664111
15300.0000000381,208.917418489867,1.00000000046979,0.525199174956971
15400.0000000385,207.82092697585,1.00000000045852,0.520855589294345
15500.0000000389,206.715803249086,1.00000000058475,0.547282789154469
15600.0000000392,205.619038947533,1.00000000074026,0.579839503677548
15700.0000000396,204.540826096633,1.0000000007116,0.570064352235599
15800.0000000399,203.47117849461,1.00000000058087,0.535725901000365
15900.0000000403,202.395428405667,1.00000000047583,0.523233146964584
16000.0000000407,201.309655787155,1.00000000046461,0.519974130576934
16100.000000041,200.2149728263,1.00000000054851,0.532117287474903
16200.0000000414,199.125411731092,1.00000000067907,0.563723198359206
16300.0000000418,198.052583905123,1.00000000072728,0.573100462733124
16400.0000000418,196.992541784163,1.00000000062532,0.548103587025075
16500.0000000404,195.938759959602,1.00000000053873,0.522837864914693
16600.0000000389,194.882015649715,1.00000000047459,0.519239515654204
16700.0000000375,193.821389131162,1.00000000052877,0.525820114014499
16800.000000036,192.761573047688,1.00000000055934,0.53099584120109
16900.0000000346,191.707752180352,1.00000000065327,0.550962321255938
17000.0000000331,190.667208678631,1.00000000069204,0.563006919187462
17100.0000000317,189.63961579361,1.00000000065973,0.545861813606814
17200.0000000302,188.618992186941,1.00000000057342,0.521621954276071
17300.0000000287,187.602365669627,1.00000000051173,0.519432866072416
17400.0000000273,186.587065483429,1.00000000053948,0.528163874344924
17500.0000000258,185.575869941352,1.00000000055442,0.528955530269117
17600.0000000244,184.569553011802,1.00000000058055,0.529946588299327
17700.0000000229,183.571165402285,1.00000000063252,0.5435143374509
17800.0000000215,182.583987419379,1.00000000066272,0.548924130458456
17900.00000002,181.606429625897,1.00000000063004,0.535804549083938
18000.0000000186,180.636890428215,1.00000000057566,0.522657354728394
18100.0000000171,179.674128499211,1.00000000055334,0.523598160118041
18200.0000000156,178.71717115827,1.00000000053577,0.531137516445903
18300.0000000142,177.766956951935,1.00000000054238,0.530237062066606
18400.0000000127,176.822267411982,1.00000000058014,0.52510242660555
18500.0000000113,175.885065543839,1.00000000058659,0.525827787452818
18600.0000000098,174.956484806658,1.00000000062845,0.53395452364844
18700.0000000084,174.036387215118,1.00000000061482,0.53863213623562
18800.0000000069,173.125420408772,1.0000000006014,0.534705560856682
18900.0000000055,172.222686081134,1.0000000005886,0.527243149658495
19000.000000004,171.328558875367,1.00000000059455,0.531578685251008
19100.0000000026,170.442631498516,1.00000000054634,0.535697341941893
19200.0000000011,169.564077472869,1.00000000053657,0.53137756719688
19299.9999999996,168.693306021293,1.00000000054391,0.521826909739759
19399.9999999982,167.82988658719,1.00000000054555,0.51766801814417
19499.9999999967,166.974560442635,1.0000000005741,0.522587973436717
19599.9999999953,166.127917510759,1.00000000058399,0.532950337058214
19699.9999999938,165.289369424681,1.00000000060918,0.540966545044341
19799.9999999924,164.459298408533,1.00000000059395,0.537792609578881
19899.9999999909,163.637586032596,1.00000000058673,0.534456391413371
19999.9999999895,162.824489493567,1.0000000005732,0.540288597368786
20099.999999988,162.02030278018,1.00000000054848,0.540978343731363
20199.9999999865,161.224822145839,1.00000000051679,0.528905395997459
20299.9999999851,160.438456707045,1.00000000050193,0.515959218813788
20399.9999999836,159.660844787153,1.00000000052312,0.510498697661413
20499.9999999822,158.891993823217,1.0000000005682,0.518004782655078
20599.9999999807,158.131708401636,1.00000000060537,0.525894393349428
20699.9999999793,157.379255867178,1.00000000059479,0.536242415125869
20799.9999999778,156.634347527134,1.00000000061102,0.544647166915141
20899.9999999764,155.896971268977,1.00000000057505,0.540737499352417
20999.9999999749,155.166884493999,1.00000000061498,0.542210490682951
21099.9999999734,154.444204579568,1.0000000006046,0.546504926055964
21199.999999972,153.729621874578,1.00000000057564,0.542120575763564
21299.9999999705,153.024738784366,1.00000000052062,0.528461977584303
21399.9999999691,152.330848619049,1.00000000045002,0.508818989154349
21499.9999999676,151.648126056464,1.0000000005084,0.502084004811109
21599.9999999662,150.975184997213,1.00000000056518,0.509801966132404
21699.9999999647,150.310243823869,1.00000000062217,0.520766157219798
21799.9999999633,149.652172111852,1.00000000059906,0.524791758193
21899.9999999618,149.000552230308,1.00000000060612,0.534769555475195
21999.9999999603,148.355229681751,1.0000000005697,0.543194554702423
22099.9999999589,147.715911165552,1.00000000058788,0.543919903739861
22199.9999999574,147.081932988971,1.00000000061378,0.545456580901682
22299.999999956,146.452667684565,1.00000000065824,0.552997554673035
22399.9999999545,145.829381129781,1.000000000616,0.543821761861558
22499.9999999531,145.215758446928,1.00000000051517,0.526192789923492
22599.9999999516,144.614532620584,1.00000000044397,0.511974896565815
22699.9999999502,144.026757686984,1.00000000044546,0.497033292492496
22799.9999999487,143.450903126161,1.00000000052456,0.498876850873625
22899.9999999473,142.883842682007,1.00000000059483,0.508443573844851
22999.9999999458,142.323279824024,1.00000000061184,0.520203498214776
23099.9999999443,141.767761815624,1.0000000006111,0.518304152263936
23199.9999999429,141.217475271206,1.00000000060352,0.524835847124621
23299.9999999414,140.671170322646,1.00000000060684,0.542917584992348
23399.99999994,140.12816512146,1.00000000061394,0.54708560419064
23499.9999999385,139.58831686817,1.00000000062115,0.54812836228261
23599.9999999371,139.051005355207,1.00000000064209,0.549756928468301
23699.9999999356,138.517170165961,1.00000000063333,0.548305689319497
23799.9999999342,137.989455883581,1.00000000059593,0.536347870098859
23899.9999999327,137.47148179391,1.00000000050405,0.519138207039637
23999.9999999312,136.967152619447,1.000000000477,0.507603512153958
24099.9999999298,136.476574178595,1.00000000048283,0.500682653588654
24199.9999999283,135.998319541889,1.00000000050088,0.494517569794389
24299.9999999269,135.530066955396,1.00000000057299,0.500849468349732
24399.9999999254,135.068262359059,1.00000000061325,0.510456803066763
24499.999999924,134.611006531056,1.00000000060925,0.518248372641622
24599.9999999225,134.156446737086,1.00000000061024,0.519815507596401
24699.9999999211,133.703996663622,1.00000000060995,0.52720166725547
24799.9999999196,133.252791868527,1.00000000062663,0.540200775885146
24899.9999999181,132.802293960248,1.00000000061785,0.547062630301013
24999.9999999167,132.353149644812,1.00000000061897,0.545940061600369
25099.9999999152,131.905629209513,1.0000000006218,0.543880268598622
25199.9999999138,131.460738163074,1.00000000062404,0.543708236504114
25299.9999999123,131.01999626308,1.00000000059518,0.53946074922136
25399.9999999109,130.585869368856,1.00000000056374,0.530490186991537
25499.9999999094,130.161530745693,1.00000000053552,0.519390558729424
25599.999999908,129.749175418081,1.00000000047712,0.510412149987497
25699.9999999065,129.350027414226,1.00000000049459,0.503434922328469
25799.9999999051,128.963819045584,1.00000000049835,0.497433638009529
25899.9999999036,128.588689522582,1.00000000051395,0.496892539203168
25999.9999999021,128.222088306549,1.00000000057606,0.506134565128702
26099.9999999007,127.859419871708,1.00000000059435,0.516905613721758
26199.9999998992,127.49853845085,1.00000000060729,0.522946311536284
26299.9999998978,127.137850556324,1.00000000062263,0.529329327917438
26399.9999998963,126.776255262721,1.00000000063907,0.532426951053356
26499.9999998949,126.413635658866,1.00000000060819,0.537602439387591
26599.9999998934,126.050326646171,1.00000000061581,0.542789656990933
26699.999999892,125.687525542704,1.00000000057644,0.544303448130019
26799.9999998905,125.326877623297,1.00000000060118,0.539537509303574
26899.999999889,124.969380432256,1.00000000056045,0.537304753757556
26999.9999998876,124.61504951274,1.00000000060229,0.538307813766341
27099.9999998861,124.263750526222,1.00000000060946,0.539421683381479
27199.9999998847,123.917112388589,1.00000000060411,0.534135656527921
27299.9999998832,123.578055220569,1.00000000056963,0.527140637759787
27399.9999998818,123.248461297011,1.00000000049398,0.516035703242024
27499.9999998803,122.931667577501,1.00000000046929,0.506765516763039
27599.9999998789,122.628526830797,1.00000000049446,0.502890676774993
27699.9999998774,122.337268287633,1.00000000052444,0.502041705568866
27799.9999998759,122.056138462563,1.00000000054587,0.506071809352716
27899.9999998745,121.781346138266,1.00000000056791,0.514001568106038
27999.999999873,121.51048754167,1.00000000058463,0.522557228717454
28099.9999998716,121.239245513767,1.0000000006326,0.53264793839867
28199.9999998701,120.966270221134,1.00000000060277,0.537595579409895
28299.9999998687,120.691416391649,1.00000000060552,0.538165134993341
28399.9999998672,120.414203506456,1.00000000062456,0.537402762901588
28499.9999998658,120.135225119652,1.00000000061654,0.541016746442875
28599.9999998643,119.855200871713,1.0000000006177,0.543599156372508
28699.9999998629,119.575648888457,1.00000000057445,0.544999152709723
28799.9999998614,119.298842276835,1.0000000005442,0.541407583977159
28899.9999998599,119.025410967823,1.00000000055971,0.540272705055137
