Time,AGPnorm,Energy,Entropy
0,0,1,-7.49601801892702e-17
99.9999999999986,0.000361628451522119,1.00000000000234,0.00135003344702425
199.999999999993,0.00225704743070432,1.00000000000056,0.0041077104038705
300,0.00485089464884386,0.999999999997747,0.00760383961122743
400.000000000022,0.0075020045890708,0.999999999998635,0.0118862807789848
500.000000000045,0.0105132208886461,1.00000000000158,0.017244759338856
600.000000000068,0.0147206495857196,1.0000000000017,0.0235053858012761
700.000000000091,0.019461520568072,0.999999999998789,0.0302212598314281
800.000000000113,0.0247244467067823,0.999999999997916,0.0373304226776856
900.000000000136,0.0302176946605751,1.00000000000031,0.0451869930338506
1000.00000000016,0.0362608207506907,1.000000000002,0.0538816823793321
1100.0000000001,0.0427710475421951,1.00000000000013,0.0632043333365765
1200,0.0498996698398077,0.999999999998021,0.0728934556399252
1299.99999999991,0.0570550195231298,0.999999999999134,0.0832619546952603
1399.99999999982,0.06428666395259,1.00000000000153,0.0945914225721446
1499.99999999973,0.0719832817345051,1.00000000000115,0.106890768554088
1599.99999999964,0.079960967178763,0.999999999998922,0.119928715489316
1699.99999999955,0.0879571033174447,0.999999999998763,0.133919230489209
1799.99999999946,0.0958028422435379,1.0000000000011,0.149354007745081
1899.99999999937,0.103571226267125,1.00000000000302,0.166611279836433
1999.99999999928,0.111868554259538,1.00000000000388,0.185621666829281
2099.99999999919,0.121852792480159,1.00000000000792,0.206421827359328
2199.99999999909,0.13179896166283,1.00000000001988,0.229219745387733
2299.999999999,0.141333440955044,1.00000000003933,0.253794173489871
2399.99999999891,0.159600146505272,1.00000000006226,0.279182713518534
2499.99999999882,0.203741372749037,1.0000000000903,0.304290571256243
2599.99999999873,0.280473831016449,1.00000000012715,0.328399456396827
2699.99999999864,0.39893168432992,1.00000000016926,0.351326893329857
2799.99999999855,0.600114416928838,1.00000000020705,0.372912190067823
2899.99999999846,0.94765408981076,1.00000000025228,0.39240556922096
2999.99999999837,1.47746297505159,1.00000000028177,0.40996886162322
3099.99999999828,2.20588221991905,1.000000000321,0.425982986237154
3199.99999999819,3.18313055924004,1.00000000034624,0.440778089048356
3299.99999999809,4.49345853163498,1.00000000039506,0.453751208804423
3399.999999998,6.186245182607,1.00000000041054,0.465258641214277
3499.99999999791,8.25896260148718,1.00000000042102,0.475694283342048
3599.99999999782,10.723036429826,1.00000000043834,0.485352197176969
3699.99999999773,13.6341522045517,1.00000000045431,0.493636028537284
3799.99999999764,17.028778135996,1.00000000045934,0.500561121894808
3899.99999999755,20.8838840904597,1.00000000048561,0.506971939109111
3999.99999999746,25.1604791693646,1.00000000051237,0.512991244182841
4099.99999999738,29.8635752907901,1.00000000052215,0.517631475187212
4199.99999999775,35.0093976140347,1.00000000049105,0.521557760141808
4299.99999999811,40.563578600189,1.00000000049628,0.525460033808106
4399.99999999848,46.4627821109811,1.00000000052886,0.528342837855068
4499.99999999884,52.671270414599,1.00000000050839,0.530605342478956
4599.9999999992,59.180182835533,1.00000000050102,0.532873816475272
4699.99999999957,65.9575668116317,1.0000000005064,0.534154484198602
4799.99999999993,72.9459675690892,1.00000000051143,0.535285025385893
4900.00000000029,80.0871517796891,1.00000000049944,0.536341876381613
5000.00000000066,87.3528220528675,1.00000000048461,0.536612869201478
5100.00000000102,94.7215583818282,1.00000000049499,0.537277620394925
5200.00000000139,102.147775295629,1.00000000047927,0.536941072368493
5300.00000000175,109.577889067672,1.00000000049469,0.536602645100908
5400.00000000211,116.975205223833,1.00000000048049,0.536938923570326
5500.00000000248,124.321447696293,1.00000000046329,0.536048114240027
5600.00000000284,131.589409656456,1.00000000045051,0.534411495648017
5700.00000000321,138.741906033052,1.00000000046013,0.534351739442342
5800.00000000357,145.743475318094,1.00000000045435,0.533774612171963
5900.00000000393,152.573579400052,1.00000000042703,0.531877497592906
6000.0000000043,159.218830891546,1.00000000044638,0.530355276527686
6100.00000000466,165.657592724891,1.0000000004138,0.530063847034916
6200.00000000502,171.865096294454,1.00000000041387,0.528982840161602
6300.00000000539,177.823726819593,1.00000000039403,0.526949556696968
6400.00000000575,183.526449011916,1.00000000039147,0.525285379257589
6500.00000000612,188.966765032357,1.00000000039289,0.52429492128095
6600.00000000648,194.131422404814,1.00000000039257,0.52348051982171
6700.00000000684,199.01043922455,1.00000000036966,0.52143133937328
6800.00000000721,203.598823623342,1.0000000003593,0.519515216813501
6900.00000000757,207.898767374047,1.0000000003641,0.519088929704177
7000.00000000793,211.909931378026,1.00000000033248,0.519075688904219
7100.0000000083,215.631092676033,1.0000000003349,0.516914321432081
7200.00000000866,219.056763204317,1.00000000033649,0.512625818696427
7300.00000000903,222.189058240132,1.00000000032104,0.510905346262768
7400.00000000939,225.039198836563,1.00000000032529,0.513986970652302
7500.00000000975,227.618316086159,1.00000000033487,0.517273165352342
7600.00000001012,229.93308345263,1.00000000032099,0.515336463294589
7700.00000001048,231.978237900074,1.00000000030187,0.5062036355944
7800.00000001084,233.745204214007,1.00000000029884,0.498254781816795
7900.00000001121,235.239859731863,1.00000000028337,0.502513770324413
8000.00000001157,236.492191804004,1.00000000030042,0.515264472371858
8100.00000001194,237.539063864034,1.00000000030491,0.523902756549896
8200.0000000123,238.396007607228,1.00000000031086,0.5182933807378
8300.00000001266,239.043380687749,1.00000000027725,0.498678399537096
8400.00000001303,239.445610437872,1.00000000023496,0.480819697808516
8500.00000001339,239.597256877972,1.00000000023934,0.484389310343214
8600.00000001376,239.545646493371,1.00000000027699,0.508612220740974
8700.00000001412,239.365226878876,1.00000000031034,0.531503185746643
8800.00000001448,239.10471449758,1.00000000032739,0.536584741121049
8900.00000001485,238.759082176828,1.00000000031536,0.518323986681278
9000.00000001521,238.271058975971,1.00000000024878,0.481845897048493
9100.00000001557,237.580450577611,1.00000000018517,0.451146362229319
9200.00000001594,236.684448866321,1.00000000019398,0.459673222819992
9300.0000000163,235.64617830177,1.00000000026333,0.498307397979794
9400.00000001667,234.556228496383,1.00000000034778,0.532628705372455
9500.00000001703,233.478467467098,1.00000000038593,0.548426995251486
9600.00000001739,232.424153189193,1.00000000036515,0.540537035944523
9700.00000001776,231.351138786447,1.00000000029407,0.504515374200158
9800.00000001812,230.182625070867,1.00000000019989,0.449876431621377
9900.00000001848,228.85992840186,1.00000000013408,0.409153894318715
10000.0000000188,227.386735439776,1.00000000015534,0.420891958097687
10100.0000000192,225.82503092838,1.0000000002422,0.473485484409087
10200.0000000196,224.252081763709,1.00000000034545,0.52086916089577
10300.0000000199,222.727221779485,1.00000000040949,0.545911516979233
10400.0000000203,221.276127434001,1.00000000041724,0.552032165630574
10500.0000000207,219.885988138196,1.00000000038231,0.537102126058959
10600.000000021,218.51117529725,1.00000000030927,0.492627263039651
10700.0000000214,217.086992950701,1.00000000021071,0.425785633166819
10800.0000000218,215.565652597842,1.00000000012518,0.368508287958392
10900.0000000221,213.944550022884,1.00000000011822,0.362921529279073
11000.0000000225,212.261256341337,1.00000000019866,0.413775597643649
11100.0000000229,210.566393368461,1.00000000030294,0.477788343516426
11200.0000000232,208.903192158378,1.00000000038213,0.521269463927657
11300.0000000236,207.300549363306,1.00000000043171,0.541142119475204
11400.0000000239,205.770724033181,1.00000000045517,0.546950757902866
11500.0000000243,204.308497676111,1.00000000041749,0.540318744213361
11600.0000000247,202.890036642176,1.00000000036104,0.512648581686308
11700.000000025,201.477873696729,1.0000000002837,0.459367585202222
11800.0000000254,200.034329184849,1.00000000019145,0.39090394084844
11900.0000000258,198.5394474221,1.00000000012115,0.336734612382679
12000.0000000261,196.99887451693,1.00000000011349,0.327599791496547
12100.0000000265,195.435818689276,1.00000000016784,0.367944683563851
12200.0000000269,193.875553344419,1.00000000025378,0.430794454615922
12300.0000000272,192.335032556776,1.00000000035185,0.48376458238398
12400.0000000276,190.825457450365,1.00000000038913,0.513662567645119
12500.0000000279,189.356536998835,1.00000000042888,0.52613407567134
12600.0000000283,187.934998293939,1.00000000044757,0.53255584374677
12700.0000000287,186.560488159681,1.00000000043363,0.534385133891253
12800.000000029,185.224525557328,1.0000000003756,0.524085341470224
12900.0000000294,183.912120267712,1.00000000031878,0.495164543785495
13000.0000000298,182.605987417869,1.00000000026452,0.449388777933313
13100.0000000301,181.293329980594,1.00000000021395,0.397248209092406
13200.0000000305,179.971104163058,1.00000000016931,0.352974210325426
13300.0000000309,178.646381006917,1.00000000014645,0.331459531445854
13400.0000000312,177.330728369305,1.00000000015146,0.34204573803738
13500.0000000316,176.033454593228,1.00000000019158,0.375504179961221
13600.0000000319,174.757740689295,1.00000000025237,0.423379516607304
13700.0000000323,173.500814285321,1.00000000030104,0.470513944304265
13800.0000000327,172.25889591399,1.00000000033777,0.499142783466163
13900.000000033,171.030866092274,1.00000000036071,0.505514523566997
14000.0000000334,169.817862340691,1.00000000037969,0.502889895686004
14100.0000000338,168.62174626119,1.00000000039163,0.506134303079603
14200.0000000341,167.444654102237,1.00000000040077,0.519820989719426
14300.0000000345,166.288164786121,1.00000000039664,0.531461911712229
14400.0000000349,165.151501348707,1.00000000035226,0.526319416707423
14500.0000000352,164.030940547293,1.00000000030582,0.500621664811968
14600.0000000356,162.922280077799,1.00000000024003,0.459756485602354
14700.0000000359,161.824953185517,1.00000000018638,0.414952131125591
14800.0000000363,160.743794069612,1.0000000001721,0.377554813372151
14900.0000000367,159.686681311162,1.00000000017639,0.355177314099878
15000.000000037,158.660822489519,1.0000000001908,0.350701483818601
15100.0000000374,157.670342089485,1.00000000020464,0.366658123770235
15200.0000000378,156.714692217511,1.0000000002266,0.393800602383709
15300.0000000381,155.78752842859,1.00000000025562,0.42057603242325
15400.0000000385,154.878999142524,1.00000000029273,0.44803102555385
15500.0000000389,153.979317594289,1.00000000032235,0.476866674609869
15600.0000000392,153.083326329951,1.00000000032394,0.499851074223368
15700.0000000396,152.191389572897,1.00000000030396,0.503341126095066
15800.0000000399,151.306763665159,1.00000000027737,0.489857809914523
15900.0000000403,150.43039236073,1.00000000028261,0.474847917251996
16000.0000000407,149.558464352672,1.00000000032193,0.473493472521217
16100.000000041,148.685127863858,1.00000000037105,0.488226698689003
16200.0000000414,147.807771668193,1.00000000040733,0.511382772679325
16300.0000000418,146.928166322533,1.0000000004049,0.53074257144089
16400.0000000418,146.050760417392,1.00000000041718,0.536339990859358
16500.0000000404,145.180031753597,1.00000000035825,0.524874248724643
16600.0000000389,144.320161947932,1.00000000028843,0.497835826135873
16700.0000000375,143.476696581646,1.00000000023909,0.458913913289842
16800.000000036,142.65802654378,1.00000000017213,0.416634599662833
16900.0000000346,141.875404007416,1.0000000001415,0.381745984555362
17000.0000000331,141.137779130514,1.00000000015462,0.358769322757121
17100.0000000317,140.447615914723,1.00000000018201,0.353054805977606
17200.0000000302,139.80010008498,1.00000000022327,0.361774461577684
17300.0000000287,139.188182944242,1.00000000025452,0.380606131178844
17400.0000000273,138.604231293939,1.00000000027025,0.405731724889378
17500.0000000258,138.0410826632,1.00000000029051,0.431527708761391
17600.0000000244,137.489255009568,1.00000000031106,0.453001728087881
17700.0000000229,136.939702164489,1.00000000032137,0.46910254354166
17800.0000000215,136.385287374144,1.00000000034718,0.482349446011546
17900.00000002,135.822073282006,1.00000000034739,0.494010863161056
18000.0000000186,135.251442360551,1.0000000003056,0.502426579661965
18100.0000000171,134.679022071451,1.00000000027908,0.502239707754862
18200.0000000156,134.112456340898,1.00000000024693,0.494561028956049
18300.0000000142,133.557217535612,1.00000000023705,0.48240884046953
18400.0000000127,133.013275636543,1.00000000024158,0.471498801582786
18500.0000000113,132.474031326373,1.00000000027962,0.466463970298811
18600.0000000098,131.929678967911,1.00000000032932,0.469484706515181
18700.0000000084,131.370891212766,1.00000000035536,0.480511435871777
18800.0000000069,130.792739565994,1.00000000039684,0.494174878849155
18900.0000000055,130.19559762335,1.00000000041597,0.509807085992597
19000.000000004,129.583875318863,1.0000000004156,0.525214997316861
19100.0000000026,128.964042249927,1.0000000003765,0.533447474982001
19200.0000000011,128.343020501243,1.00000000035473,0.530374307873675
19299.9999999996,127.7275698259,1.00000000030226,0.515576625429073
19399.9999999982,127.125291403448,1.00000000026949,0.48948789392815
19499.9999999967,126.544816388582,1.0000000002165,0.457347408170362
19599.9999999953,125.9950020504,1.00000000018034,0.427274667104531
19699.9999999938,125.485389157094,1.00000000017031,0.404765749198807
19799.9999999924,125.023721134138,1.00000000016669,0.387184097984411
19899.9999999909,124.614766241706,1.00000000016885,0.373537181136332
19999.9999999895,124.258780957718,1.00000000018544,0.367915117422826
20099.999999988,123.950656573053,1.000000000216,0.371084976815764
20199.9999999865,123.678844621748,1.00000000024464,0.387983413519711
20299.9999999851,123.428427020761,1.00000000028873,0.413027749604428
20399.9999999836,123.188138535683,1.0000000003018,0.435956260760647
20499.9999999822,122.951132042192,1.00000000031626,0.453452547048419
20599.9999999807,122.71560850662,1.00000000030011,0.465373413214085
20699.9999999793,122.483558453294,1.00000000028981,0.472024956296039
20799.9999999778,122.255581599717,1.0000000002651,0.475263221881603
20899.9999999764,122.030103666302,1.00000000027327,0.477838739418426
20999.9999999749,121.803309432663,1.00000000028727,0.483074529792311
21099.9999999734,121.568151584928,1.00000000030964,0.492145414938578
21199.999999972,121.316863866191,1.00000000033047,0.503447683907857
21299.9999999705,121.045498079488,1.00000000035006,0.514608894883907
21399.9999999691,120.753803328101,1.00000000034313,0.523126740907443
21499.9999999676,120.445352596566,1.00000000032377,0.527111886647759
21599.9999999662,120.126898948399,1.00000000029161,0.524907039802288
21699.9999999647,119.806090047918,1.00000000026201,0.518523630143157
21799.9999999633,119.4887124803,1.00000000025005,0.509855890965915
21899.9999999618,119.176623784647,1.00000000024327,0.502067786049828
21999.9999999603,118.868917961962,1.00000000024693,0.497472167334554
22099.9999999589,118.562291439158,1.00000000026289,0.492049449167231
22199.9999999574,118.253282341436,1.00000000027151,0.485002476442908
22299.999999956,117.93869581028,1.00000000029489,0.481261345129404
22399.9999999545,117.614774546695,1.00000000032003,0.483163472462083
22499.9999999531,117.276987193524,1.00000000035861,0.490480408886008
22599.9999999516,116.921069386837,1.00000000036845,0.503222283674056
22699.9999999502,116.545172544301,1.00000000039719,0.518195622610118
22799.9999999487,116.150668536712,1.00000000040336,0.531189432121072
22899.9999999473,115.742171971903,1.00000000039001,0.539053786966561
22999.9999999458,115.325663620759,1.00000000036423,0.540116801671253
23099.9999999443,114.908004906702,1.00000000032122,0.533284327672799
23199.9999999429,114.496476444016,1.00000000029495,0.517237695431705
23299.9999999414,114.098946007604,1.00000000026285,0.494345116217017
23399.99999994,113.724199661234,1.00000000022059,0.470256261008171
23499.9999999385,113.381718110706,1.00000000018492,0.446076253341912
23599.9999999371,113.080678330913,1.00000000016648,0.424247038121062
23699.9999999356,112.827710559791,1.00000000016104,0.408348639306327
23799.9999999342,112.625922584175,1.00000000017123,0.396748240311261
23899.9999999327,112.474516332689,1.00000000019302,0.388110943284227
23999.9999999312,112.369159159552,1.00000000020914,0.386224414912387
24099.9999999298,112.304506492527,1.0000000002241,0.388225762931221
24199.9999999283,112.274269731104,1.00000000024651,0.393469385592632
24299.9999999269,112.271367799354,1.00000000025087,0.401644693273091
24399.9999999254,112.287346278765,1.00000000027704,0.411938361346676
24499.999999924,112.31285085774,1.00000000028977,0.426257232545727
24599.9999999225,112.338935967872,1.0000000003202,0.442903975235563
24699.9999999211,112.358413121808,1.00000000031312,0.45781697941688
24799.9999999196,112.367697021374,1.00000000032734,0.468933833741697
24899.9999999181,112.366149714923,1.0000000003135,0.477975773367017
24999.9999999167,112.355370743258,1.00000000031023,0.48732796220433
25099.9999999152,112.337971600753,1.00000000029943,0.496928871278758
25199.9999999138,112.317410034756,1.00000000028532,0.504163616767492
25299.9999999123,112.297422805812,1.00000000027433,0.506633365579567
25399.9999999109,112.280773698958,1.0000000002606,0.506908635228576
25499.9999999094,112.268167764085,1.00000000025696,0.507344950224066
25599.999999908,112.25708001137,1.0000000002637,0.508125512569484
25699.9999999065,112.242374474112,1.00000000027951,0.511117035915395
25799.9999999051,112.217453029451,1.00000000030557,0.515155677477762
25899.9999999036,112.17612631853,1.00000000031218,0.518776751951444
25999.9999999021,112.114502046876,1.00000000032348,0.521863969265182
26099.9999999007,112.031149279977,1.0000000003177,0.521885695163498
26199.9999998992,111.926635420516,1.00000000031744,0.518864166243512
26299.9999998978,111.802053045318,1.00000000033315,0.513400508659855
26399.9999998963,111.657954852566,1.00000000031483,0.509666971022345
26499.9999998949,111.495204883725,1.00000000031703,0.514256982344377
26599.9999998934,111.316561406699,1.00000000033034,0.524423544329729
26699.999999892,111.126411664761,1.00000000031972,0.529616593821982
26799.9999998905,110.930317452882,1.0000000002963,0.526540103304236
26899.999999889,110.733776107156,1.00000000026804,0.519206449704542
26999.9999998876,110.540868759395,1.00000000025212,0.512901107175397
27099.9999998861,110.353984291123,1.00000000024198,0.510688792994051
27199.9999998847,110.173899612756,1.00000000024111,0.511095250875107
27299.9999998832,110.000264953672,1.00000000024522,0.512755449497425
27399.9999998818,109.831066073982,1.00000000025702,0.515277824779483
27499.9999998803,109.663048145884,1.00000000025691,0.517462692397496
27599.9999998789,109.492743478841,1.00000000026882,0.518134714581861
27699.9999998774,109.317117924056,1.00000000027787,0.518912224064402
27799.9999998759,109.134098185257,1.00000000029724,0.519175024723885
27899.9999998745,108.941908874207,1.00000000030779,0.517014870309597
27999.999999873,108.738932852245,1.00000000031559,0.513938964543965
28099.9999998716,108.523890724368,1.0000000003348,0.511043196809606
28199.9999998701,108.295598698455,1.0000000003645,0.510201894646178
28299.9999998687,108.052904676756,1.00000000039076,0.512868433574092
28399.9999998672,107.794970145944,1.00000000040503,0.519770805380795
28499.9999998658,107.522431932482,1.00000000038409,0.52777716300685
28599.9999998643,107.237862283771,1.00000000037991,0.534479987174982
28699.9999998629,106.945170417311,1.00000000037352,0.537963273534274
28799.9999998614,106.648907808829,1.00000000034091,0.538479920290608
28899.9999998599,106.353861232378,1.00000000032638,0.534261012022801
28999.9999998585,106.065105664612,1.0000000002881,0.523602450629406
