Time,AGPnorm,Energy,Entropy
0,0,1,-1.3274198575183e-17
99.9999999999986,2.59563231987923e-05,1.00000000000066,0.00109730289786855
199.999999999993,0.00219348474985275,1.00000000000162,0.00170207352498271
300,0.00558242102801546,0.999999999999558,0.00302929821103611
400.000000000022,0.007679284121859,1.00000000000177,0.00517746466852451
500.000000000045,0.00933442414429075,1.00000000000036,0.0068871810427258
600.000000000068,0.0135340355065957,1.00000000000032,0.00965787636266817
700.000000000091,0.0166796733927001,1.00000000000177,0.012285875786621
800.000000000113,0.021184632031721,0.999999999999663,0.015144645313456
900.000000000136,0.0262744587681884,1.00000000000146,0.0186685429928655
1000.00000000016,0.0307303900494676,1.00000000000069,0.0218354974688686
1100.0000000001,0.0371876993203098,1.00000000000011,0.0256889266736557
1200,0.0434518854657212,1.0000000000018,0.0296005779672289
1299.99999999991,0.0497965645590697,0.999999999999829,0.0335694967470621
1399.99999999982,0.056801991647205,1.00000000000116,0.0381375306638762
1499.99999999973,0.0636835213439316,1.00000000000101,0.0424700759695191
1599.99999999964,0.0718335367041031,1,0.0473081320189064
1699.99999999955,0.0801399700391272,1.00000000000167,0.052354066070599
1799.99999999946,0.0882497640503627,1.00000000000003,0.0573697924039264
1899.99999999937,0.0969814395830146,1.0000000000009,0.0629705860403863
1999.99999999928,0.105682853113483,1.00000000000126,0.0684946236443454
2099.99999999919,0.114720711149368,0.999999999999976,0.0744231933663436
2199.99999999909,0.124070240645089,1.0000000000015,0.0807067847427628
2299.999999999,0.133500635551686,1.00000000000026,0.0869695388725408
2399.99999999891,0.14344702138305,1.00000000000068,0.0938757593649808
2499.99999999882,0.153298302772629,1.00000000000136,0.100895349812542
2599.99999999873,0.162796965532131,1.00000000000001,0.108302963271322
2699.99999999864,0.172575604522685,1.00000000000142,0.116289478261155
2799.99999999855,0.182693613507666,1.00000000000059,0.124429815479257
2899.99999999846,0.192988805956511,1.00000000000058,0.133426669967253
2999.99999999837,0.203099664410298,1.00000000000145,0.14294134672708
3099.99999999828,0.212814409141997,1.00000000000072,0.153073690175923
3199.99999999819,0.222811382623766,1.00000000000305,0.164389564894293
3299.99999999809,0.232699509569855,1.0000000000053,0.176395954494461
3399.999999998,0.243346661784207,1.0000000000097,0.18971380367847
3499.99999999791,0.252267938940606,1.00000000001897,0.204029836195353
3599.99999999782,0.262530242754955,1.00000000003262,0.218832981061308
3699.99999999773,0.275763536001364,1.00000000005257,0.23452122031296
3799.99999999764,0.285202834560465,1.00000000007622,0.250029277749658
3899.99999999755,0.30715710793867,1.00000000010358,0.265613730565393
3999.99999999746,0.328918959707281,1.00000000014028,0.28106179480212
4099.99999999738,0.36320686221771,1.00000000017659,0.295930178018121
4199.99999999775,0.426085758941172,1.00000000020257,0.310944672159151
4299.99999999811,0.496482506038356,1.00000000025131,0.32526343545145
4399.99999999848,0.620725139377844,1.00000000028102,0.339104192198917
4499.99999999884,0.784544422918032,1.00000000032412,0.352691416958282
4599.9999999992,1.00102969392192,1.00000000036826,0.36559518174216
4699.99999999957,1.31330004626194,1.00000000039441,0.378301584993851
4799.99999999993,1.6882802492329,1.00000000046245,0.390373044724789
4900.00000000029,2.18595764814099,1.00000000048182,0.401890689089114
5000.00000000066,2.80362205628437,1.00000000049372,0.413235880574325
5100.00000000102,3.53950219003089,1.00000000054101,0.423853923254333
5200.00000000139,4.45354582834968,1.00000000056849,0.434016566405506
5300.00000000175,5.50900803740477,1.00000000059084,0.443765826421967
5400.00000000211,6.75286897431045,1.00000000062384,0.452837721369724
5500.00000000248,8.19501255635762,1.00000000062164,0.461848561598085
5600.00000000284,9.81673475175091,1.00000000064206,0.470236672759609
5700.00000000321,11.6730036144714,1.0000000006694,0.478059646847167
5800.00000000357,13.7306803808205,1.00000000068994,0.485567163457995
5900.00000000393,16.0131284416734,1.00000000070257,0.492522459452785
6000.0000000043,18.5343192773004,1.00000000071912,0.499194603452957
6100.00000000466,21.2661162612564,1.00000000076497,0.505262909275616
6200.00000000502,24.2449056544521,1.00000000076409,0.511206060686919
6300.00000000539,27.4426557098399,1.00000000076843,0.516866964690386
6400.00000000575,30.8648222689929,1.00000000074131,0.522132113047242
6500.00000000612,34.5190315438588,1.00000000076152,0.526993979052473
6600.00000000648,38.376654637797,1.00000000075385,0.531445852511459
6700.00000000684,42.454461881689,1.00000000079773,0.535610866313396
6800.00000000721,46.7271077553455,1.00000000079836,0.539710987228114
6900.00000000757,51.1919124763223,1.00000000080255,0.543349342146922
7000.00000000793,55.8467604122629,1.00000000078464,0.546946103142645
7100.0000000083,60.6649926542551,1.00000000076863,0.550010714684672
7200.00000000866,65.6522813438856,1.00000000082381,0.552767589337994
7300.00000000903,70.7820097294592,1.00000000078285,0.55586564729822
7400.00000000939,76.0504788976323,1.00000000079228,0.558220395877618
7500.00000000975,81.4482915731723,1.00000000078061,0.560627015238196
7600.00000001012,86.9502601096493,1.00000000076049,0.562902655370524
7700.00000001048,92.5596325446698,1.00000000077247,0.5648148156306
7800.00000001084,98.2473302064392,1.00000000076684,0.566733818494084
7900.00000001121,104.010416715857,1.0000000007782,0.568073797796639
8000.00000001157,109.838732685861,1.00000000074347,0.569789157599949
8100.00000001194,115.705195972121,1.00000000075809,0.57126823902012
8200.0000000123,121.616364214722,1.00000000075104,0.572349923306671
8300.00000001266,127.543180905188,1.00000000073966,0.57359585641929
8400.00000001303,133.482063446379,1.00000000073978,0.57444962723073
8500.00000001339,139.426336813602,1.00000000074311,0.575465183835195
8600.00000001376,145.348056094075,1.00000000070772,0.576441524506124
8700.00000001412,151.257713444585,1.00000000071435,0.576686720697779
8800.00000001448,157.128300118333,1.00000000069848,0.577619188997509
8900.00000001485,162.955733769694,1.00000000068116,0.577884301868471
9000.00000001521,168.737808287659,1.00000000071415,0.578185502876723
9100.00000001557,174.447563682099,1.0000000006821,0.578763978619371
9200.00000001594,180.095786289997,1.0000000006859,0.578713196794703
9300.0000000163,185.664061618321,1.00000000068416,0.578944146613781
9400.00000001667,191.142614612959,1.00000000066757,0.579122874081174
9500.00000001703,196.538762437008,1.0000000006578,0.579217243519552
9600.00000001739,201.823015217769,1.00000000063551,0.579170415055176
9700.00000001776,207.010667121222,1.00000000067318,0.579347306929898
9800.00000001812,212.086616874887,1.00000000063306,0.578569024875806
9900.00000001848,217.040702236086,1.00000000065319,0.579300656825918
10000.0000000188,221.885095440087,1.00000000060733,0.578550513225921
10100.0000000192,226.59248479055,1.00000000061457,0.578358164155228
10200.0000000196,231.177690368231,1.00000000059753,0.579094391838088
10300.0000000199,235.632894573352,1.00000000059284,0.577554478926697
10400.0000000203,239.945529467668,1.000000000602,0.578608042030292
10500.0000000207,244.131084225527,1.00000000061204,0.577918772320815
10600.000000021,248.167674821752,1.00000000059052,0.576979693423304
10700.0000000214,252.066488557152,1.00000000058454,0.577957740912702
10800.0000000218,255.826956457332,1.00000000058475,0.576576385400432
10900.0000000221,259.43511719735,1.00000000058089,0.576169660439309
11000.0000000225,262.906201846102,1.00000000054232,0.57658903065695
11100.0000000229,266.226636174434,1.00000000054783,0.57549094928701
11200.0000000232,269.401264021349,1.0000000005443,0.574931984183652
11300.0000000236,272.434542314572,1.00000000055594,0.575247519986262
11400.0000000239,275.316175042919,1.0000000005371,0.574088075628667
11500.0000000243,278.057025896746,1.00000000053627,0.573516701563244
11600.0000000247,280.650421781422,1.00000000051485,0.573858593050539
11700.000000025,283.101066595032,1.00000000049335,0.572938615867601
11800.0000000254,285.412069491309,1.00000000050107,0.57241578265633
11900.0000000258,287.576426218509,1.00000000049854,0.572772130280925
12000.0000000261,289.60629939462,1.000000000494,0.571854076996642
12100.0000000265,291.495684695788,1.00000000049744,0.571972782741848
12200.0000000269,293.248915975449,1.00000000048569,0.570841141071596
12300.0000000272,294.871751477822,1.00000000047761,0.569889040215041
12400.0000000276,296.356514114399,1.00000000047842,0.571140169500207
12500.0000000279,297.717370512956,1.00000000047025,0.571171687903059
12600.0000000283,298.950948016735,1.00000000044649,0.569100237074728
12700.0000000287,300.056782007625,1.0000000004571,0.568280607431474
12800.000000029,301.043007647418,1.00000000045756,0.569985566561713
12900.0000000294,301.907672910838,1.00000000044262,0.571663511476575
13000.0000000298,302.662821031889,1.00000000043359,0.568723977155009
13100.0000000301,303.303609388702,1.00000000041643,0.564932419284774
13200.0000000305,303.826917697498,1.00000000041923,0.566910772695187
13300.0000000309,304.248110425782,1.00000000043978,0.572297465904622
13400.0000000312,304.571232547064,1.00000000043039,0.571355682947725
13500.0000000316,304.800192811971,1.00000000042423,0.563968152322585
13600.0000000319,304.925744493018,1.00000000038819,0.560297981199682
13700.0000000323,304.950836917986,1.00000000040885,0.567280014219125
13800.0000000327,304.897762639801,1.00000000046152,0.574538632539062
13900.000000033,304.772552259413,1.00000000044127,0.569700391056568
14000.0000000334,304.569090861372,1.00000000038875,0.558358743563248
14100.0000000338,304.275736186225,1.0000000003729,0.554076813634771
14200.0000000341,303.898556507146,1.00000000041541,0.565867123693895
14300.0000000345,303.46792076781,1.00000000047468,0.577222480480687
14400.0000000349,302.989717467311,1.00000000044711,0.568445408150634
14500.0000000352,302.45349419714,1.00000000039881,0.553811647080482
14600.0000000356,301.840424596739,1.00000000034552,0.545488311603366
14700.0000000359,301.155141461207,1.0000000003924,0.558251672366769
14800.0000000363,300.430315513258,1.00000000048933,0.577619662407967
14900.0000000367,299.681211636266,1.00000000049702,0.573335153234361
15000.000000037,298.900676191357,1.00000000042004,0.555577657957811
15100.0000000374,298.062351940616,1.00000000033085,0.537510952200893
15200.0000000378,297.158244209868,1.00000000034954,0.5403534195245
15300.0000000381,296.211562302453,1.00000000044172,0.566306540855726
15400.0000000385,295.253802746951,1.00000000051263,0.581312267397804
15500.0000000389,294.291532838587,1.00000000048782,0.567615339802134
15600.0000000392,293.306795848888,1.00000000039708,0.542577827022418
15700.0000000396,292.269718365186,1.00000000031237,0.523349397224962
15800.0000000399,291.18037042915,1.00000000035744,0.532812592030828
15900.0000000403,290.063497065621,1.00000000047686,0.566739544541526
16000.0000000407,288.952865427551,1.00000000056979,0.584293829092052
16100.000000041,287.853783866814,1.00000000052104,0.56668510100039
16200.0000000414,286.741626751345,1.00000000041265,0.536479300684759
16300.0000000418,285.593833738448,1.00000000031182,0.513628889367209
16400.0000000418,284.39979149486,1.0000000003292,0.516738267222349
16500.0000000404,283.181548509745,1.00000000044868,0.551549068747535
16600.0000000389,281.9705898304,1.00000000059197,0.581832687796486
16700.0000000375,280.77959973581,1.00000000057004,0.577211912776711
16800.000000036,279.599204448828,1.00000000047741,0.547630630508562
16900.0000000346,278.402965052504,1.00000000034082,0.515725622297839
17000.0000000331,277.174293756221,1.00000000029322,0.50209826594731
17100.0000000317,275.915073964465,1.00000000034284,0.515737763032604
17200.0000000302,274.645600149905,1.00000000048903,0.555507037251477
17300.0000000287,273.393010129859,1.00000000061344,0.582127805927077
17400.0000000273,272.164503894807,1.00000000058059,0.574308108948114
17500.0000000258,270.948566045732,1.00000000049028,0.542782341796531
17600.0000000244,269.726678010454,1.00000000035178,0.509739273908751
17700.0000000229,268.481935509987,1.00000000031362,0.496386675017028
17800.0000000215,267.216628011596,1.00000000034638,0.505727103280897
17900.00000002,265.941753494604,1.00000000043941,0.535269371049422
18000.0000000186,264.67672264301,1.00000000054811,0.569393189272563
18100.0000000171,263.434746215073,1.00000000059593,0.577718272607784
18200.0000000156,262.212735761952,1.00000000053221,0.557509971293817
18300.0000000142,260.998646777169,1.00000000043314,0.523058066552149
18400.0000000127,259.778410370013,1.00000000035124,0.499433844653508
18500.0000000113,258.545084552312,1.00000000033289,0.496393256634008
18600.0000000098,257.301733475967,1.00000000036214,0.507031791305166
18700.0000000084,256.055497404674,1.00000000045394,0.529707649455403
18800.0000000069,254.819634544824,1.0000000005412,0.558034939512095
18900.0000000055,253.602773714301,1.00000000059749,0.569195617214178
19000.000000004,252.403548512246,1.0000000005694,0.554824771577071
19100.0000000026,251.216328549089,1.00000000047352,0.528240693919498
19200.0000000011,250.031107215781,1.00000000039908,0.504887864405645
19299.9999999996,248.843299559662,1.00000000035222,0.496964215458647
19399.9999999982,247.651244107249,1.00000000035816,0.50181044074133
19499.9999999967,246.457554379302,1.00000000039969,0.513160806477739
19599.9999999953,245.268926090719,1.00000000045853,0.529011809079457
19699.9999999938,244.090578060662,1.00000000053266,0.545962850837365
19799.9999999924,242.926368859251,1.0000000005584,0.554399083771336
19899.9999999909,241.776831177967,1.00000000053947,0.546484097452947
19999.9999999895,240.637694426623,1.00000000049555,0.528183431719559
20099.999999988,239.505466886321,1.00000000043357,0.510401817991629
20199.9999999865,238.376148506316,1.0000000003839,0.501725656806174
20299.9999999851,237.249392102096,1.00000000037818,0.504610775117532
20399.9999999836,236.125809197792,1.00000000040028,0.510967617543162
20499.9999999822,235.00657327056,1.00000000043216,0.516797045309647
20599.9999999807,233.894881647758,1.00000000045449,0.523138317587783
20699.9999999793,232.792609804246,1.00000000047811,0.532354713213689
20799.9999999778,231.700956122137,1.00000000053107,0.540752758666672
20899.9999999764,230.620874179838,1.00000000050572,0.538764268494756
20999.9999999749,229.550071326239,1.00000000047647,0.528887069062423
21099.9999999734,228.487663004614,1.0000000004426,0.518879321623912
21199.999999972,227.432214278513,1.00000000041375,0.51181558369395
21299.9999999705,226.383483656567,1.00000000041257,0.512208106609618
21399.9999999691,225.341620830939,1.0000000003964,0.514443773739367
21499.9999999676,224.305926972923,1.00000000039967,0.513266590168458
21599.9999999662,223.27763482732,1.00000000040677,0.513309565552971
21699.9999999647,222.256985028783,1.00000000043213,0.515891157380146
21799.9999999633,221.244844970477,1.00000000046418,0.521984481420706
21899.9999999618,220.242098514619,1.0000000004885,0.527153815270358
21999.9999999603,219.248216393287,1.00000000049349,0.534599202099441
22099.9999999589,218.262955565714,1.00000000046633,0.53273308776547
22199.9999999574,217.286253248202,1.00000000045425,0.526880174175607
22299.999999956,216.317619103119,1.00000000043929,0.522731233212891
22399.9999999545,215.357591461346,1.00000000042831,0.524766368638512
22499.9999999531,214.40594910262,1.00000000041754,0.522762064524787
22599.9999999516,213.463307146927,1.00000000040631,0.519254699140797
22699.9999999502,212.52898260317,1.00000000039654,0.512084975551152
22799.9999999487,211.603247525049,1.00000000038392,0.506017483642536
22899.9999999473,210.686465082839,1.00000000041065,0.506096841176629
22999.9999999458,209.778398425758,1.00000000044007,0.512916965958998
23099.9999999443,208.878647757666,1.00000000047811,0.521186937743248
23199.9999999429,207.986892010083,1.00000000047669,0.528211609137061
23299.9999999414,207.102426310062,1.00000000046552,0.535193096649848
23399.99999994,206.225898238966,1.00000000044071,0.53334678616589
23499.9999999385,205.35735953371,1.00000000042778,0.528109133522842
23599.9999999371,204.496831383637,1.0000000004434,0.530081473099976
23699.9999999356,203.644224209293,1.00000000047352,0.536483533486946
23799.9999999342,202.799933809597,1.00000000044702,0.532644237286567
23899.9999999327,201.964862806389,1.00000000042346,0.52470725392106
23999.9999999312,201.139711304589,1.00000000037279,0.509914351370299
24099.9999999298,200.326001984824,1.00000000033641,0.49613763685085
24199.9999999283,199.523542408488,1.00000000036613,0.493075261939227
24299.9999999269,198.731294249156,1.00000000042539,0.500085347584222
24399.9999999254,197.947432529877,1.00000000048089,0.51202266470029
24499.999999924,197.170258623692,1.0000000005046,0.520158529559917
24599.9999999225,196.398445642814,1.00000000050731,0.525510495988625
24699.9999999211,195.632620665255,1.00000000046843,0.52791276001711
24799.9999999196,194.873757280955,1.00000000042347,0.530817672043641
24899.9999999181,194.122161066203,1.00000000042758,0.530001458386731
24999.9999999167,193.377141288161,1.00000000046081,0.53200302303677
25099.9999999152,192.637678235394,1.00000000047083,0.543002938845381
25199.9999999138,191.903556168773,1.0000000004913,0.544322983411866
25299.9999999123,191.176234833796,1.00000000045324,0.531689361721329
25399.9999999109,190.458513157455,1.00000000040164,0.516896261839418
25499.9999999094,189.752799306046,1.00000000034393,0.500264642826599
25599.999999908,189.061630882994,1.00000000032095,0.484929429513942
25699.9999999065,188.384494651055,1.00000000035243,0.484752291655462
25799.9999999051,187.718601334779,1.0000000004249,0.492288812611881
25899.9999999036,187.060492311953,1.00000000047855,0.505067324938138
25999.9999999021,186.407507636933,1.00000000050676,0.513958030029199
26099.9999999007,185.757804724372,1.00000000047961,0.516756698156967
26199.9999998992,185.111752062452,1.00000000046311,0.514489552433253
26299.9999998978,184.470396031563,1.00000000043365,0.521085331548023
26399.9999998963,183.834536547761,1.00000000043642,0.530786810147458
26499.9999998949,183.203735984947,1.00000000044657,0.532916336763729
26599.9999998934,182.576908234796,1.00000000047605,0.534814703331642
26699.999999892,181.952849827888,1.00000000051066,0.542132102810801
26799.9999998905,181.331399430659,1.00000000051398,0.54459508604961
26899.999999889,180.713972289734,1.00000000049395,0.535422230603348
26999.9999998876,180.103562381722,1.00000000043733,0.51820620783604
27099.9999998861,179.504389155662,1.0000000003626,0.502844582209286
27199.9999998847,178.919152197331,1.00000000034055,0.494526678038405
27299.9999998832,178.349147918103,1.00000000033973,0.485446256318649
27399.9999998818,177.793791439244,1.00000000036267,0.483731101550931
27499.9999998803,177.249696055702,1.00000000041644,0.488603388976741
27599.9999998789,176.713692888217,1.00000000046157,0.497314824716574
27699.9999998774,176.182376584935,1.00000000050226,0.505558920652402
27799.9999998759,175.653805551103,1.000000000496,0.512039213876878
27899.9999998745,175.1267569097,1.00000000047476,0.511322578297861
27999.999999873,174.601263770051,1.00000000045509,0.511769975019022
28099.9999998716,174.078243878641,1.00000000045626,0.519159055997759
28199.9999998701,173.557745358213,1.00000000046734,0.530421624272742
28299.9999998687,173.039209245712,1.00000000048259,0.535445350577011
28399.9999998672,172.522379814855,1.00000000047424,0.534886653897238
28499.9999998658,172.006863429754,1.00000000047942,0.5349439796779
28599.9999998643,171.49337006565,1.00000000049911,0.534281681119501
28699.9999998629,170.982554776962,1.00000000047933,0.534254998266007
28799.9999998614,170.47608331801,1.00000000045994,0.525146651976659
28899.9999998599,169.976813221693,1.00000000044003,0.513608880948437
28999.9999998585,169.486966257089,1.00000000040558,0.505355778213091
