Time,AGPnorm,Energy,Entropy
0,0,1,9.79714605750062e-18
99.9999999999986,0.00690655207120123,0.999999999997136,0.0201433491380524
199.999999999993,0.0188455044784589,0.999999999999709,0.0578324580474574
300,0.0380653896743777,0.999999999998234,0.114908710869955
400.000000000022,0.0572557499469302,1.00000000001864,0.194098601177433
500.000000000045,0.0748848268276873,1.00000000035881,0.311328686331686
600.000000000068,0.21251047522173,1.00000000120432,0.428945899372399
700.000000000091,0.733827009757973,1.00000000202722,0.508698109774196
800.000000000113,2.03489655028109,1.00000000264299,0.551591031842672
900.000000000136,4.1274314462587,1.00000000272867,0.573123804543723
1000.00000000016,6.83176186080774,1.00000000260063,0.579762304278638
1100.0000000001,9.81987529042876,1.00000000237983,0.579218996318236
1200,12.7644638642457,1.00000000224346,0.57033932012545
1299.99999999991,15.4113372848218,1.00000000221099,0.566141946026564
1399.99999999982,17.61505301288,1.00000000216348,0.557809230603999
1499.99999999973,19.2759704872852,1.0000000018644,0.548602424054478
1599.99999999964,20.4118971936333,1.00000000153698,0.529000132577014
1699.99999999955,21.0672108012789,1.00000000168435,0.552742015413408
1799.99999999946,21.2803866378838,1.00000000132492,0.513753498309364
1899.99999999937,21.2469703214731,1.00000000162582,0.542692820732953
1999.99999999928,20.8928352505427,1.0000000012828,0.49188341799412
2099.99999999919,20.4882926154085,1.00000000208407,0.566761836382786
2199.99999999909,19.935433363943,1.00000000085082,0.409224593090587
2299.999999999,19.3157275112089,1.00000000234692,0.574234121005703
2399.99999999891,18.7756561867069,1.00000000167441,0.491565808784332
2499.99999999882,18.1525047702475,1.00000000089653,0.38690589854588
2599.99999999873,17.519044796273,1.00000000215056,0.552683046134507
2699.99999999864,16.9738341909885,1.00000000178607,0.548438242315254
2799.99999999855,16.4417319513422,1.00000000090817,0.376065998983625
2899.99999999846,15.9097983312542,1.00000000134105,0.441199153379685
2999.99999999837,15.3879566855076,1.00000000190089,0.532775224133381
3099.99999999828,14.9034131572656,1.0000000021109,0.563783664364199
3199.99999999819,14.4615575479438,1.00000000133238,0.484903691437786
3299.99999999809,14.0718909352035,1.00000000095656,0.367734146910468
3399.999999998,13.7212334408863,1.00000000175556,0.470601696675844
3499.99999999791,13.36690798934,1.00000000166431,0.532835450596179
3599.99999999782,13.0278190444181,1.00000000156364,0.511928929743935
3699.99999999773,12.6840367164973,1.00000000219,0.553621144538756
3799.99999999764,12.3555408922485,1.00000000173491,0.545289544885226
3899.99999999755,12.0843318256157,1.00000000092709,0.405501652821985
3999.99999999746,11.9125960568598,1.00000000111754,0.386899345459154
4099.99999999738,11.7654847488677,1.00000000173624,0.492283842216123
4199.99999999775,11.5987647239688,1.00000000163908,0.530459000831513
4299.99999999811,11.4137651317133,1.00000000182461,0.546361768661125
4399.99999999848,11.2280694173819,1.00000000148309,0.543989070001435
4499.99999999884,11.0392618122209,1.00000000168528,0.535495651063952
4599.9999999992,10.8336464512258,1.00000000208265,0.548457980135359
4699.99999999957,10.6151660850486,1.00000000203334,0.585775029629413
4799.99999999993,10.4200783417,1.00000000124373,0.504838035687835
4900.00000000029,10.3124254973158,1.00000000086789,0.406823024890669
5000.00000000066,10.3168085060507,1.00000000127345,0.411681897998498
5100.00000000102,10.3566611031785,1.00000000157367,0.468981440165642
5200.00000000139,10.3627935410081,1.00000000184127,0.534844269020099
5300.00000000175,10.3412592053813,1.00000000162724,0.552506594084986
5400.00000000211,10.3079350983052,1.0000000015795,0.565474505258392
5500.00000000248,10.2538743106661,1.00000000163056,0.570814241420438
5600.00000000284,10.1780092327511,1.00000000159914,0.55620543130462
5700.00000000321,10.0858017340213,1.00000000183234,0.578963418061579
5800.00000000357,9.98609108076153,1.00000000152054,0.571315076854695
5900.00000000393,9.89181280285869,1.00000000148448,0.580239165178562
6000.0000000043,9.78561564535216,1.00000000166712,0.58204394316841
6100.00000000466,9.66351054641225,1.00000000200286,0.588444831632395
6200.00000000502,9.52865778442401,1.00000000220442,0.592015895661365
6300.00000000539,9.38773079492269,1.00000000189566,0.588517544509826
6400.00000000575,9.26598330112716,1.00000000134994,0.5245141795323
6500.00000000612,9.21341910673886,1.00000000087364,0.447827064133315
6600.00000000648,9.27355416031114,1.00000000107114,0.419918951186838
6700.00000000684,9.42068888605887,1.00000000142284,0.448210986212109
6800.00000000721,9.58539886728349,1.00000000165742,0.48838301179519
6900.00000000757,9.71927210167382,1.0000000017856,0.521029284937821
7000.00000000793,9.82990066697221,1.00000000176294,0.556685654423532
7100.0000000083,9.91405437880921,1.00000000173444,0.575244813711256
7200.00000000866,9.97332011974542,1.00000000172716,0.587688359002989
7300.00000000903,10.0072977115304,1.00000000173779,0.604322948261046
7400.00000000939,10.0072232957463,1.00000000184739,0.605878064075321
7500.00000000975,9.98431142384342,1.00000000161279,0.597574260659789
7600.00000001012,9.95791998926439,1.00000000180999,0.587493111647839
7700.00000001048,9.93212579738558,1.00000000168739,0.576875722083083
7800.00000001084,9.90243459565263,1.00000000176915,0.559906316795577
7900.00000001121,9.86343962212747,1.00000000174744,0.576664054392629
8000.00000001157,9.81966418084821,1.00000000165747,0.58545718098663
8100.00000001194,9.78164139560929,1.00000000166735,0.583931221941396
8200.0000000123,9.74029995003337,1.00000000172328,0.591538378948718
8300.00000001266,9.69914394395109,1.00000000172465,0.588945369837133
8400.00000001303,9.653205651176,1.00000000171626,0.581267794897203
8500.00000001339,9.60215715925373,1.00000000179944,0.576665519493271
8600.00000001376,9.53783290993505,1.00000000189615,0.602646079466562
8700.00000001412,9.4633865603325,1.00000000180068,0.618690240273043
8800.00000001448,9.38793669131629,1.00000000146266,0.600402966507858
8900.00000001485,9.31265468903646,1.00000000162686,0.614969577957061
9000.00000001521,9.23340178049366,1.00000000179313,0.609900250529034
9100.00000001557,9.14938336473618,1.00000000192456,0.616581327087929
9200.00000001594,9.06367736352371,1.00000000224517,0.625136772091265
9300.0000000163,8.97894469687927,1.00000000200848,0.605625718014382
9400.00000001667,8.891829108959,1.00000000217812,0.602028597047994
9500.00000001703,8.80080711765111,1.00000000165422,0.5810100765011
9600.00000001739,8.71596529686623,1.00000000139505,0.537703463489209
9700.00000001776,8.66706175272513,1.0000000010161,0.481752526929853
9800.00000001812,8.6923557418343,1.00000000113576,0.44997717704199
9900.00000001848,8.81596009470404,1.00000000108343,0.434636596694566
10000.0000000188,9.02184888772158,1.00000000143834,0.453762457045307
10100.0000000192,9.2781904017256,1.00000000160078,0.467961954122356
10200.0000000196,9.53106064916591,1.00000000182469,0.496654260232401
10300.0000000199,9.77357490789944,1.00000000191575,0.522373551921379
10400.0000000203,9.98812508246393,1.0000000019033,0.541370592294584
10500.0000000207,10.1864267980304,1.00000000187406,0.552624347357828
10600.000000021,10.3634899167029,1.00000000195183,0.57748204207609
10700.0000000214,10.5217685093456,1.00000000198799,0.597978685905537
10800.0000000218,10.6532495891235,1.00000000204077,0.600713910195728
10900.0000000221,10.7551538437558,1.00000000183083,0.610304680290124
11000.0000000225,10.8333857201079,1.00000000203973,0.629134512248978
11100.0000000229,10.8889981937745,1.00000000187098,0.638133194647658
11200.0000000232,10.9282086137396,1.00000000192188,0.636463185800959
11300.0000000236,10.9544897798167,1.00000000181429,0.633293773261523
11400.0000000239,10.9706663100678,1.00000000179332,0.631371883400718
11500.0000000243,10.9749164370619,1.00000000180906,0.629791533499691
11600.0000000247,10.9750465152284,1.00000000182089,0.624810946759216
11700.000000025,10.9632357622714,1.00000000192844,0.626137946607823
11800.0000000254,10.9437232771825,1.00000000174858,0.614606755203874
11900.0000000258,10.9216481968541,1.00000000189815,0.629290285055126
12000.0000000261,10.8895082604237,1.00000000179528,0.62434614763594
12100.0000000265,10.8539436757832,1.00000000176619,0.631459863699805
12200.0000000269,10.8125213111684,1.00000000196287,0.640587467333655
12300.0000000272,10.7642117197511,1.00000000191852,0.64795594477037
12400.0000000276,10.7122293946846,1.00000000188456,0.646831261483863
12500.0000000279,10.6639865519429,1.00000000171006,0.631610661334695
12600.0000000283,10.6237650732337,1.00000000173444,0.611441824753804
12700.0000000287,10.5921341897459,1.00000000186141,0.608248401606009
12800.000000029,10.5656636722632,1.00000000177292,0.604925271736564
12900.0000000294,10.5430416293766,1.00000000183599,0.60960570423176
13000.0000000298,10.5234965594418,1.00000000175121,0.594080447131037
13100.0000000301,10.5027493554476,1.00000000196536,0.616129138595235
13200.0000000305,10.4794670691563,1.00000000187326,0.624151816564069
13300.0000000309,10.4558058557488,1.00000000195037,0.61881202327303
13400.0000000312,10.4315288792506,1.00000000186289,0.603274809165948
13500.0000000316,10.4111984208162,1.00000000181796,0.611256689183033
13600.0000000319,10.3951831409384,1.0000000020589,0.609603976577664
13700.0000000323,10.3793634730354,1.00000000188682,0.597430765211026
13800.0000000327,10.3571164447477,1.00000000208017,0.606361210705903
13900.000000033,10.3347896675473,1.00000000170703,0.603548316345291
14000.0000000334,10.3161202635804,1.00000000175786,0.615843365417724
14100.0000000338,10.2941270179502,1.00000000194013,0.638308270879552
14200.0000000341,10.2739621621358,1.00000000179106,0.621309461401396
14300.0000000345,10.2555883683568,1.00000000194681,0.614165284542147
14400.0000000349,10.2330806484489,1.00000000201124,0.619950130439062
14500.0000000352,10.2119498302732,1.00000000181625,0.620901674153334
14600.0000000356,10.1932123604674,1.0000000017448,0.632211917747264
14700.0000000359,10.1707414424791,1.00000000194648,0.641447465851665
14800.0000000363,10.1455807626325,1.0000000018245,0.627413444070664
14900.0000000367,10.1267225048767,1.00000000160783,0.631931117193379
15000.000000037,10.1038308661134,1.00000000215545,0.646376795239583
15100.0000000374,10.0746880092826,1.00000000184539,0.632836585003471
15200.0000000378,10.0425248047587,1.00000000192434,0.640370479941622
15300.0000000381,10.008682162806,1.00000000186596,0.642393882311637
15400.0000000385,9.97931812233531,1.00000000176565,0.652871511179089
15500.0000000389,9.95195247565453,1.00000000187353,0.648056765227554
15600.0000000392,9.92209307926014,1.0000000021099,0.643968057918411
15700.0000000396,9.88739210927299,1.00000000193893,0.640268877731834
15800.0000000399,9.85545349640342,1.00000000165638,0.628825951803529
15900.0000000403,9.82315373903416,1.00000000227761,0.650059236556275
16000.0000000407,9.78626210150109,1.00000000203592,0.640559349142098
16100.000000041,9.75111936272446,1.0000000019016,0.629308986525681
16200.0000000414,9.71698345891219,1.00000000198702,0.634051343819217
16300.0000000418,9.68166559359695,1.00000000190385,0.621120464536009
16400.0000000418,9.64463390374167,1.00000000213611,0.650479685607469
16500.0000000404,9.60481996817364,1.00000000195243,0.657942066148163
16600.0000000389,9.56258489904234,1.0000000019053,0.652198525755898
16700.0000000375,9.51952107102796,1.00000000188201,0.642641909898072
16800.000000036,9.47446999407348,1.00000000212412,0.64547792783621
16900.0000000346,9.42758668893216,1.00000000187488,0.650049992256055
17000.0000000331,9.380634076204,1.00000000192793,0.643080667333889
17100.0000000317,9.33203747886689,1.00000000213331,0.659367888831441
17200.0000000302,9.2807938090177,1.00000000215758,0.653618582592614
17300.0000000287,9.22903624207534,1.00000000190173,0.644668298301666
17400.0000000273,9.1774552466608,1.00000000190753,0.630312464909367
17500.0000000258,9.12602250110133,1.00000000184946,0.655198553258317
17600.0000000244,9.07551303100455,1.00000000181789,0.644410225805518
17700.0000000229,9.02495560212748,1.000000001711,0.640238985148856
17800.0000000215,8.97489017296666,1.00000000175948,0.643469296720506
17900.00000002,8.92605925774939,1.0000000018435,0.648483660941377
18000.0000000186,8.87986002191108,1.00000000195102,0.646052194674893
18100.0000000171,8.83777531830026,1.00000000206749,0.655611244118572
18200.0000000156,8.80322668374236,1.00000000211176,0.666182765831996
18300.0000000142,8.77528194533651,1.00000000233734,0.671009615143736
18400.0000000127,8.76175500824271,1.00000000225912,0.676903687264463
18500.0000000113,8.75228547903369,1.0000000022703,0.668309009912785
18600.0000000098,8.7598104884875,1.00000000246668,0.666491636575197
18700.0000000084,8.76517972493785,1.00000000232983,0.642896899209066
18800.0000000069,8.782150525331,1.0000000024706,0.622450001477457
18900.0000000055,8.78757608152456,1.00000000221665,0.602247793248483
19000.000000004,8.78686691498948,1.00000000222611,0.59603046383125
19100.0000000026,8.76654717653649,1.00000000177204,0.582848417912104
19200.0000000011,8.73108216516265,1.00000000171951,0.554720420319861
19299.9999999996,8.69301850912802,1.0000000012741,0.522514298178776
19399.9999999982,8.66613459860789,1.00000000146342,0.503777392485033
19499.9999999967,8.67491166189218,1.00000000131217,0.482585606508614
19599.9999999953,8.73718687550817,1.00000000135629,0.467593943330421
19699.9999999938,8.87742279396498,1.00000000135404,0.462478695979867
19799.9999999924,9.09507694469602,1.00000000141431,0.456368188247008
19899.9999999909,9.40916665769417,1.00000000144781,0.464004104904055
19999.9999999895,9.77846425565553,1.00000000159974,0.473523277943756
20099.999999988,10.2191198899493,1.00000000187019,0.482183765472303
20199.9999999865,10.6628228234766,1.00000000221155,0.492621826328521
20299.9999999851,11.1341781330988,1.00000000211112,0.508764350814905
20399.9999999836,11.5888955266866,1.00000000215663,0.50893535200746
20499.9999999822,12.0454091468456,1.00000000227828,0.523361230947101
20599.9999999807,12.486056040494,1.00000000231823,0.531445063182709
20699.9999999793,12.9029898076626,1.00000000233645,0.536194775303854
20799.9999999778,13.3104555322312,1.00000000240793,0.552840932370436
20899.9999999764,13.6831722517022,1.00000000214,0.561489853244397
20999.9999999749,14.0597580912063,1.00000000198275,0.571850732008626
21099.9999999734,14.4208617490488,1.00000000212983,0.579619258331822
21199.999999972,14.7736401603553,1.00000000213027,0.58412063391633
21299.9999999705,15.1235246720631,1.0000000020557,0.588122092927003
21399.9999999691,15.446796388278,1.00000000240359,0.606260140337889
21499.9999999676,15.7505501561192,1.00000000213808,0.618833973780776
21599.9999999662,16.0280613383959,1.0000000020002,0.620649101634278
21699.9999999647,16.300049538368,1.00000000226728,0.632899278137933
21799.9999999633,16.5364269773696,1.0000000021792,0.631276133780625
21899.9999999618,16.7584690257195,1.00000000246516,0.641595425647211
21999.9999999603,16.957196417069,1.00000000233145,0.660357200919101
22099.9999999589,17.1375657150464,1.00000000216527,0.652782039000306
22199.9999999574,17.3111604979559,1.00000000223341,0.655762820627575
22299.999999956,17.469027748762,1.00000000196782,0.651302348780107
22399.9999999545,17.625791793057,1.00000000211636,0.652450031342193
22499.9999999531,17.7640073542338,1.00000000200959,0.649342889409495
22599.9999999516,17.8927819726422,1.00000000220087,0.649334108771285
22699.9999999502,18.0079472415766,1.0000000020513,0.656140966319081
22799.9999999487,18.1197269566327,1.00000000211067,0.648911384440393
22899.9999999473,18.2240846921209,1.00000000209975,0.657626171337373
22999.9999999458,18.3178783630238,1.00000000224188,0.647396915164745
23099.9999999443,18.4111427131247,1.0000000023772,0.651093133627901
23199.9999999429,18.4949280737097,1.00000000193277,0.648878734404998
23299.9999999414,18.5712052315003,1.0000000021781,0.632887323081031
23399.99999994,18.6337267457499,1.00000000216378,0.663546795297076
23499.9999999385,18.6899633727891,1.00000000233281,0.662549953896546
23599.9999999371,18.7515098921363,1.00000000216868,0.66980796865576
23699.9999999356,18.8104604035334,1.00000000190963,0.658195883544283
23799.9999999342,18.8683641202296,1.0000000021792,0.664485038064941
23899.9999999327,18.9177794909574,1.00000000192815,0.657874309900114
23999.9999999312,18.9639672858141,1.00000000218537,0.672327962257176
24099.9999999298,18.997703064965,1.00000000239444,0.667249538691137
24199.9999999283,19.0305393707902,1.00000000235798,0.664698585476161
24299.9999999269,19.0635891131778,1.00000000195892,0.664198935528901
24399.9999999254,19.1033204412477,1.00000000208425,0.635947556489829
24499.999999924,19.1442606816339,1.00000000218413,0.641778274564033
24599.9999999225,19.1744121116517,1.00000000236361,0.63592831881829
24699.9999999211,19.1952128695395,1.00000000228662,0.647871728930232
24799.9999999196,19.2164586641587,1.00000000218628,0.62918678061298
24899.9999999181,19.2505835725161,1.00000000199925,0.62700047170942
24999.9999999167,19.290201643255,1.00000000228887,0.658105232154876
25099.9999999152,19.3189765078044,1.00000000248607,0.657067430902147
25199.9999999138,19.3372946591061,1.00000000240067,0.666395234149338
25299.9999999123,19.3535595205866,1.00000000236957,0.667900972442992
25399.9999999109,19.3775091291041,1.00000000193373,0.658568429243263
25499.9999999094,19.4065286999055,1.00000000233116,0.665427087401338
25599.999999908,19.4341600291974,1.00000000232995,0.671868394822266
25699.9999999065,19.4645329626293,1.00000000210774,0.644433728556731
25799.9999999051,19.5027485508036,1.00000000224431,0.626136297700209
25899.9999999036,19.5341900988086,1.00000000240218,0.646592512911518
25999.9999999021,19.5518973606466,1.00000000219456,0.638606535245615
26099.9999999007,19.5656311983395,1.0000000022692,0.633512842219484
26199.9999998992,19.5843633255331,1.00000000208367,0.619368527882057
26299.9999998978,19.614115058753,1.00000000241139,0.658579398065573
26399.9999998963,19.6440416233811,1.00000000231674,0.667554503932004
26499.9999998949,19.6689992379198,1.00000000257248,0.670283716437993
26599.9999998934,19.6905818917722,1.00000000227071,0.654230271527638
26699.999999892,19.7221492006087,1.00000000235305,0.635090549322576
26799.9999998905,19.7644912041376,1.00000000215378,0.630582961614661
26899.999999889,19.8061177909193,1.00000000223467,0.64920624374156
26999.9999998876,19.8339890720576,1.00000000252526,0.645100642489554
27099.9999998861,19.8556516274341,1.00000000237739,0.640549204421129
27199.9999998847,19.8725192930469,1.00000000251151,0.656897699463909
27299.9999998832,19.885775834116,1.00000000215943,0.635221105609731
27399.9999998818,19.903645009917,1.00000000252033,0.645485487057153
27499.9999998803,19.9220915985091,1.00000000233735,0.647932955798336
27599.9999998789,19.9353075531386,1.0000000025588,0.660558840585649
27699.9999998774,19.940792388674,1.00000000211222,0.663072028874819
27799.9999998759,19.945436985886,1.00000000227211,0.649335013674346
27899.9999998745,19.9552995888097,1.00000000218077,0.643387047462049
27999.999999873,19.9729478243088,1.00000000239915,0.641721651401999
28099.9999998716,19.9893585606821,1.00000000252303,0.665470424185937
28199.9999998701,20.0043179722913,1.0000000024816,0.663307426093167
28299.9999998687,20.0222605119534,1.00000000233859,0.642583607476862
28399.9999998672,20.050524803611,1.00000000214538,0.639673951514073
28499.9999998658,20.0875862889999,1.00000000256196,0.686907102452028
28599.9999998643,20.1172470448725,1.00000000226786,0.673408562943146
28699.9999998629,20.146195305409,1.00000000257566,0.661275431139832
28799.9999998614,20.17120678532,1.00000000231095,0.669540968732989
28899.9999998599,20.1969443704048,1.00000000235114,0.676126473162258
28999.9999998585,20.220914169653,1.00000000263001,0.652796100917437
29099.999999857,20.2492832598134,1.00000000229156,0.661421343375731
