Time,AGPnorm,Energy,Entropy
0,0,1,-7.57152735794551e-17
99.9999999999986,0.000947729608673778,0.999999999998655,0.00328004190365999
199.999999999993,0.00659209528571614,0.999999999998263,0.00962017178593672
300,0.0133728645239685,0.999999999999608,0.0178258026229238
400.000000000022,0.0201913216011864,1.00000000000048,0.0281998504888337
500.000000000045,0.0286521003972095,0.99999999999896,0.0407597167263176
600.000000000068,0.0400666204336267,0.999999999998085,0.0550473282329921
700.000000000091,0.0515038992393006,0.999999999999042,0.0709531274648311
800.000000000113,0.0631642388303487,1.00000000000057,0.0887483033482398
900.000000000136,0.0760853120272975,0.999999999999759,0.109152087999081
1000.00000000016,0.089536607187004,0.99999999999826,0.132178687545191
1100.0000000001,0.103723646352322,1.00000000000015,0.159029169378695
1200,0.116875951282412,1.0000000000098,0.190970029809483
1299.99999999991,0.131029927720948,1.00000000004584,0.229591009605823
1399.99999999982,0.142890027219342,1.00000000013508,0.272902563056074
1499.99999999973,0.170832473292735,1.00000000028614,0.31658594435556
1599.99999999964,0.252286414304732,1.00000000045802,0.357277147151625
1699.99999999955,0.420704392593434,1.00000000063465,0.39345283273655
1799.99999999946,0.735183861682636,1.00000000086064,0.425302051375868
1899.99999999937,1.29645957920335,1.0000000009322,0.452685526963737
1999.99999999928,2.18733496936296,1.00000000108636,0.475852078680461
2099.99999999919,3.44368526802525,1.00000000117906,0.496009790513311
2199.99999999909,5.10904768519277,1.00000000123944,0.513224660838164
2299.999999999,7.23272196300973,1.00000000134749,0.526854110050807
2399.99999999891,9.80048737859163,1.00000000134248,0.538160623537293
2499.99999999882,12.7606872531697,1.00000000141839,0.547643452973591
2599.99999999873,16.0834850577713,1.00000000137862,0.555716209846624
2699.99999999864,19.7511336994584,1.0000000013803,0.561398242804448
2799.99999999855,23.6896471541453,1.00000000136892,0.565538436590421
2899.99999999846,27.7985649876345,1.00000000132772,0.569233768343732
2999.99999999837,32.0209758914892,1.0000000013613,0.57151926102025
3099.99999999828,36.323397561345,1.00000000127712,0.572521513529288
3199.99999999819,40.645803961081,1.00000000129094,0.572554741691333
3299.99999999809,44.9008174199866,1.00000000124514,0.572828141215803
3399.999999998,49.0326754303754,1.00000000118622,0.572140590212664
3499.99999999791,53.0225091331377,1.00000000121947,0.571917144030187
3599.99999999782,56.8410546595171,1.0000000011976,0.570599137765816
3699.99999999773,60.4441130233941,1.00000000114923,0.567898678331933
3799.99999999764,63.7953246002475,1.00000000108696,0.566015451427321
3899.99999999755,66.8792533620992,1.00000000110971,0.56710079043149
3999.99999999746,69.695492143467,1.00000000103845,0.563237233574601
4099.99999999738,72.2436013487463,1.00000000099842,0.560300472430795
4199.99999999775,74.5010690810621,1.00000000101087,0.560627535016411
4299.99999999811,76.4636683955291,1.00000000091647,0.557309718637943
4399.99999999848,78.1531122195012,1.00000000091632,0.558026560617941
4499.99999999884,79.5756829799657,1.00000000088719,0.551826474806626
4599.9999999992,80.7368492594833,1.00000000088225,0.554843588219587
4699.99999999957,81.6524168545482,1.0000000008244,0.55509307786046
4799.99999999993,82.3201249242803,1.00000000075859,0.543503532962276
4900.00000000029,82.7697119097474,1.00000000081253,0.559633199442317
5000.00000000066,83.0468573495649,1.00000000076162,0.547778878981001
5100.00000000102,83.1160016850528,1.00000000064545,0.531031131671387
5200.00000000139,83.0134700016298,1.00000000084722,0.563701609035856
5300.00000000175,82.814285399247,1.00000000079135,0.551701833336408
5400.00000000211,82.4586331169241,1.00000000060067,0.513520130366065
5500.00000000248,81.9609972464497,1.00000000079754,0.553877257801531
5600.00000000284,81.4333667726947,1.00000000095194,0.570331503980337
5700.00000000321,80.8382517165316,1.00000000061503,0.512802202856178
5800.00000000357,80.105054867794,1.00000000061773,0.503889581688123
5900.00000000393,79.327200814441,1.00000000100266,0.570459369849701
6000.0000000043,78.5807228868178,1.00000000095887,0.562379822223641
6100.00000000466,77.7935043044385,1.00000000055461,0.484187762901275
6200.00000000502,76.9056678601252,1.00000000055559,0.481023108304124
6300.00000000539,75.9972056369093,1.00000000099236,0.560227506345419
6400.00000000575,75.1424542601912,1.00000000110894,0.569725225171256
6500.00000000612,74.302078256582,1.00000000071873,0.497712728064731
6600.00000000648,73.4053707512255,1.00000000047132,0.441196333810615
6700.00000000684,72.4647008038089,1.00000000074593,0.497264041974086
6800.00000000721,71.5499737658576,1.00000000113842,0.56510987084531
6900.00000000757,70.6896290630767,1.00000000108619,0.555807744882264
7000.00000000793,69.847444786634,1.00000000073929,0.487832529967219
7100.0000000083,68.9799121864311,1.00000000050832,0.430744787579752
7200.00000000866,68.0893571281007,1.00000000064783,0.461732284325192
7300.00000000903,67.2109121212206,1.00000000100373,0.530276946324002
7400.00000000939,66.3698366400133,1.00000000111303,0.555229843990214
7500.00000000975,65.5633779820766,1.00000000095101,0.529124510245252
7600.00000001012,64.7676645509571,1.0000000006965,0.47076830197502
7700.00000001048,63.9691248911536,1.00000000054275,0.437289104194792
7800.00000001084,63.1724887630031,1.00000000066039,0.458904839689437
7900.00000001121,62.3871820233777,1.00000000077169,0.498057549278766
8000.00000001157,61.621306102493,1.00000000100941,0.534676875977779
8100.00000001194,60.879091382003,1.00000000099624,0.539666601795704
8200.0000000123,60.1572015883288,1.00000000084611,0.511762912978024
8300.00000001266,59.4488039275426,1.00000000066368,0.467431170083893
8400.00000001303,58.754833532597,1.00000000062366,0.456432700833328
8500.00000001339,58.0778733564407,1.0000000007125,0.470842841883539
8600.00000001376,57.4162854354971,1.00000000076935,0.487496531499326
8700.00000001412,56.7705535309807,1.00000000078346,0.498190005327686
8800.00000001448,56.1391540802197,1.00000000090204,0.518061988653205
8900.00000001485,55.5191076929136,1.00000000102285,0.53260296671989
9000.00000001521,54.9105912346373,1.00000000090699,0.525207117277001
9100.00000001557,54.3190157357877,1.00000000068199,0.484029706776225
9200.00000001594,53.7504042313325,1.00000000057666,0.459713610922542
9300.0000000163,53.2043302762276,1.00000000076237,0.473005321556274
9400.00000001667,52.6743060160408,1.0000000008938,0.49189587499383
9500.00000001703,52.157030972449,1.00000000080543,0.503385011597232
9600.00000001739,51.6567676004309,1.00000000067292,0.484154224872314
9700.00000001776,51.1740315718847,1.00000000077124,0.496156286579524
9800.00000001812,50.7000839397326,1.00000000091744,0.519539868597903
9900.00000001848,50.2253317408427,1.00000000101271,0.535608574455493
10000.0000000188,49.7529947683906,1.00000000090147,0.526253478663912
10100.0000000192,49.2956917265813,1.00000000067577,0.492709546822997
10200.0000000196,48.8652441882401,1.00000000060804,0.467388990578268
10300.0000000199,48.461090471078,1.00000000070012,0.468840644643041
10400.0000000203,48.0727893855257,1.00000000087892,0.486725537426174
10500.0000000207,47.6900536136165,1.0000000009829,0.498652648693754
10600.000000021,47.3121232132957,1.00000000082426,0.509149442059243
10700.0000000214,46.9472385983369,1.00000000067867,0.497220351277821
10800.0000000218,46.6012862005193,1.00000000067299,0.490853934354142
10900.0000000221,46.266634202501,1.00000000081054,0.510148211775694
11000.0000000225,45.9335241979148,1.00000000090924,0.527673824647819
11100.0000000229,45.5961129965228,1.00000000105108,0.536360001523951
11200.0000000232,45.2546301524858,1.00000000096799,0.533078245486512
11300.0000000236,44.918946951637,1.00000000076146,0.51639080246839
11400.0000000239,44.6026508893166,1.00000000067125,0.493380948514728
11500.0000000243,44.3124364669889,1.00000000065765,0.480035680995698
11600.0000000247,44.0437820255083,1.00000000074148,0.486378391961868
11700.000000025,43.7903522233214,1.00000000074847,0.490396507734994
11800.0000000254,43.5453800120054,1.00000000084736,0.502678269628864
11900.0000000258,43.3052056535181,1.00000000083264,0.500659449877426
12000.0000000261,43.0705110041349,1.00000000083238,0.505163500367496
12100.0000000265,42.8393811937655,1.0000000008648,0.525610658559321
12200.0000000269,42.6118418432035,1.00000000075311,0.52617142789411
12300.0000000272,42.3884123885897,1.0000000007872,0.532332069674206
12400.0000000276,42.1695972435227,1.00000000076759,0.529753281344916
12500.0000000279,41.9550846146261,1.00000000078332,0.527654424819969
12600.0000000283,41.7429411046519,1.00000000088959,0.524757376078659
12700.0000000287,41.5288724988098,1.00000000097082,0.534274535973919
12800.000000029,41.3087400472273,1.00000000092312,0.541696561541355
12900.0000000294,41.0902263646633,1.00000000081306,0.53179118202705
13000.0000000298,40.8870513549793,1.0000000006793,0.512131498878878
13100.0000000301,40.7085386406582,1.00000000064576,0.495902245673845
13200.0000000305,40.5521507381649,1.00000000070071,0.489395812270934
13300.0000000309,40.4068930944707,1.00000000083153,0.505127862172698
13400.0000000312,40.2634731448997,1.00000000084158,0.509697200262867
13500.0000000316,40.1258841358548,1.00000000078771,0.499147452216619
13600.0000000319,39.9988109166327,1.00000000077916,0.50259511816502
13700.0000000323,39.8839159945714,1.00000000074467,0.511323207216987
13800.0000000327,39.7790388293791,1.00000000075712,0.512489781955824
13900.000000033,39.6757589272991,1.00000000082699,0.524377376818236
14000.0000000334,39.5625275465762,1.00000000090354,0.538188554535889
14100.0000000338,39.4360955763609,1.00000000092322,0.55140704866815
14200.0000000341,39.2991875583095,1.00000000088429,0.556172212297708
14300.0000000345,39.1581728911949,1.00000000080065,0.556426569614427
14400.0000000349,39.0188460653051,1.00000000074608,0.552080431287549
14500.0000000352,38.8861113873191,1.00000000071773,0.547720497961338
14600.0000000356,38.7583868901004,1.00000000080774,0.542463669275722
14700.0000000359,38.6324140647753,1.00000000088423,0.53698615693539
14800.0000000363,38.5043194167575,1.00000000092509,0.540661416802398
14900.0000000367,38.3720670732301,1.00000000092891,0.544605173201021
15000.000000037,38.2376733801663,1.00000000085069,0.546856952909442
15100.0000000374,38.110702589167,1.00000000073911,0.538866845766922
15200.0000000378,38.0005809729801,1.00000000067127,0.528241268883432
15300.0000000381,37.909852350565,1.0000000007057,0.515156518166133
15400.0000000385,37.8349052029272,1.0000000007416,0.513260945364036
15500.0000000389,37.7726879307319,1.00000000075187,0.515542953784486
15600.0000000392,37.7177819717203,1.00000000082432,0.513344766926331
15700.0000000396,37.6631885985184,1.00000000086416,0.514696310511663
15800.0000000399,37.6113839719146,1.00000000077171,0.512327505240069
15900.0000000403,37.5680237162044,1.00000000079579,0.515806022382497
16000.0000000407,37.5320146641446,1.00000000081086,0.527150875801827
16100.000000041,37.4980031336255,1.00000000087073,0.542284577515764
16200.0000000414,37.4622196457337,1.00000000081154,0.553625061280829
16300.0000000418,37.4254326072276,1.00000000082559,0.55720679364602
16400.0000000418,37.3905663438709,1.00000000079131,0.559278425384543
16500.0000000404,37.3576376394761,1.00000000072074,0.553975135276709
16600.0000000389,37.3225419776762,1.00000000078732,0.550646837387306
16700.0000000375,37.2790671712826,1.00000000084287,0.560507807461409
16800.000000036,37.2234004498781,1.00000000085426,0.562439362277051
16900.0000000346,37.1534480616446,1.00000000092232,0.560018974466753
17000.0000000331,37.0708934296228,1.00000000096058,0.569028828186607
17100.0000000317,36.97902877606,1.00000000087294,0.580350020525057
17200.0000000302,36.8824958481401,1.00000000075835,0.578179975533756
17300.0000000287,36.7879395304664,1.00000000074286,0.571077065686325
17400.0000000273,36.7003482010782,1.00000000071185,0.562725553688903
17500.0000000258,36.6200331318036,1.00000000076596,0.556430375689246
17600.0000000244,36.544254538337,1.00000000087399,0.552993710301753
17700.0000000229,36.4697917519586,1.00000000089901,0.552579576435247
17800.0000000215,36.3929877859813,1.00000000085499,0.555771245696483
17900.00000002,36.3135146225898,1.00000000093315,0.561319481626165
18000.0000000186,36.2332710551833,1.00000000088428,0.562216154020196
18100.0000000171,36.1581596418945,1.00000000079463,0.557721138980703
18200.0000000156,36.095362196506,1.00000000071643,0.551165277527107
18300.0000000142,36.0492061486355,1.00000000070345,0.545499596427014
18400.0000000127,36.0187477032138,1.00000000074405,0.536371911539759
18500.0000000113,36.0009708793092,1.00000000079142,0.531140376141873
18600.0000000098,35.9898118382703,1.00000000080013,0.527218813926309
18700.0000000084,35.9805354938327,1.00000000088703,0.532620818848344
18800.0000000069,35.9755873989587,1.0000000008055,0.533785921920785
18900.0000000055,35.9769684996966,1.00000000076189,0.52744651958683
19000.000000004,35.9840051121984,1.00000000078661,0.524357289904988
19100.0000000026,35.9946207834912,1.00000000078545,0.525313793929246
19200.0000000011,36.0072083913308,1.00000000079585,0.523759670378136
19299.9999999996,36.022970162718,1.00000000078852,0.523150095952716
19399.9999999982,36.0405979954503,1.00000000080585,0.532226842182706
19499.9999999967,36.0552145255813,1.00000000088218,0.552481469382169
19599.9999999953,36.0635739867938,1.00000000082019,0.563344102583553
19699.9999999938,36.0677390592411,1.00000000084135,0.563640719942082
19799.9999999924,36.0696886314484,1.00000000081589,0.566251720381217
19899.9999999909,36.071169947687,1.00000000079712,0.561524765981188
19999.9999999895,36.071148210865,1.0000000008201,0.56718184394413
20099.999999988,36.0672445633313,1.00000000088166,0.572547724613519
20199.9999999865,36.0571299313004,1.00000000086034,0.579478702675594
20299.9999999851,36.0432264965403,1.00000000083968,0.589906922265933
20399.9999999836,36.0271272174565,1.00000000078094,0.590371452818439
20499.9999999822,36.0069367596542,1.00000000086452,0.589913924752135
20599.9999999807,35.9795844621199,1.00000000085884,0.588202198382664
20699.9999999793,35.9468795333822,1.00000000079728,0.585598918763687
20799.9999999778,35.9097673483191,1.00000000082921,0.580889791264552
20899.9999999764,35.8660192344142,1.00000000087352,0.572065250587435
20999.9999999749,35.8141589739542,1.00000000088669,0.566012163316737
21099.9999999734,35.7520339841846,1.00000000093057,0.574869117874986
21199.999999972,35.6820451645419,1.00000000090867,0.584003873163644
21299.9999999705,35.6059013529877,1.00000000084496,0.584447131419909
21399.9999999691,35.5269522182301,1.00000000083187,0.584350482955164
21499.9999999676,35.44825729934,1.0000000007748,0.58304175494549
21599.9999999662,35.3722724041244,1.00000000074572,0.581886629125676
21699.9999999647,35.3013391207612,1.00000000070922,0.577760625070098
21799.9999999633,35.2353119030173,1.00000000076832,0.575706584240363
21899.9999999618,35.1726688065841,1.00000000080823,0.571054456447674
21999.9999999603,35.1131895858206,1.0000000008526,0.573061826785212
22099.9999999589,35.0558657172376,1.00000000087404,0.572609829748556
22199.9999999574,34.9998004309468,1.00000000089073,0.569973315422569
22299.999999956,34.9432570839118,1.00000000090055,0.56306973748683
22399.9999999545,34.8870122684337,1.00000000091829,0.556360275418432
22499.9999999531,34.8316207071741,1.00000000088155,0.55405277060517
22599.9999999516,34.7796090909103,1.00000000080215,0.553786471901036
22699.9999999502,34.7356849569953,1.00000000073963,0.556573485228353
22799.9999999487,34.7043919468769,1.00000000071787,0.556451022979475
22899.9999999473,34.6865949137512,1.00000000073792,0.553953690530248
22999.9999999458,34.6798631311621,1.00000000080419,0.550848945074232
23099.9999999443,34.6826865591016,1.00000000077971,0.550050649845757
23199.9999999429,34.6935969317974,1.00000000080888,0.547284175939611
23299.9999999414,34.7085174126357,1.00000000085403,0.543737963065433
23399.99999994,34.7261826273062,1.00000000086313,0.537969126738998
23499.9999999385,34.7467659185273,1.00000000080483,0.537329597954744
23599.9999999371,34.7740146078147,1.0000000007526,0.539158030856697
23699.9999999356,34.8065490431688,1.00000000081951,0.541507101197035
23799.9999999342,34.8420367555504,1.00000000080804,0.540758360645035
23899.9999999327,34.8801010766575,1.00000000080571,0.539828069546506
23999.9999999312,34.9199984167385,1.00000000079003,0.540542874984119
24099.9999999298,34.9619666090261,1.00000000078715,0.543183025098051
24199.9999999283,35.0038016901764,1.00000000086351,0.549508985067684
24299.9999999269,35.0412707796754,1.00000000089913,0.561539720661842
24399.9999999254,35.0725162998766,1.00000000086657,0.573830236285111
24499.999999924,35.0991935811724,1.00000000086031,0.578724046255958
24599.9999999225,35.1232803027486,1.00000000083663,0.582067638478747
24699.9999999211,35.1440855033713,1.00000000083366,0.586258475235004
24799.9999999196,35.1626671870761,1.00000000083822,0.594498151297853
24899.9999999181,35.1798711503722,1.00000000088736,0.596549050540743
24999.9999999167,35.1955386081425,1.00000000085241,0.596259378278895
25099.9999999152,35.2098165634019,1.00000000080591,0.602474811727741
25199.9999999138,35.2218789331342,1.00000000087059,0.605189278094965
25299.9999999123,35.2306146549192,1.00000000086034,0.600561445291445
25399.9999999109,35.2371325480575,1.00000000085063,0.595626266772856
25499.9999999094,35.2430909057587,1.0000000008384,0.596870296833234
25599.999999908,35.2456629082536,1.00000000086977,0.596025323892959
25699.9999999065,35.2436074175017,1.00000000085916,0.60406148795821
25799.9999999051,35.237447866549,1.00000000088862,0.615384007630321
25899.9999999036,35.2279887229705,1.00000000084731,0.613223287112186
25999.9999999021,35.2174128121055,1.00000000083723,0.609242548131016
26099.9999999007,35.2042078083693,1.00000000087042,0.611599149063962
26199.9999998992,35.1882702178013,1.00000000087715,0.612632114711536
26299.9999998978,35.1710146981663,1.00000000079688,0.608746047687732
26399.9999998963,35.1528684333771,1.00000000086314,0.600531344503435
26499.9999998949,35.1323160124743,1.00000000085192,0.59742833346818
26599.9999998934,35.1091322761777,1.00000000080892,0.593118189522554
26699.999999892,35.0829416971902,1.00000000085899,0.60262578384036
26799.9999998905,35.0516771954129,1.0000000009631,0.611739753550047
26899.999999889,35.015051167872,1.00000000090762,0.608779376169633
26999.9999998876,34.9755383667381,1.000000000876,0.611457815992474
27099.9999998861,34.9349893264325,1.00000000085627,0.614468241635707
27199.9999998847,34.8956929691203,1.00000000080202,0.614501918009185
27299.9999998832,34.8569509793007,1.00000000082577,0.616654939022755
27399.9999998818,34.8163090225933,1.00000000087422,0.61722871428245
27499.9999998803,34.773038145288,1.00000000083331,0.61163963223277
27599.9999998789,34.7283993215839,1.00000000084777,0.608262650345951
27699.9999998774,34.6809994608152,1.00000000087093,0.609084768957982
27799.9999998759,34.6301766929214,1.00000000089427,0.610295592110748
27899.9999998745,34.5768477745932,1.00000000087432,0.608944984278646
27999.999999873,34.5204679137353,1.00000000092554,0.612795459326759
28099.9999998716,34.4607993224468,1.00000000095088,0.612484175822249
28199.9999998701,34.396634256874,1.00000000090696,0.6081770887763
28299.9999998687,34.328398188794,1.0000000009105,0.613944845249038
28399.9999998672,34.2572812953368,1.00000000090327,0.620232666500727
28499.9999998658,34.1842343635691,1.00000000085448,0.625159074898111
28599.9999998643,34.1097451327869,1.0000000008805,0.630223197250897
28699.9999998629,34.0349084461198,1.00000000084236,0.627950317526687
28799.9999998614,33.9610315016949,1.0000000007889,0.622392771051002
28899.9999998599,33.8892919589743,1.00000000080343,0.616376838530426
28999.9999998585,33.8205291286104,1.0000000008169,0.610897055686044
