Time,AGPnorm,Energy,Entropy
0,0,1,-7.30838875227499e-17
99.9999999999986,0.000949222449278035,0.999999999996832,0.0032760667139118
199.999999999993,0.00669761870370807,0.999999999997927,0.00958662095266864
300,0.0134793546751591,1.00000000000157,0.0179927619725877
400.000000000022,0.0203648999588567,1.00000000000157,0.0286894012501234
500.000000000045,0.0290491268014784,0.999999999997708,0.0414554761152286
600.000000000068,0.0409435859385769,0.999999999996784,0.0558469777362544
700.000000000091,0.0524128085585557,1.00000000000013,0.0720315290312322
800.000000000113,0.0642236698408793,1.0000000000024,0.0904635450596399
900.000000000136,0.0769231673373894,0.999999999999378,0.111365883262761
1000.00000000016,0.0914871021914092,0.999999999996962,0.134920487034615
1100.0000000001,0.105018396322937,1.00000000000046,0.162485670981142
1200,0.118865321884879,1.00000000001467,0.195811226555061
1299.99999999991,0.132534729758726,1.0000000000568,0.236035800692497
1399.99999999982,0.146595022704202,1.00000000016072,0.280105217384489
1499.99999999973,0.179722410793293,1.00000000030597,0.323883914827654
1599.99999999964,0.270498478858716,1.00000000050421,0.364222617856453
1699.99999999955,0.457757664426962,1.00000000069767,0.40058804339551
1799.99999999946,0.816035375237384,1.00000000084514,0.431898707765341
1899.99999999937,1.44413185552433,1.00000000104813,0.458305984845153
1999.99999999928,2.40162151523594,1.00000000114195,0.480934953178991
2099.99999999919,3.72512158620742,1.00000000126154,0.501037706311258
2199.99999999909,5.48391710601161,1.00000000133175,0.517672305008354
2299.999999999,7.71724835831744,1.00000000138623,0.530686573921602
2399.99999999891,10.3762695850435,1.00000000147389,0.541188917427423
2499.99999999882,13.3947070930876,1.00000000147367,0.551013874035376
2599.99999999873,16.7732971440942,1.00000000138201,0.558564259001578
2699.99999999864,20.4998467699345,1.00000000137968,0.563742779668621
2799.99999999855,24.4724582261456,1.00000000138791,0.567223312462914
2899.99999999846,28.5726304827351,1.00000000140764,0.570716088094647
2999.99999999837,32.7599112812936,1.00000000135548,0.573203149488365
3099.99999999828,37.0237764367167,1.00000000134616,0.573549492048988
3199.99999999819,41.2904963153565,1.00000000131756,0.573150922390665
3299.99999999809,45.4592167012788,1.00000000133125,0.573129151769782
3399.999999998,49.4787902589391,1.00000000121232,0.572852210593307
3499.99999999791,53.3456131546362,1.00000000121644,0.572373968224638
3599.99999999782,57.0380909162774,1.00000000112884,0.570811578645334
3699.99999999773,60.5017049333534,1.00000000109922,0.567879340219946
3799.99999999764,63.6976191114316,1.00000000110093,0.566567028436785
3899.99999999755,66.6171395214155,1.00000000108882,0.567395595459503
3999.99999999746,69.2722104895256,1.00000000102429,0.562631278596458
4099.99999999738,71.6602244049965,1.00000000097876,0.560639523865191
4199.99999999775,73.7540586849697,1.00000000098176,0.560367114431817
4299.99999999811,75.5513392787635,1.0000000009531,0.557760310506244
4399.99999999848,77.0796092580713,1.00000000089087,0.558321786132864
4499.99999999884,78.3480379227602,1.00000000084165,0.55103637733938
4599.9999999992,79.3635509317151,1.00000000089698,0.557816212323073
4699.99999999957,80.1393614220867,1.00000000083051,0.551873236948531
4799.99999999993,80.6679641507753,1.00000000075078,0.544810268361741
4900.00000000029,81.0001637158452,1.00000000085134,0.562616498822567
5000.00000000066,81.165739450347,1.0000000007216,0.538917998764583
5100.00000000102,81.125040068626,1.00000000067852,0.536867101029266
5200.00000000139,80.9474237772173,1.0000000009314,0.569410944690158
5300.00000000175,80.6728633727921,1.00000000070034,0.537963812491488
5400.00000000211,80.232650540474,1.00000000059382,0.515247294547103
5500.00000000248,79.6936295475183,1.00000000093264,0.568996411126057
5600.00000000284,79.1390499769053,1.00000000092251,0.55660849460309
5700.00000000321,78.4890124115681,1.00000000053196,0.496274969229567
5800.00000000357,77.716751036471,1.0000000007326,0.526251014618099
5900.00000000393,76.9443859935907,1.00000000106418,0.578669616399376
6000.0000000043,76.1951701704566,1.00000000086246,0.538576883493468
6100.00000000466,75.3760389209925,1.00000000047508,0.466695257770995
6200.00000000502,74.4736460392411,1.00000000071011,0.509626109993696
6300.00000000539,73.5888134081761,1.00000000111463,0.574287737662533
6400.00000000575,72.7565744657993,1.00000000102794,0.550195079117213
6500.00000000612,71.9108060415728,1.00000000059024,0.466457309120732
6600.00000000648,71.0041145362799,1.0000000005256,0.449166235833051
6700.00000000684,70.0804931551497,1.00000000097301,0.531636711620237
6800.00000000721,69.2009473138222,1.00000000109108,0.568851829035018
6900.00000000757,68.3671428008324,1.00000000101265,0.532775132646252
7000.00000000793,67.5315535269102,1.00000000060933,0.457593977366904
7100.0000000083,66.6679196054576,1.00000000054852,0.435651484832524
7200.00000000866,65.7952151806035,1.00000000080146,0.490190431698676
7300.00000000903,64.9472681356486,1.00000000108576,0.547161558706015
7400.00000000939,64.138254037249,1.0000000010487,0.547417782574663
7500.00000000975,63.35378698641,1.00000000084373,0.503102307002399
7600.00000001012,62.5723868311225,1.00000000063466,0.454715546956436
7700.00000001048,61.7903639713555,1.00000000056801,0.445784830931013
7800.00000001084,61.0148852830816,1.00000000073029,0.474833585295541
7900.00000001121,60.2549495573471,1.00000000095721,0.516115023790663
8000.00000001157,59.5161403056142,1.00000000106208,0.538973126042902
8100.00000001194,58.7992339728376,1.00000000097806,0.532338543155479
8200.0000000123,58.0989919382367,1.00000000075848,0.490663208739566
8300.00000001266,57.4125196611634,1.00000000060924,0.461889620550362
8400.00000001303,56.7429150616583,1.00000000064079,0.462819391516984
8500.00000001339,56.0896489536672,1.00000000075448,0.485219199646813
8600.00000001376,55.452125428795,1.00000000074931,0.489970172611012
8700.00000001412,54.8301556169774,1.0000000008339,0.508061850448483
8800.00000001448,54.220734961706,1.00000000100775,0.525806790022631
8900.00000001485,53.6211930477696,1.0000000010169,0.533330305580653
9000.00000001521,53.035485526034,1.00000000078405,0.507454067583741
9100.00000001557,52.4708166115139,1.00000000061496,0.465215333768935
9200.00000001594,51.9299253549008,1.00000000067394,0.468560989769079
9300.0000000163,51.407220990539,1.00000000087353,0.483831542377996
9400.00000001667,50.897020581426,1.0000000008943,0.505497382674084
9500.00000001703,50.4021027357112,1.00000000072657,0.490921562088192
9600.00000001739,49.9263315210047,1.00000000068525,0.486140520571582
9700.00000001776,49.4638172251094,1.00000000085941,0.510744418536753
9800.00000001812,49.0035697212546,1.00000000104733,0.531455308979433
9900.00000001848,48.5420617511336,1.00000000099013,0.533171370494537
10000.0000000188,48.0897688457728,1.00000000077179,0.508041514057598
10100.0000000192,47.6604627038453,1.00000000063513,0.474883581636677
10200.0000000196,47.2588640983418,1.00000000066804,0.467840327144255
10300.0000000199,46.8778012515513,1.00000000076463,0.479414480688642
10400.0000000203,46.5039624935118,1.00000000093805,0.493603876635581
10500.0000000207,46.1338167372585,1.000000000939,0.510580744982831
10600.000000021,45.7742172564544,1.00000000082091,0.507489712056893
10700.0000000214,45.4324799074529,1.00000000069741,0.492720252424509
10800.0000000218,45.1052889691466,1.00000000077056,0.505271863164323
10900.0000000221,44.783172181136,1.00000000090175,0.523678162069345
11000.0000000225,44.4586948500365,1.00000000096883,0.531809242701066
11100.0000000229,44.1283728771579,1.0000000010412,0.53704195668423
11200.0000000232,43.8002553383909,1.00000000089091,0.527197770673904
11300.0000000236,43.4872141568697,1.00000000071512,0.50289777342357
11400.0000000239,43.1987393983714,1.00000000067408,0.484263013712629
11500.0000000243,42.933580539768,1.00000000075176,0.489245976216433
11600.0000000247,42.6849181050781,1.00000000075627,0.491368620473991
11700.000000025,42.4469244769821,1.00000000081326,0.501276623179564
11800.0000000254,42.2139803139414,1.00000000083045,0.502170357105808
11900.0000000258,41.9868938947936,1.00000000082716,0.502680048219266
12000.0000000261,41.764058729375,1.00000000083639,0.519676911034481
12100.0000000265,41.5432624413755,1.00000000090384,0.530735703111749
12200.0000000269,41.3269387783205,1.0000000008034,0.5325928390861
12300.0000000272,41.1136546140884,1.00000000081177,0.535656533920891
12400.0000000276,40.9059924146215,1.00000000076892,0.528543739142102
12500.0000000279,40.7023509144429,1.00000000084569,0.524641802758752
12600.0000000283,40.4983693425333,1.00000000092262,0.531276280787325
12700.0000000287,40.2885417944968,1.00000000100444,0.540022457689513
12800.000000029,40.076589305905,1.00000000090194,0.536749027740779
12900.0000000294,39.877620785913,1.00000000077999,0.520811025860868
13000.0000000298,39.7010237718921,1.00000000068297,0.50160136279547
13100.0000000301,39.5478283145478,1.00000000075916,0.491273686826981
13200.0000000305,39.4069573803312,1.00000000085404,0.503574786309101
13300.0000000309,39.2696206335418,1.00000000088337,0.512139245933921
13400.0000000312,39.1370649690587,1.00000000081927,0.500447159986635
13500.0000000316,39.0141137915727,1.00000000077196,0.500237796218825
13600.0000000319,38.9027171927886,1.00000000078005,0.512240592428346
13700.0000000323,38.8014191276889,1.00000000078948,0.516068161728146
13800.0000000327,38.7040865808482,1.0000000008394,0.522948109582184
13900.000000033,38.599770590858,1.00000000087909,0.536849645647931
14000.0000000334,38.4817524147327,1.00000000090318,0.549490955572388
14100.0000000338,38.352573406337,1.00000000088249,0.555630347922344
14200.0000000341,38.2176215841582,1.00000000083106,0.558957863378473
14300.0000000345,38.0833210794663,1.00000000078619,0.554709534119407
14400.0000000349,37.9548975029708,1.00000000077187,0.550164411619122
14500.0000000352,37.8317483153742,1.0000000007601,0.545179827102888
14600.0000000356,37.7109717719279,1.00000000088707,0.537643528378693
14700.0000000359,37.5890568030292,1.00000000098897,0.539787713202483
14800.0000000363,37.4634802948178,1.00000000091395,0.544326736640904
14900.0000000367,37.335271710263,1.00000000092861,0.54901671267171
15000.000000037,37.2134051766872,1.00000000082511,0.54268416836082
15100.0000000374,37.1072630620419,1.00000000075083,0.533151370729729
15200.0000000378,37.0201646574157,1.00000000076768,0.519381730807133
15300.0000000381,36.9491051633789,1.00000000080898,0.519288242326284
15400.0000000385,36.8906644803339,1.00000000077505,0.517475400235433
15500.0000000389,36.8394761104219,1.00000000085993,0.51369147137994
15600.0000000392,36.789141493793,1.00000000090339,0.516659376918942
15700.0000000396,36.7417913472368,1.00000000077533,0.513463925736746
15800.0000000399,36.7033626931257,1.0000000007499,0.516440377627086
15900.0000000403,36.6722885834755,1.00000000080095,0.528582140480317
16000.0000000407,36.6423475396828,1.00000000089814,0.543874457067883
16100.000000041,36.6099284202218,1.00000000087982,0.558295670746385
16200.0000000414,36.5761746796904,1.00000000086099,0.559859494997161
16300.0000000418,36.5430336054379,1.00000000079961,0.559989079507013
16400.0000000418,36.5121026179644,1.00000000082578,0.557239920740458
16500.0000000404,36.4804130458009,1.00000000083844,0.554965017600071
16600.0000000389,36.4415357516905,1.00000000092875,0.564120997838292
16700.0000000375,36.390642333986,1.00000000095723,0.565350972473256
16800.000000036,36.3266611178297,1.00000000096291,0.561108930911636
16900.0000000346,36.2492979247662,1.00000000090453,0.565782550970244
17000.0000000331,36.1607993212552,1.000000000926,0.581133771459126
17100.0000000317,36.0677990684019,1.00000000083693,0.584793465263267
17200.0000000302,35.9773318510352,1.00000000078975,0.573421048911216
17300.0000000287,35.8934534072457,1.00000000078762,0.565537170765182
17400.0000000273,35.8166928034348,1.00000000078807,0.560178820649332
17500.0000000258,35.7440463557311,1.00000000084203,0.555304905373916
17600.0000000244,35.6722143768135,1.00000000090248,0.553483541006829
17700.0000000229,35.5993968076146,1.00000000097452,0.560718673059943
17800.0000000215,35.5255593359352,1.00000000092604,0.561734078243925
17900.00000002,35.4501384171499,1.00000000086196,0.561146139287113
18000.0000000186,35.3797378512683,1.00000000081026,0.560367131166056
18100.0000000171,35.3220734463443,1.00000000073624,0.553240739565532
18200.0000000156,35.2806750959001,1.00000000075529,0.548516921062398
18300.0000000142,35.2548566475795,1.00000000074736,0.536659016552642
18400.0000000127,35.2404563660072,1.00000000078164,0.529650229747211
18500.0000000113,35.2320050252197,1.00000000090234,0.533235511569006
18600.0000000098,35.2267797137327,1.00000000087846,0.533902255463523
18700.0000000084,35.2261732548168,1.00000000077804,0.532210138561312
18800.0000000069,35.2326189095658,1.00000000078312,0.528849062553972
18900.0000000055,35.2445006542572,1.00000000081716,0.526898380848831
19000.000000004,35.2583828477463,1.0000000008404,0.528169754343765
19100.0000000026,35.2744722806642,1.00000000084487,0.526771956468748
19200.0000000011,35.2933481033262,1.00000000085519,0.525922272785276
19299.9999999996,35.3128694032645,1.00000000082214,0.536788165077904
19399.9999999982,35.3293533823393,1.0000000008669,0.554919200432282
19499.9999999967,35.339775334109,1.00000000089578,0.565353275697497
19599.9999999953,35.3468243694161,1.00000000087399,0.566410417515947
19699.9999999938,35.3520956145898,1.00000000082272,0.565238840996052
19799.9999999924,35.3559862561976,1.00000000086906,0.565280259250304
19899.9999999909,35.3581175313869,1.00000000087071,0.57033284012021
19999.9999999895,35.3545929005689,1.00000000090073,0.573143332802085
20099.999999988,35.3457576997691,1.00000000085581,0.581921856704798
20199.9999999865,35.333090621791,1.00000000082506,0.590213863961227
20299.9999999851,35.3185367489195,1.00000000084626,0.592635504505017
20399.9999999836,35.2996867733752,1.00000000087651,0.590586901442757
20499.9999999822,35.2742972466187,1.00000000081995,0.587269408392336
20599.9999999807,35.2437327173765,1.00000000081264,0.585463829400451
20699.9999999793,35.208577285817,1.00000000087034,0.581705428525509
20799.9999999778,35.1671025384671,1.00000000091557,0.572590663694313
20899.9999999764,35.1166738355896,1.00000000094154,0.566599737132428
20999.9999999749,35.0568115634361,1.00000000096905,0.578436770149859
21099.9999999734,34.9886048722088,1.00000000091859,0.582591885812818
21199.999999972,34.9149206539276,1.00000000086427,0.584584077867163
21299.9999999705,34.8388486397116,1.00000000083356,0.583869943412099
21399.9999999691,34.763928933262,1.00000000083856,0.58602850302522
21499.9999999676,34.6926460164768,1.00000000075723,0.580936050966291
21599.9999999662,34.6265382096552,1.00000000079425,0.579663417703448
21699.9999999647,34.5647298574332,1.00000000083566,0.576969507098389
21799.9999999633,34.5059386629587,1.00000000084548,0.573276581685609
21899.9999999618,34.450214558636,1.00000000085475,0.574905048468466
21999.9999999603,34.3964205565123,1.00000000090162,0.572888298582027
22099.9999999589,34.3436230782048,1.00000000096978,0.571455101925417
22199.9999999574,34.2904840776299,1.00000000094389,0.563284157420127
22299.999999956,34.2379107472486,1.00000000090845,0.555699445562283
22399.9999999545,34.1864094313865,1.00000000087306,0.553592858009171
22499.9999999531,34.1397261418523,1.00000000081166,0.555028273893954
22599.9999999516,34.1024226870026,1.0000000007873,0.558187242912259
22699.9999999502,34.0780330098713,1.00000000077708,0.559288428449148
22799.9999999487,34.0664166445257,1.00000000080803,0.556337024245308
22899.9999999473,34.0650752477685,1.00000000081977,0.550307726233127
22999.9999999458,34.0731714983208,1.00000000081907,0.550437874757483
23099.9999999443,34.0877820910588,1.00000000080986,0.546728006422084
23199.9999999429,34.1060801045983,1.00000000089621,0.541971017462586
23299.9999999414,34.1279538157414,1.00000000082442,0.538703910554814
23399.99999994,34.154405443139,1.00000000081683,0.538857999531148
23499.9999999385,34.1868695914764,1.00000000083541,0.540257527546205
23599.9999999371,34.2238751334707,1.00000000082025,0.541605233880181
23699.9999999356,34.263371813908,1.00000000082724,0.54323161684187
23799.9999999342,34.3055034592287,1.00000000083299,0.545180093326183
23899.9999999327,34.349744726697,1.00000000083675,0.546890598998638
23999.9999999312,34.3956675679427,1.00000000086214,0.547581743471325
24099.9999999298,34.439749407096,1.00000000088477,0.553610503535855
24199.9999999283,34.4788453197532,1.00000000091107,0.568020272761364
24299.9999999269,34.5128109227598,1.00000000090359,0.577824007343076
24399.9999999254,34.5432877120636,1.00000000088062,0.584659241394845
24499.999999924,34.5702976010484,1.00000000082754,0.585752775351885
24599.9999999225,34.5941352053863,1.0000000008511,0.596261583177598
24699.9999999211,34.6158425972477,1.00000000088397,0.60205417538405
24799.9999999196,34.6358478832504,1.00000000088105,0.597992898538554
24899.9999999181,34.6526392026357,1.00000000082242,0.599886580586949
24999.9999999167,34.6683158523548,1.00000000089075,0.608403587618718
25099.9999999152,34.6821006382696,1.00000000089051,0.609579879319389
25199.9999999138,34.6931423078819,1.00000000084077,0.601683920383892
25299.9999999123,34.7031570166473,1.00000000087044,0.601088101128435
25399.9999999109,34.7112076911574,1.00000000092246,0.601688876785682
25499.9999999094,34.7144194450532,1.0000000008861,0.60145407169641
25599.999999908,34.7133072242115,1.00000000090271,0.613984086015306
25699.9999999065,34.7080195013224,1.00000000093389,0.620497177104199
25799.9999999051,34.7002981683338,1.00000000086237,0.613418090339026
25899.9999999036,34.6907483674417,1.0000000008475,0.616323335975262
25999.9999999021,34.6778507440869,1.00000000087728,0.617185597150597
26099.9999999007,34.6624798642804,1.00000000080926,0.617196859539656
26199.9999998992,34.646836932855,1.00000000088099,0.607704727318892
26299.9999998978,34.6300915827464,1.00000000086833,0.599933601673928
26399.9999998963,34.6108614167445,1.00000000085351,0.596531807299987
26499.9999998949,34.5886343056927,1.00000000089163,0.598506158576377
26599.9999998934,34.5621658507454,1.00000000095515,0.611661539145897
26699.999999892,34.5302081643286,1.00000000095515,0.612351875200978
26799.9999998905,34.4948534585306,1.00000000089528,0.611974981679681
26899.999999889,34.4583311467403,1.00000000085925,0.61745959402616
26999.9999998876,34.4218780515209,1.00000000087392,0.616591207405512
27099.9999998861,34.386260058305,1.00000000082008,0.618609284871591
27199.9999998847,34.350239536449,1.00000000088346,0.621590539076928
27299.9999998832,34.3116757173632,1.0000000008835,0.621954832449788
27399.9999998818,34.2710794851764,1.00000000088796,0.616458404277973
27499.9999998803,34.228377817235,1.00000000085993,0.613480033894104
27599.9999998789,34.1821909304829,1.00000000089759,0.614655401645282
27699.9999998774,34.1330511669431,1.00000000091785,0.616062146642552
27799.9999998759,34.0808133934219,1.00000000089966,0.615154273497864
27899.9999998745,34.025541146289,1.00000000098844,0.617863280877762
27999.999999873,33.9670070014578,1.00000000091164,0.61479650634949
28099.9999998716,33.9043058415798,1.00000000092509,0.619403392175923
28199.9999998701,33.8380475334041,1.00000000094865,0.626323087348989
28299.9999998687,33.7687884016467,1.00000000088873,0.628086184610383
28399.9999998672,33.697552529801,1.00000000096402,0.63338214914141
28499.9999998658,33.6256979804889,1.00000000090056,0.632606423293123
28599.9999998643,33.5542090894622,1.00000000081047,0.627286626574984
28699.9999998629,33.4846649335307,1.0000000008203,0.623779831826047
28799.9999998614,33.4179846349302,1.00000000078746,0.615130023362307
28899.9999998599,33.3547245550055,1.00000000085768,0.612725100161453
28999.9999998585,33.2947379366205,1.00000000082735,0.614456799526192
