Time,AGPnorm,Energy,Entropy
0,0,1,-7.70652890346343e-17
99.9999999999986,0.00147416046733882,0.999999999999211,0.00471692224964145
199.999999999993,0.0102757799674008,1.00000000000214,0.0138636588539753
300,0.0204046070520707,1.00000000000401,0.0260007392100741
400.000000000022,0.0310247092814017,1.00000000000178,0.0412009589446991
500.000000000045,0.0440589570864594,0.999999999998704,0.0593234456036485
600.000000000068,0.0609079482289456,1.00000000000047,0.0804169940186304
700.000000000091,0.0763653038583398,1.00000000000363,0.105054302973194
800.000000000113,0.0922782513061878,1.00000000000372,0.133925117610562
900.000000000136,0.109098187889814,1.00000000000394,0.169044183412048
1000.00000000016,0.125478521911002,1.0000000000365,0.213209928492397
1100.0000000001,0.143509361263576,1.00000000017476,0.266923913318972
1200,0.181388675304219,1.00000000045643,0.322575145448596
1299.99999999991,0.262687956198249,1.00000000084977,0.373256160749604
1399.99999999982,0.453153320397827,1.00000000114198,0.416676400156457
1499.99999999973,0.858936389811931,1.00000000146016,0.453230494394156
1599.99999999964,1.57071980707388,1.00000000170294,0.484454806310562
1699.99999999955,2.66057522150768,1.00000000197214,0.51033970009018
1799.99999999946,4.19124112642744,1.00000000206316,0.530572581930012
1899.99999999937,6.15068615425298,1.0000000021392,0.546392221621858
1999.99999999928,8.48130280534776,1.00000000217506,0.5598518222069
2099.99999999919,11.1602694106046,1.00000000218,0.57058674728531
2199.99999999909,14.1651649377448,1.00000000216586,0.577364143763683
2299.999999999,17.3946391877059,1.00000000212213,0.581648375457839
2399.99999999891,20.7157362081715,1.00000000200254,0.585687848408484
2499.99999999882,24.0610955836821,1.00000000205884,0.588376513703489
2599.99999999873,27.4078506211056,1.00000000209342,0.588322765396274
2699.99999999864,30.6951507721123,1.0000000018777,0.587763606172161
2799.99999999855,33.8254863683801,1.00000000185239,0.586939401412485
2899.99999999846,36.741949271007,1.00000000169867,0.586942243584423
2999.99999999837,39.4367221610567,1.00000000165727,0.584138771660102
3099.99999999828,41.9082704590192,1.00000000160615,0.58038582420341
3199.99999999819,44.1251056366965,1.00000000164947,0.578200312610291
3299.99999999809,46.0542376613404,1.00000000153757,0.578369086798659
3399.999999998,47.6937370451109,1.00000000151966,0.576301977363649
3499.99999999791,49.0678334305069,1.00000000139451,0.572719763482476
3599.99999999782,50.1868376637339,1.00000000135792,0.573821488594017
3699.99999999773,51.0503994417524,1.00000000127535,0.566411343688424
3799.99999999764,51.6701982326697,1.00000000128949,0.573473591309701
3899.99999999755,52.0554005251261,1.00000000121746,0.564498704293984
3999.99999999746,52.2534543868403,1.00000000122251,0.571842621767072
4099.99999999738,52.2733245525561,1.00000000109077,0.554560239704628
4199.99999999775,52.1391470144975,1.00000000128988,0.576249262658812
4299.99999999811,51.8845464004987,1.00000000112231,0.547681891270005
4399.99999999848,51.4936179318351,1.00000000131041,0.570349864180179
4499.99999999884,51.058025831403,1.0000000012614,0.559189707193208
4599.9999999992,50.5196338925955,1.00000000095557,0.524989038051015
4699.99999999957,49.93907920802,1.00000000147232,0.579945044393406
4799.99999999993,49.340778158935,1.00000000104118,0.527211731919487
4900.00000000029,48.6641525014429,1.00000000108775,0.524845335263493
5000.00000000066,47.9939902257889,1.00000000157258,0.578340326492687
5100.00000000102,47.3326782012145,1.00000000102873,0.515224151145829
5200.00000000139,46.621021187553,1.00000000104687,0.501274832657883
5300.00000000175,45.9107760860094,1.00000000168965,0.576340398004677
5400.00000000211,45.2333657637556,1.00000000126603,0.524682988237529
5500.00000000248,44.5406437220284,1.00000000089759,0.483325689910686
5600.00000000284,43.8328784354954,1.00000000127133,0.517947513907422
5700.00000000321,43.1512640037512,1.00000000173633,0.564485617909236
5800.00000000357,42.4938631452004,1.00000000118899,0.498719269344917
5900.00000000393,41.8337750213728,1.0000000009932,0.482749375047881
6000.0000000043,41.1734223611503,1.00000000128703,0.505205348362737
6100.00000000466,40.5320762517012,1.00000000157425,0.546300973549073
6200.00000000502,39.9147643879937,1.00000000146401,0.52278607558749
6300.00000000539,39.3102668756226,1.00000000101834,0.482344207873137
6400.00000000575,38.7150299593761,1.00000000118197,0.50318001760861
6500.00000000612,38.1312616309955,1.00000000123482,0.509317208291563
6600.00000000648,37.5636403824141,1.00000000137722,0.531115272302518
6700.00000000684,37.0129141880496,1.0000000014237,0.525901667425496
6800.00000000721,36.4791166600678,1.00000000113491,0.488393295493619
6900.00000000757,35.962985924006,1.00000000117017,0.505996776233808
7000.00000000793,35.4613488684885,1.00000000130608,0.528742138687626
7100.0000000083,34.9754088097932,1.00000000114751,0.504651657231476
7200.00000000866,34.5048879802472,1.0000000013976,0.52534031057976
7300.00000000903,34.0456817317437,1.00000000146902,0.525105202325161
7400.00000000939,33.6018702199419,1.00000000106593,0.500258886342636
7500.00000000975,33.1799796305383,1.00000000106994,0.49829409937792
7600.00000001012,32.7726907964824,1.00000000144545,0.525182102969856
7700.00000001048,32.3752658654128,1.00000000128604,0.528768551866552
7800.00000001084,31.9969412736116,1.00000000105274,0.488189532391473
7900.00000001121,31.6340971866293,1.00000000128557,0.513883498787075
8000.00000001157,31.2764113904944,1.0000000015119,0.530643089125092
8100.00000001194,30.9263735068097,1.00000000125152,0.513895914210036
8200.0000000123,30.5968213219269,1.00000000107096,0.497592378172145
8300.00000001266,30.2862070560223,1.00000000118822,0.513071273538794
8400.00000001303,29.9812720751242,1.00000000146448,0.52339055728657
8500.00000001339,29.6803721865989,1.00000000134483,0.525463344632232
8600.00000001376,29.3970994637539,1.00000000110261,0.506678664978695
8700.00000001412,29.1305712857056,1.00000000120662,0.501921153656351
8800.00000001448,28.8710967002432,1.00000000144294,0.533517856170882
8900.00000001485,28.6128241172043,1.00000000143655,0.534507819486763
9000.00000001521,28.3603823050629,1.00000000125843,0.517341792175522
9100.00000001557,28.1264870175142,1.0000000011608,0.510098419667613
9200.00000001594,27.9063132581803,1.0000000012451,0.52523616352883
9300.0000000163,27.694609507512,1.00000000123078,0.529796330020253
9400.00000001667,27.4878154393164,1.00000000128454,0.523801529204742
9500.00000001703,27.2857987159797,1.00000000134108,0.520560017516625
9600.00000001739,27.0903358104841,1.00000000125193,0.537280233509778
9700.00000001776,26.9038720868714,1.00000000122807,0.530571814528197
9800.00000001812,26.7256787192319,1.00000000126647,0.526694169332908
9900.00000001848,26.5542909471809,1.00000000133087,0.540045659214617
10000.0000000188,26.3862867373118,1.00000000140724,0.53847986051758
10100.0000000192,26.2222394217721,1.00000000127237,0.533173310181398
10200.0000000196,26.0704058314936,1.00000000113471,0.523674186933776
10300.0000000199,25.9341715634929,1.0000000011818,0.5224388224541
10400.0000000203,25.8008769836916,1.00000000144809,0.541323265450284
10500.0000000207,25.6670385812151,1.00000000133844,0.536750971969965
10600.000000021,25.5462897927499,1.00000000112653,0.517657081231246
10700.0000000214,25.4368142743216,1.00000000121847,0.526163353609722
10800.0000000218,25.3277964300379,1.00000000135005,0.531668004856913
10900.0000000221,25.211404265159,1.00000000147341,0.554807519645278
11000.0000000225,25.0897726396063,1.00000000131466,0.562593393509104
11100.0000000229,24.97207493098,1.00000000125706,0.550089012953279
11200.0000000232,24.8610717234873,1.00000000129862,0.547661233511247
11300.0000000236,24.7565100112287,1.00000000144736,0.551138250197235
11400.0000000239,24.6552106318532,1.00000000131441,0.546809582364146
11500.0000000243,24.5573132388232,1.00000000136474,0.54160363235045
11600.0000000247,24.466541623273,1.00000000123976,0.538884297769168
11700.000000025,24.3876188765915,1.00000000118384,0.538453436182772
11800.0000000254,24.3163618426011,1.00000000130441,0.545079154898952
11900.0000000258,24.2490034495529,1.00000000134178,0.545519179979088
12000.0000000261,24.1792392538062,1.00000000139316,0.547896745951637
12100.0000000265,24.1122939445961,1.00000000127621,0.543281993526075
12200.0000000269,24.0554300288636,1.00000000120279,0.530273874543045
12300.0000000272,24.0087252571115,1.00000000126701,0.542109736174075
12400.0000000276,23.9635311667066,1.00000000142459,0.562154364559751
12500.0000000279,23.9150990103242,1.00000000137641,0.553086802015699
12600.0000000283,23.8610652100898,1.00000000140548,0.56428527955861
12700.0000000287,23.7987832836959,1.00000000138176,0.563071665872579
12800.000000029,23.7293036182692,1.00000000137657,0.577375735588081
12900.0000000294,23.6554135347419,1.00000000131304,0.581186072480456
13000.0000000298,23.5813324027741,1.000000001262,0.576579363531281
13100.0000000301,23.5133437724274,1.00000000122209,0.56409625928043
13200.0000000305,23.4532310896877,1.00000000134818,0.560884259969886
13300.0000000309,23.3988686514702,1.00000000136987,0.550302255670488
13400.0000000312,23.348102515976,1.00000000133239,0.547142294231498
13500.0000000316,23.3034034217205,1.00000000125956,0.551705850586882
13600.0000000319,23.2665574612673,1.00000000128605,0.555010150809383
13700.0000000323,23.2382807217583,1.00000000123799,0.555560741914352
13800.0000000327,23.2145718278835,1.00000000137435,0.55687717130496
13900.000000033,23.1873097712351,1.00000000134713,0.560387973729442
14000.0000000334,23.162969085222,1.00000000134892,0.556218176922866
14100.0000000338,23.1442708521455,1.00000000119512,0.542673063739871
14200.0000000341,23.1299717214904,1.00000000126126,0.541568707402618
14300.0000000345,23.1178952711966,1.00000000130304,0.552472923716343
14400.0000000349,23.1090684537101,1.00000000131539,0.562650766880607
14500.0000000352,23.1027366817478,1.00000000128808,0.574277986771917
14600.0000000356,23.095249955152,1.00000000138095,0.583731381333106
14700.0000000359,23.0825790397609,1.00000000139927,0.593408708696177
14800.0000000363,23.0647415472684,1.00000000136287,0.597488344774961
14900.0000000367,23.0445609518,1.00000000127388,0.591955165563402
15000.000000037,23.0227404159467,1.00000000140726,0.59340852636491
15100.0000000374,22.9976837029536,1.00000000133668,0.588995629421844
15200.0000000378,22.96420003561,1.00000000142778,0.595840141881808
15300.0000000381,22.92247679232,1.00000000140384,0.59497842780385
15400.0000000385,22.8716701760041,1.00000000136295,0.602174993573329
15500.0000000389,22.8172986878002,1.00000000137215,0.605403961201822
15600.0000000392,22.7638295907605,1.00000000128728,0.602701935480445
15700.0000000396,22.7148338542317,1.00000000133027,0.593628106333129
15800.0000000399,22.673411180898,1.00000000138183,0.587202534670257
15900.0000000403,22.6378753553148,1.00000000138371,0.58385565587431
16000.0000000407,22.6077914237558,1.00000000138979,0.578058633114717
16100.000000041,22.5838253550102,1.00000000132649,0.574339670401168
16200.0000000414,22.5647758482604,1.00000000133308,0.573106025408358
16300.0000000418,22.5529826824034,1.00000000128258,0.573290700334376
16400.0000000418,22.5487735361592,1.00000000129392,0.581564420083664
16500.0000000404,22.5495401602938,1.00000000137489,0.578190066327927
16600.0000000389,22.5503400934392,1.00000000139612,0.575928479427847
16700.0000000375,22.5511756730963,1.00000000138594,0.574094482670022
16800.000000036,22.5534026912888,1.0000000014434,0.56674928491128
16900.0000000346,22.5589557339686,1.00000000138506,0.561164076410358
17000.0000000331,22.5689122944987,1.000000001323,0.565764193121726
17100.0000000317,22.5838210961766,1.00000000135779,0.575346635655268
17200.0000000302,22.6011736272579,1.00000000142434,0.577057643616123
17300.0000000287,22.6173054120307,1.00000000147794,0.582838145876514
17400.0000000273,22.6323730545246,1.00000000138293,0.579844632191265
17500.0000000258,22.6455267215609,1.00000000143757,0.57520499535389
17600.0000000244,22.6591542572137,1.00000000137342,0.585234219068012
17700.0000000229,22.6717515874523,1.00000000145006,0.600855740358819
17800.0000000215,22.6827776759728,1.00000000139235,0.604875253165466
17900.00000002,22.690585690974,1.00000000144985,0.611167817433448
18000.0000000186,22.6945484397885,1.00000000136434,0.614063332623336
18100.0000000171,22.6934897710988,1.00000000149903,0.614414387001845
18200.0000000156,22.6861363913563,1.00000000140485,0.612697995870121
18300.0000000142,22.6782726379618,1.00000000136582,0.621659531443421
18400.0000000127,22.6689987274196,1.00000000140173,0.627559411986102
18500.0000000113,22.6553645367242,1.00000000148675,0.631451105075614
18600.0000000098,22.6382361881532,1.00000000135863,0.629166380953741
18700.0000000084,22.61695497825,1.00000000139149,0.626771038955923
18800.0000000069,22.5928588220229,1.00000000138581,0.622961843136435
18900.0000000055,22.564337826743,1.00000000142063,0.623728150967589
19000.000000004,22.5299399802893,1.0000000015064,0.621024071606654
19100.0000000026,22.4895243459785,1.00000000147978,0.625145765779046
19200.0000000011,22.44301118136,1.00000000151421,0.621997510664334
19299.9999999996,22.3934915503325,1.00000000146221,0.620628244756593
19399.9999999982,22.3445736125354,1.00000000140433,0.622134274752953
19499.9999999967,22.2977445874052,1.0000000013518,0.617325485257954
19599.9999999953,22.2552606159468,1.00000000131319,0.613113377859004
19699.9999999938,22.2187467459049,1.00000000135133,0.609451484517808
19799.9999999924,22.1873635438883,1.00000000137956,0.607088180833995
19899.9999999909,22.1605199346776,1.00000000153432,0.609013552205201
19999.9999999895,22.1379776042138,1.00000000147459,0.606065733911002
20099.999999988,22.1204390232197,1.00000000140335,0.592165960480464
20199.9999999865,22.1089250241346,1.00000000139143,0.580870277107945
20299.9999999851,22.1046436910189,1.00000000143424,0.579782866961505
20399.9999999836,22.1061094003025,1.00000000138291,0.577495451423734
20499.9999999822,22.113763226446,1.00000000145575,0.58723537369246
20599.9999999807,22.1253211745101,1.00000000147826,0.598317866450347
20699.9999999793,22.1388759546545,1.00000000144583,0.59376747244312
20799.9999999778,22.1541617756656,1.00000000146401,0.590589262604573
20899.9999999764,22.1698688356622,1.00000000144771,0.589520813236587
20999.9999999749,22.1868174141854,1.00000000147692,0.583063987709678
21099.9999999734,22.2061116979135,1.00000000142953,0.576209132562393
21199.999999972,22.2305517010985,1.00000000140505,0.570869840692989
21299.9999999705,22.2598496251448,1.00000000140482,0.575122138148445
21399.9999999691,22.2905677431309,1.00000000150469,0.579126399058879
21499.9999999676,22.3199517496512,1.00000000153343,0.583980240124225
21599.9999999662,22.3504786208877,1.00000000141779,0.586482285751887
21699.9999999647,22.3827338637849,1.00000000142011,0.589495427486634
21799.9999999633,22.4141134194541,1.00000000156838,0.591808334441533
21899.9999999618,22.4417685646367,1.00000000156208,0.597164999054516
21999.9999999603,22.4645130443138,1.00000000154401,0.604073685546153
22099.9999999589,22.4845514887722,1.00000000142264,0.610380900387306
22199.9999999574,22.5030488981838,1.00000000150931,0.627262282546682
22299.999999956,22.520049778413,1.00000000155412,0.634873010271551
22399.9999999545,22.5341079838802,1.00000000151488,0.632606470416223
22499.9999999531,22.5445694200431,1.00000000158552,0.634833791529309
22599.9999999516,22.5534682909147,1.00000000155383,0.630771065096882
22699.9999999502,22.5632333166649,1.00000000145105,0.632811375686669
22799.9999999487,22.5743327088904,1.00000000150738,0.635065734133544
22899.9999999473,22.5863686037972,1.00000000147214,0.637218292925025
22999.9999999458,22.5987357349229,1.00000000148466,0.637837040894139
23099.9999999443,22.6083120085285,1.00000000157036,0.636397594850458
23199.9999999429,22.6119700209939,1.00000000156423,0.637321843760166
23299.9999999414,22.6126571109313,1.00000000156592,0.641274736010513
23399.99999994,22.6102569840206,1.00000000154277,0.643366857784611
23499.9999999385,22.6052753801513,1.00000000154345,0.642822814100999
23599.9999999371,22.5989154103948,1.00000000152099,0.641243170441152
23699.9999999356,22.5914163377998,1.00000000149058,0.644819660488838
23799.9999999342,22.5847866168503,1.00000000154957,0.640192294831119
23899.9999999327,22.579551245855,1.00000000148582,0.63914131390909
23999.9999999312,22.5738229046569,1.00000000157495,0.641581946671162
24099.9999999298,22.5658758528072,1.00000000157881,0.637523942554422
24199.9999999283,22.5531971406846,1.00000000155475,0.63915619913473
24299.9999999269,22.5365437573865,1.00000000153305,0.639577502873627
24399.9999999254,22.5192537156985,1.00000000149705,0.640503581186425
24499.999999924,22.4998064275552,1.00000000163282,0.646626604058989
24599.9999999225,22.4778938281249,1.00000000146861,0.64454891914311
24699.9999999211,22.4557708442667,1.00000000153862,0.647943621276058
24799.9999999196,22.4322797275067,1.00000000154969,0.650364737014228
24899.9999999181,22.4064814414746,1.00000000148645,0.641763307411136
24999.9999999167,22.3801198209518,1.00000000156893,0.638629700643298
25099.9999999152,22.3513626478093,1.00000000147994,0.640990000674324
25199.9999999138,22.3197168544094,1.00000000157302,0.638056101336859
25299.9999999123,22.2855892893925,1.00000000156944,0.640116768447014
25399.9999999109,22.2497097278122,1.00000000162001,0.645603737050117
25499.9999999094,22.2109997776096,1.00000000161234,0.650193691816565
25599.999999908,22.1695051922235,1.00000000162494,0.64481043145379
25699.9999999065,22.1261866393439,1.00000000157849,0.645445993676105
25799.9999999051,22.082240539754,1.00000000159322,0.646354909580558
25899.9999999036,22.0384948813239,1.00000000156357,0.647829093727003
25999.9999999021,21.9961263231113,1.00000000150443,0.640332717076577
26099.9999999007,21.9570630624135,1.00000000148625,0.63315038311323
26199.9999998992,21.9213834614101,1.00000000143171,0.622103432295335
26299.9999998978,21.8893858164264,1.00000000146738,0.619867346957137
26399.9999998963,21.8616238145501,1.00000000152929,0.618800907348235
26499.9999998949,21.8375957549617,1.0000000015809,0.619845207734657
26599.9999998934,21.8167194538234,1.00000000164011,0.627490172235304
26699.999999892,21.7996802991003,1.00000000147033,0.627618321626821
26799.9999998905,21.7875271701196,1.00000000153091,0.621712904648031
26899.999999889,21.7799595332981,1.00000000155252,0.621125774040937
26999.9999998876,21.7780684656026,1.00000000150436,0.614173619569738
27099.9999998861,21.7826524308641,1.0000000014605,0.606971381380972
27199.9999998847,21.7917593450829,1.00000000158562,0.606849287902551
27299.9999998832,21.8058820193988,1.00000000148147,0.607287449275563
27399.9999998818,21.8246095090436,1.00000000162878,0.609685448745059
27499.9999998803,21.8445307173068,1.00000000159276,0.604344217165728
27599.9999998789,21.8679640697055,1.00000000158331,0.600929306143722
27699.9999998774,21.8930675806142,1.00000000158088,0.598890284609664
27799.9999998759,21.9188556594478,1.00000000168285,0.599016851176904
27899.9999998745,21.9462954374689,1.00000000157615,0.590246906047428
27999.999999873,21.9761714548893,1.00000000154811,0.599631821893462
28099.9999998716,22.0072518690723,1.00000000165621,0.597559668981795
28199.9999998701,22.0392127390061,1.00000000158015,0.591093611548239
28299.9999998687,22.0757231707605,1.0000000015275,0.589548144930717
28399.9999998672,22.1166620175438,1.0000000015578,0.590355353597474
28499.9999998658,22.1583452669419,1.00000000160284,0.594428942608128
28599.9999998643,22.2008944491283,1.00000000158032,0.595705934317057
28699.9999998629,22.2466137127427,1.00000000157523,0.601088208670873
28799.9999998614,22.292138147269,1.00000000158622,0.607020301661204
28899.9999998599,22.3379169763279,1.00000000158611,0.613728379637595
28999.9999998585,22.382253839522,1.00000000167212,0.612129161349741
