Time,AGPnorm,Energy,Entropy
0,0,1,-1.38347982133506e-17
99.9999999999986,3.23199378858435e-05,1.00000000000287,0.00128630533242435
199.999999999993,0.00269657104136771,1.0000000000005,0.0020152296269872
300,0.00671906946811075,1.00000000000135,0.00364048347613776
400.000000000022,0.00925925504901801,1.00000000000246,0.0061079773130073
500.000000000045,0.0115245741164678,0.999999999999832,0.00824215861752412
600.000000000068,0.016483791277047,1.00000000000272,0.0114756508101572
700.000000000091,0.020270604777017,1.00000000000086,0.0145932136196517
800.000000000113,0.0259148580759101,1.00000000000093,0.0181096732032623
900.000000000136,0.032483886875671,1.00000000000277,0.0221326201663934
1000.00000000016,0.0380953577369535,0.999999999999777,0.0260290115702824
1100.0000000001,0.0451225835332162,1.00000000000245,0.03059264670767
1200,0.0525325076699155,1.00000000000131,0.0351793487858201
1299.99999999991,0.0607102006953395,1.00000000000055,0.040090729643776
1399.99999999982,0.0696541563565541,1.00000000000296,0.0453884573485284
1499.99999999973,0.0780182520381042,0.999999999999856,0.0506752193117825
1599.99999999964,0.0869132316652231,1.00000000000206,0.0565186676567694
1699.99999999955,0.0967111978477296,1.00000000000182,0.0624669921690918
1799.99999999946,0.106851172281869,1.00000000000025,0.0687700832839769
1899.99999999937,0.117153188032988,1.00000000000297,0.075478883933712
1999.99999999928,0.127304925774486,1.00000000000006,0.0822605902481969
2099.99999999919,0.13758959537014,1.00000000000163,0.0896633802626563
2199.99999999909,0.148809677331641,1.00000000000233,0.0973067094586264
2299.999999999,0.160066121437843,1.00000000000006,0.105425616149404
2399.99999999891,0.17073932995624,1.00000000000285,0.114122686317451
2499.99999999882,0.181685676976896,1.00000000000043,0.12311978968837
2599.99999999873,0.192716606538516,1.00000000000133,0.133032469573289
2699.99999999864,0.204443800068974,1.00000000000296,0.143663127091746
2799.99999999855,0.21576420721932,1.00000000000096,0.155188800279395
2899.99999999846,0.226466303589411,1.00000000000516,0.168027364618634
2999.99999999837,0.23693605947566,1.00000000000809,0.181901200855295
3099.99999999828,0.248591782607397,1.00000000001748,0.197347876260401
3199.99999999819,0.260566511397352,1.00000000003512,0.213903289970368
3299.99999999809,0.27025556021275,1.00000000005416,0.230978073468237
3399.999999998,0.286749365644242,1.00000000009074,0.248552169731458
3499.99999999791,0.300446898067382,1.00000000012488,0.265838725814264
3599.99999999782,0.326315894655164,1.00000000017243,0.283110750182335
3699.99999999773,0.367343515553945,1.00000000022039,0.300065985992439
3799.99999999764,0.416799738097501,1.00000000028453,0.316317272324029
3899.99999999755,0.510476130530859,1.00000000033328,0.332395161718364
3999.99999999746,0.633065256654041,1.00000000039394,0.347734689935663
4099.99999999738,0.814142635614692,1.00000000044916,0.362733961436617
4199.99999999775,1.07157733762447,1.00000000049522,0.37718579869742
4299.99999999811,1.39928619048147,1.0000000005381,0.390754224673849
4399.99999999848,1.84558336551145,1.00000000058366,0.40411939300799
4499.99999999884,2.40137698969929,1.00000000063535,0.416558374928811
4599.9999999992,3.09710458492331,1.00000000067358,0.428636336514877
4699.99999999957,3.95152168806446,1.00000000069956,0.440106940707818
4799.99999999993,4.96384542810843,1.00000000076378,0.450604915807813
4900.00000000029,6.17086517928745,1.00000000080809,0.460961490988638
5000.00000000066,7.5626806922915,1.00000000082155,0.470612686250851
5100.00000000102,9.16845740584482,1.00000000082315,0.479701828328354
5200.00000000139,10.9860128692955,1.00000000084272,0.488457211117063
5300.00000000175,13.0181448973184,1.00000000086341,0.496269725592177
5400.00000000211,15.2879998147951,1.00000000086116,0.504029503953931
5500.00000000248,17.7680979766909,1.0000000009392,0.510936166427422
5600.00000000284,20.4925610517276,1.00000000093027,0.517200343161258
5700.00000000321,23.4345197498676,1.00000000090724,0.52375219648647
5800.00000000357,26.5902260709967,1.00000000092498,0.529280553220093
5900.00000000393,29.9826265141536,1.00000000096224,0.534595152998014
6000.0000000043,33.558944737459,1.00000000093384,0.539780585498756
6100.00000000466,37.3575410259443,1.00000000096856,0.543834182790067
6200.00000000502,41.3417880879256,1.00000000093539,0.548607173630863
6300.00000000539,45.4901409005394,1.00000000096934,0.552360947960417
6400.00000000575,49.8371351274213,1.00000000094414,0.555860073859826
6500.00000000612,54.3105337035636,1.00000000097578,0.55946247187657
6600.00000000648,58.9443405231893,1.00000000096227,0.562175354687846
6700.00000000684,63.7108773087038,1.0000000009528,0.565368749777821
6800.00000000721,68.5671332348371,1.00000000094891,0.568086879833818
6900.00000000757,73.5597091784199,1.00000000097202,0.569889423832194
7000.00000000793,78.6126198902142,1.00000000095451,0.572553617334043
7100.0000000083,83.7459132409575,1.00000000095564,0.574186575769542
7200.00000000866,88.9517664974418,1.00000000093856,0.576060996409544
7300.00000000903,94.1709920166122,1.00000000094092,0.577843885932087
7400.00000000939,99.4545511974073,1.00000000093643,0.578653413727158
7500.00000000975,104.737279038109,1.00000000090471,0.580636641161856
7600.00000001012,110.020989075929,1.00000000091002,0.581564306156792
7700.00000001048,115.318505930532,1.00000000089278,0.582343752038141
7800.00000001084,120.564581086206,1.00000000089061,0.583530705439731
7900.00000001121,125.806206168207,1.00000000086298,0.583862218593198
8000.00000001157,130.996363632084,1.00000000086234,0.584711858938463
8100.00000001194,136.121823938909,1.00000000084685,0.585497994465326
8200.0000000123,141.209411623956,1.00000000084642,0.585360920374783
8300.00000001266,146.198612631913,1.00000000084329,0.586140059042869
8400.00000001303,151.125638519014,1.00000000084044,0.585999768778838
8500.00000001339,155.964647584384,1.00000000082009,0.586327851801875
8600.00000001376,160.690354394814,1.00000000083204,0.586458237805524
8700.00000001412,165.339054356592,1.00000000079759,0.586168533068567
8800.00000001448,169.856365335542,1.00000000078942,0.58629419470974
8900.00000001485,174.271041316984,1.00000000077983,0.586605238606312
9000.00000001521,178.569831523106,1.00000000076225,0.585445304038976
9100.00000001557,182.72728544812,1.00000000076461,0.586690883018145
9200.00000001594,186.778032655033,1.00000000074867,0.584764794620874
9300.0000000163,190.680252975511,1.00000000074773,0.585894316723335
9400.00000001667,194.454474067722,1.00000000072838,0.585026793523987
9500.00000001703,198.096352887278,1.00000000072246,0.584445691560661
9600.00000001739,201.583208356036,1.00000000072163,0.585142551350039
9700.00000001776,204.944512388726,1.00000000069494,0.583501215343895
9800.00000001812,208.153025059538,1.00000000067745,0.584224434298027
9900.00000001848,211.218075868229,1.00000000069227,0.583199626462419
10000.0000000188,214.147232885769,1.00000000067189,0.58288620191465
10100.0000000192,216.916977293499,1.00000000067698,0.582266914475781
10200.0000000196,219.555332389822,1.00000000064742,0.58200003480786
10300.0000000199,222.045327090253,1.00000000065821,0.581100115804576
10400.0000000203,224.38817236091,1.00000000064393,0.580895526397837
10500.0000000207,226.599418001595,1.00000000063591,0.581003677883732
10600.000000021,228.65803291404,1.0000000006291,0.580013445810065
10700.0000000214,230.585547601602,1.00000000060492,0.580041329732199
10800.0000000218,232.374732416864,1.00000000061426,0.580535756542038
10900.0000000221,234.023043781755,1.00000000060545,0.578595091272203
11000.0000000225,235.544888829516,1.00000000060813,0.57897363266647
11100.0000000229,236.927497290551,1.00000000058135,0.57932211526146
11200.0000000232,238.187109006281,1.00000000057663,0.577848247453967
11300.0000000236,239.319237668146,1.00000000058873,0.57784776981604
11400.0000000239,240.323065269823,1.00000000057715,0.5773677004394
11500.0000000243,241.212437520892,1.00000000054993,0.578040109043697
11600.0000000247,241.978582859514,1.00000000056728,0.578453599158796
11700.000000025,242.635483170324,1.00000000052945,0.574804219852741
11800.0000000254,243.177533247638,1.0000000005433,0.576038930814441
11900.0000000258,243.609270420056,1.00000000056617,0.579773343168386
12000.0000000261,243.94904549508,1.00000000053167,0.575753752614324
12100.0000000265,244.17967497008,1.00000000050074,0.571201421429224
12200.0000000269,244.312356173038,1.00000000052206,0.575811247224018
12300.0000000272,244.359705528825,1.00000000053408,0.579284831660829
12400.0000000276,244.321251037393,1.00000000052253,0.574463655895369
12500.0000000279,244.200717403575,1.00000000046985,0.567166555349665
12600.0000000283,243.988079322382,1.00000000049986,0.571265986781598
12700.0000000287,243.708058230115,1.00000000054686,0.579924044662306
12800.000000029,243.371574562566,1.0000000005324,0.573982779259586
12900.0000000294,242.962470740444,1.00000000046556,0.562369131447133
13000.0000000298,242.479265565521,1.00000000047159,0.562087837351172
13100.0000000301,241.934745046762,1.00000000056528,0.579007499380219
13200.0000000305,241.3538139368,1.00000000057994,0.577472030520265
13300.0000000309,240.730619643156,1.00000000050028,0.562112599574777
13400.0000000312,240.04087886468,1.00000000042747,0.551871052096
13500.0000000316,239.296875770993,1.0000000005298,0.565966011974397
13600.0000000319,238.521260732442,1.00000000059943,0.581705541983873
13700.0000000323,237.728499287341,1.00000000058174,0.57144710780477
13800.0000000327,236.902278077738,1.00000000046828,0.552459974344094
13900.000000033,236.020739982833,1.00000000042514,0.543166401757988
14000.0000000334,235.101117084878,1.00000000054416,0.564703368594002
14100.0000000338,234.168105721425,1.0000000006489,0.58472696447961
14200.0000000341,233.233424349574,1.00000000058366,0.567010746981887
14300.0000000345,232.276726135504,1.00000000048202,0.546893323605013
14400.0000000349,231.276257192284,1.00000000042686,0.532956683747494
14500.0000000352,230.243904392987,1.00000000049968,0.552504596157361
14600.0000000356,229.204413891165,1.00000000067545,0.585577159710169
14700.0000000359,228.176638736376,1.00000000062028,0.571469453504049
14800.0000000363,227.142933015188,1.00000000051479,0.546039930899757
14900.0000000367,226.081541199756,1.00000000041386,0.527390696129376
15000.000000037,224.989711894804,1.00000000045496,0.530588636190245
15100.0000000374,223.884264654664,1.00000000059722,0.567463656974796
15200.0000000378,222.791579544806,1.00000000071953,0.58511300693938
15300.0000000381,221.714132475655,1.00000000060923,0.557550982039599
15400.0000000385,220.628424998941,1.00000000047375,0.531137478257036
15500.0000000389,219.523351631031,1.00000000042712,0.520254326669732
15600.0000000392,218.396179200489,1.00000000048426,0.527888068968978
15700.0000000396,217.265232756401,1.00000000063095,0.565784323556043
15800.0000000399,216.152181806944,1.0000000007205,0.581309072343236
15900.0000000403,215.05330323547,1.00000000065249,0.557274888672214
16000.0000000407,213.95733236063,1.00000000050772,0.525955739441147
16100.000000041,212.848633369177,1.0000000004583,0.517882180999441
16200.0000000414,211.726063864293,1.00000000046511,0.521951690988107
16300.0000000418,210.600019877664,1.00000000055319,0.542831144077934
16400.0000000418,209.483338909113,1.00000000069901,0.573165241667788
16500.0000000404,208.384764117177,1.00000000070518,0.569635945239478
16600.0000000389,207.298305490486,1.00000000058129,0.536241842290239
16700.0000000375,206.210885171874,1.00000000048017,0.516343820927222
16800.000000036,205.119278103117,1.0000000004646,0.51778807947899
16900.0000000346,204.021186875888,1.00000000050221,0.5243255451131
17000.0000000331,202.925455139893,1.00000000057889,0.538696307812527
17100.0000000317,201.84004707891,1.00000000065781,0.559671495466464
17200.0000000302,200.768330616713,1.00000000066207,0.562761507097397
17300.0000000287,199.709737353305,1.00000000061195,0.538408526310773
17400.0000000273,198.655648936975,1.00000000051143,0.515793970285938
17500.0000000258,197.603011465457,1.00000000048407,0.516179980250493
17600.0000000244,196.550894259119,1.00000000050599,0.524906423164168
17700.0000000229,195.500965390956,1.0000000005405,0.529282943244627
17800.0000000215,194.458152580064,1.00000000056892,0.535482191576134
17900.00000002,193.424998980898,1.0000000006381,0.548093478373866
18000.0000000186,192.403265134117,1.00000000066198,0.549782139751988
18100.0000000171,191.39212395877,1.00000000058442,0.532790982218712
18200.0000000156,190.387189768901,1.00000000053652,0.517379500315105
18300.0000000142,189.388175825721,1.00000000051549,0.518450958222553
18400.0000000127,188.393578136798,1.00000000050257,0.527163139100641
18500.0000000113,187.404808570806,1.0000000005404,0.530381886377735
18600.0000000098,186.422674300687,1.00000000053606,0.526741468724323
18700.0000000084,185.448139016919,1.0000000005763,0.529993040791021
18800.0000000069,184.483006377228,1.0000000006226,0.536705043680075
18900.0000000055,183.527595745564,1.00000000062092,0.540585241652529
19000.000000004,182.580517580694,1.00000000057395,0.530402023865976
19100.0000000026,181.642002582986,1.00000000054311,0.522097455408508
19200.0000000011,180.71073981539,1.00000000053692,0.523990705247873
19299.9999999996,179.78769739652,1.00000000052738,0.532264709273979
19399.9999999982,178.871523335284,1.00000000052263,0.5301060546922
19499.9999999967,177.962780681908,1.00000000051615,0.52312232518208
19599.9999999953,177.062068903923,1.00000000054139,0.520431874669353
19699.9999999938,176.169627248378,1.00000000057337,0.525682058445203
19799.9999999924,175.285867206946,1.00000000057635,0.533601407441779
19899.9999999909,174.41080566987,1.00000000058878,0.538946565366604
19999.9999999895,173.543886218647,1.00000000054993,0.534747087512683
20099.999999988,172.68561737311,1.00000000056306,0.529623951321942
20199.9999999865,171.835782453231,1.0000000005503,0.532238640155797
20299.9999999851,170.994980555146,1.00000000052599,0.535820965339365
20399.9999999836,170.162623016718,1.00000000049525,0.529636666106084
20499.9999999822,169.338969948975,1.00000000048829,0.519302621172533
20599.9999999807,168.52412221978,1.00000000050648,0.515242665184298
20699.9999999793,167.717975408786,1.00000000055935,0.519423771464613
20799.9999999778,166.920396703801,1.00000000056713,0.524188731906071
20899.9999999764,166.131004333525,1.0000000005966,0.535490339387781
20999.9999999749,165.349183250484,1.00000000056204,0.542414174188773
21099.9999999734,164.575305222178,1.00000000056348,0.539612801362616
21199.999999972,163.809262946002,1.00000000055607,0.535175586349513
21299.9999999705,163.051282442797,1.00000000057399,0.540533710056738
21399.9999999691,162.30153811918,1.00000000056604,0.538940554944394
21499.9999999676,161.56134610574,1.00000000050051,0.529777461409741
21599.9999999662,160.831592517454,1.0000000004658,0.516338766132992
21699.9999999647,160.112406513059,1.00000000048382,0.506511205788682
21799.9999999633,159.403030588301,1.00000000054644,0.511299722525456
21899.9999999618,158.702190556182,1.00000000057497,0.519431781878865
21999.9999999603,158.00863265387,1.00000000059142,0.525430587604836
22099.9999999589,157.32178190949,1.00000000055471,0.531300309474473
22199.9999999574,156.641535655769,1.00000000057501,0.539635009321279
22299.999999956,155.968030307768,1.00000000054575,0.540880081602269
22399.9999999545,155.301070254976,1.00000000057777,0.53937414300169
22499.9999999531,154.639967397079,1.0000000006149,0.546039312171929
22599.9999999516,153.984918042272,1.00000000061494,0.543533832289798
22699.9999999502,153.338218279022,1.00000000053922,0.530282667414663
22799.9999999487,152.703156745719,1.00000000045364,0.516318724970049
22899.9999999473,152.081151482548,1.00000000043156,0.504212393795948
22999.9999999458,151.471648213041,1.00000000047585,0.499361319077604
23099.9999999443,150.871465196161,1.00000000057195,0.508400263639559
23199.9999999429,150.278196638716,1.00000000061423,0.51893348058544
23299.9999999414,149.69019968859,1.00000000059116,0.520492826239195
23399.99999994,149.10773524075,1.00000000058596,0.518204234222435
23499.9999999385,148.530753223958,1.00000000057576,0.530707395098909
23599.9999999371,147.958347675322,1.00000000056887,0.543166097082294
23699.9999999356,147.3897916028,1.00000000059986,0.545504808594703
23799.9999999342,146.824750085616,1.00000000061913,0.546088575975436
23899.9999999327,146.263019507651,1.0000000006219,0.546408777122221
23999.9999999312,145.706502799936,1.00000000057455,0.537942559411777
24099.9999999298,145.158526416266,1.00000000050808,0.522353963958369
24199.9999999283,144.622386527065,1.00000000047039,0.511031012885952
24299.9999999269,144.100748402548,1.00000000043646,0.505041748683061
24399.9999999254,143.591702455587,1.00000000049128,0.50288894598475
24499.999999924,143.092924966974,1.00000000053091,0.501225232913094
24599.9999999225,142.601225413903,1.00000000058022,0.508640155534551
24699.9999999211,142.114609584138,1.00000000060094,0.514724260394844
24799.9999999196,141.632083346018,1.00000000058012,0.51518897906871
24899.9999999181,141.15341090535,1.00000000054967,0.514798222296137
24999.9999999167,140.677667757806,1.00000000059006,0.527523098596559
25099.9999999152,140.203308183052,1.00000000058038,0.540458017960555
25199.9999999138,139.729720189773,1.00000000060121,0.547633904106167
25299.9999999123,139.257485852929,1.00000000059854,0.546618584146865
25399.9999999109,138.787671881765,1.00000000062342,0.541199934771992
25499.9999999094,138.321699346212,1.00000000058531,0.536275058324706
25599.999999908,137.861727270339,1.00000000054234,0.528492750978077
25699.9999999065,137.410536197874,1.00000000050261,0.518932026550193
25799.9999999051,136.970813754744,1.00000000050655,0.510801499619446
25899.9999999036,136.543059248147,1.00000000046975,0.511615636619533
25999.9999999021,136.127523014879,1.00000000049694,0.508828813978165
26099.9999999007,135.72227396731,1.00000000051784,0.504766649985866
26199.9999998992,135.325664648953,1.0000000005248,0.50158481904828
26299.9999998978,134.936245908321,1.0000000005625,0.508821007855185
26399.9999998963,134.5508996798,1.00000000060145,0.514200046968821
26499.9999998949,134.168176003845,1.00000000058321,0.518830170641456
26599.9999998934,133.786835511164,1.00000000058487,0.520706461325261
26699.999999892,133.405179499833,1.00000000060406,0.528778825973239
26799.9999998905,133.022956391972,1.00000000060585,0.53464924738495
26899.999999889,132.639503338185,1.00000000062698,0.543301692054213
26999.9999998876,132.255839531761,1.00000000060625,0.543844882286081
27099.9999998861,131.87422292172,1.00000000054949,0.539209185693343
27199.9999998847,131.496438613614,1.00000000054691,0.534890101850005
27299.9999998832,131.123449558831,1.00000000057675,0.532765279848776
27399.9999998818,130.755674688386,1.00000000056133,0.528920310898485
27499.9999998803,130.394442379235,1.00000000055587,0.524661329886852
27599.9999998789,130.041387006329,1.00000000054255,0.52068704740492
27699.9999998774,129.697459837725,1.00000000050268,0.515989214835595
27799.9999998759,129.365372206473,1.00000000048453,0.512519514076373
27899.9999998745,129.044310517419,1.00000000050175,0.512068389010235
27999.999999873,128.733299617078,1.00000000051561,0.507336775091492
28099.9999998716,128.431004636702,1.0000000005171,0.508755182778896
28199.9999998701,128.135380300729,1.00000000053968,0.512349245634208
28299.9999998687,127.844249035023,1.00000000056783,0.519829305211032
28399.9999998672,127.553924491033,1.00000000060094,0.526294145783089
28499.9999998658,127.263735817796,1.00000000058938,0.533466554590428
28599.9999998643,126.972247586371,1.00000000059959,0.533343367704695
28699.9999998629,126.679035310697,1.00000000059373,0.534909547604249
28799.9999998614,126.383687043968,1.00000000061866,0.537985524855155
28899.9999998599,126.086484193,1.00000000058579,0.540722824788337
28999.9999998585,125.789627060508,1.00000000055052,0.54047489573637
