Time,AGPnorm,Energy,Entropy
0,0,1,-1.35945412255645e-17
99.9999999999986,3.45861727642512e-05,0.999999999999329,0.00144784197118442
199.999999999993,0.00331070906078003,0.999999999997546,0.00240299842805585
300,0.00822591154141034,1.00000000000104,0.00415944375248378
400.000000000022,0.0116535261042855,0.999999999997501,0.00703829581375709
500.000000000045,0.013973660040015,0.999999999999287,0.00964202888495691
600.000000000068,0.0195390569184605,1.00000000000007,0.0131822592244421
700.000000000091,0.0245447391443772,0.999999999997146,0.0169954447207341
800.000000000113,0.0312776582154009,1.00000000000101,0.0209218807547383
900.000000000136,0.0387189176902126,0.999999999997992,0.0255451142192062
1000.00000000016,0.0446776122966519,0.999999999998441,0.0302790825750003
1100.0000000001,0.0535084470720128,1.00000000000077,0.0352710319792967
1200,0.0635570925269947,0.999999999997073,0.0408029444756246
1299.99999999991,0.0724363397787994,1.00000000000053,0.0464822358332655
1399.99999999982,0.081529640617169,0.999999999998647,0.0524912979715112
1499.99999999973,0.0910167170468247,0.999999999997777,0.0589440170073255
1599.99999999964,0.1024627797176,1.00000000000129,0.0655349518130501
1699.99999999955,0.114967059926079,0.999999999997189,0.0727363157330006
1799.99999999946,0.125247300715095,0.999999999999678,0.0802470202476571
1899.99999999937,0.135868982055215,0.999999999999435,0.0879174842379729
1999.99999999928,0.148145585901498,0.999999999997501,0.0963916635695164
2099.99999999919,0.160730636289058,1.00000000000144,0.105206287007855
2199.99999999909,0.173222287924861,0.999999999997504,0.114684000366659
2299.999999999,0.184155596157591,0.999999999998786,0.12485899593972
2399.99999999891,0.196087981850078,1.00000000000034,0.135520365900633
2499.99999999882,0.209689481618063,0.999999999997971,0.14766075906298
2599.99999999873,0.222209133348886,1.00000000000275,0.16087377357599
2699.99999999864,0.233509327059196,1.00000000000346,0.175413094385522
2799.99999999855,0.244171869782674,1.00000000001327,0.191762520864959
2899.99999999846,0.258245190693944,1.0000000000331,0.209274044537866
2999.99999999837,0.269855519356899,1.00000000005698,0.228283756407436
3099.99999999828,0.284262712379339,1.00000000010065,0.247481415965411
3199.99999999819,0.303272721158906,1.00000000014986,0.266327967218953
3299.99999999809,0.322465844932037,1.0000000002091,0.285290716617808
3399.999999998,0.36808387241449,1.00000000029279,0.303624257290339
3499.99999999791,0.425695903733645,1.00000000034839,0.321808822044814
3599.99999999782,0.514323694095739,1.0000000004119,0.339428904061654
3699.99999999773,0.66117238615342,1.00000000047436,0.355761788837096
3799.99999999764,0.853984574389535,1.00000000055563,0.372284997290395
3899.99999999755,1.1348233743776,1.00000000064488,0.387726241679536
3999.99999999746,1.51598850017531,1.00000000068445,0.402255381195005
4099.99999999738,1.99874530979829,1.00000000074808,0.416596400460876
4199.99999999775,2.62979939158157,1.00000000080576,0.42950368335873
4299.99999999811,3.40882007637613,1.00000000084085,0.442561238340827
4399.99999999848,4.34529229641848,1.00000000090493,0.454618751529146
4499.99999999884,5.48629587827182,1.00000000092113,0.465300216089428
4599.9999999992,6.80893860315388,1.00000000097963,0.476204288666572
4699.99999999957,8.33476158624938,1.00000000103608,0.485907590429829
4799.99999999993,10.0989959904397,1.00000000101767,0.495002622845538
4900.00000000029,12.0562466577321,1.00000000105961,0.504074634966929
5000.00000000066,14.2575090685243,1.00000000107866,0.511471265455444
5100.00000000102,16.6880915649546,1.00000000108769,0.51937434586659
5200.00000000139,19.312979142203,1.00000000111598,0.526351148035881
5300.00000000175,22.2000385613667,1.00000000113089,0.532161055392947
5400.00000000211,25.2739327082069,1.00000000112032,0.538639603437087
5500.00000000248,28.5536616803705,1.00000000114698,0.543804423220219
5600.00000000284,32.0601695255573,1.00000000113427,0.548931357877813
5700.00000000321,35.7080181856331,1.00000000116843,0.55405588922239
5800.00000000357,39.5707072095996,1.00000000115221,0.557671369686411
5900.00000000393,43.5851294757314,1.00000000110307,0.562105377945841
6000.0000000043,47.7221204153118,1.00000000114124,0.565671923204515
6100.00000000466,52.0374853547593,1.00000000113263,0.56847819121128
6200.00000000502,56.4268272465396,1.00000000116888,0.571964678425958
6300.00000000539,60.9425920097043,1.0000000011358,0.574224785494911
6400.00000000575,65.5571680234517,1.00000000113836,0.57684473934737
6500.00000000612,70.2036249241387,1.00000000109775,0.57966987212782
6600.00000000648,74.9527073469729,1.00000000111843,0.580968134800491
6700.00000000684,79.7124386417656,1.00000000111084,0.583182944056853
6800.00000000721,84.5021221135309,1.0000000010539,0.584670235303456
6900.00000000757,89.331212281103,1.00000000109174,0.585895502681343
7000.00000000793,94.1156072880068,1.00000000106681,0.587797395695663
7100.0000000083,98.9214411421197,1.00000000104957,0.587822167664266
7200.00000000866,103.685994601254,1.00000000106411,0.588821993068386
7300.00000000903,108.39902271225,1.0000000010353,0.590120784245459
7400.00000000939,113.092302686548,1.0000000010143,0.59060261141279
7500.00000000975,117.686485974308,1.00000000096561,0.591396180402141
7600.00000001012,122.233755559814,1.00000000100558,0.591061139960029
7700.00000001048,126.699153583333,1.00000000100437,0.591592577946033
7800.00000001084,131.054340948237,1.00000000100304,0.592466244560506
7900.00000001121,135.341260147086,1.00000000091472,0.591793167858462
8000.00000001157,139.496911461827,1.0000000009376,0.592244517256399
8100.00000001194,143.55327396376,1.0000000009284,0.592415478019682
8200.0000000123,147.501047841144,1.00000000088414,0.591989884693746
8300.00000001266,151.303523241632,1.0000000008957,0.592291368316962
8400.00000001303,155.006544286794,1.00000000090589,0.591421751636463
8500.00000001339,158.558325577719,1.0000000008619,0.591741904060998
8600.00000001376,161.983932725511,1.00000000087394,0.591298647924838
8700.00000001412,165.281650745887,1.00000000087133,0.590233315107283
8800.00000001448,168.421927128099,1.00000000088222,0.591031413700323
8900.00000001485,171.438643301509,1.00000000083888,0.589371391112092
9000.00000001521,174.303789477449,1.00000000084449,0.59013589877629
9100.00000001557,177.024604570098,1.00000000079641,0.588937762956349
9200.00000001594,179.614469622785,1.00000000078815,0.589094707578303
9300.0000000163,182.043419253001,1.00000000075969,0.587972792276329
9400.00000001667,184.342858711581,1.00000000078041,0.588343820660115
9500.00000001703,186.495752208104,1.00000000075484,0.586687659384257
9600.00000001739,188.501895117401,1.00000000076722,0.587421502716883
9700.00000001776,190.381348653386,1.00000000073286,0.586400359978039
9800.00000001812,192.106591129069,1.00000000072925,0.585926104044378
9900.00000001848,193.705921633557,1.00000000073021,0.586486971269599
10000.0000000188,195.169264250174,1.00000000071444,0.585052754322562
10100.0000000192,196.495011292939,1.00000000072432,0.586060846212232
10200.0000000196,197.702596134673,1.00000000070904,0.585345980126908
10300.0000000199,198.772870590357,1.00000000069535,0.5842734665339
10400.0000000203,199.725592147206,1.00000000069829,0.584774019414693
10500.0000000207,200.559250335003,1.00000000066946,0.584951946942661
10600.000000021,201.270090354315,1.00000000064916,0.582635516551545
10700.0000000214,201.872669352168,1.00000000066016,0.583703052387746
10800.0000000218,202.360054074083,1.00000000066459,0.58570452228029
10900.0000000221,202.74690779489,1.00000000059826,0.580471703710355
11000.0000000225,203.026556391819,1.00000000061218,0.581610290327979
11100.0000000229,203.20718774477,1.00000000065496,0.586917143583152
11200.0000000232,203.305952420646,1.00000000063309,0.579116873586691
11300.0000000236,203.302969649074,1.00000000059739,0.576292226177818
11400.0000000239,203.218784003072,1.00000000064961,0.584587651913974
11500.0000000243,203.065106196845,1.00000000061457,0.58111315845343
11600.0000000247,202.830212182831,1.00000000058987,0.573826393629328
11700.000000025,202.521624860551,1.0000000006233,0.575382268578349
11800.0000000254,202.14572394525,1.0000000006555,0.583085778066613
11900.0000000258,201.718104121115,1.00000000063978,0.578353732537195
12000.0000000261,201.23149629204,1.00000000055393,0.566912202625814
12100.0000000265,200.676273000409,1.00000000059707,0.570712066370284
12200.0000000269,200.081626979722,1.00000000069987,0.583740723792698
12300.0000000272,199.452077924721,1.00000000065173,0.574556408342351
12400.0000000276,198.775650195098,1.00000000054448,0.55945189715842
12500.0000000279,198.044791125105,1.00000000058583,0.564118625755046
12600.0000000283,197.281861489739,1.00000000072923,0.585439931416626
12700.0000000287,196.505886014031,1.00000000066337,0.5736907118947
12800.000000029,195.695745175133,1.00000000054611,0.555543738189365
12900.0000000294,194.841117634331,1.00000000053832,0.552049069020391
13000.0000000298,193.961782420005,1.00000000070097,0.580250285669304
13100.0000000301,193.075795044326,1.00000000072738,0.57892623652132
13200.0000000305,192.180214313231,1.00000000059985,0.557811587266335
13300.0000000309,191.251517690074,1.00000000053486,0.543913044333627
13400.0000000312,190.293599338445,1.00000000061504,0.556496826736386
13500.0000000316,189.330848909789,1.00000000079123,0.583265791397297
13600.0000000319,188.373073514237,1.00000000075479,0.568824999113208
13700.0000000323,187.407769177493,1.00000000058945,0.548383555145965
13800.0000000327,186.418215585971,1.00000000054793,0.537145267958172
13900.000000033,185.409599314768,1.00000000062991,0.552125561822528
14000.0000000334,184.403894026663,1.00000000081872,0.582743730246787
14100.0000000338,183.409423742688,1.00000000076483,0.564697704992249
14200.0000000341,182.413928792021,1.00000000060039,0.542559567307043
14300.0000000345,181.403844167552,1.00000000055814,0.534265946119057
14400.0000000349,180.378978246135,1.00000000060832,0.540077452249299
14500.0000000352,179.356301769764,1.00000000078605,0.571910859919311
14600.0000000356,178.346802588516,1.0000000008616,0.573347889104399
14700.0000000359,177.345636070415,1.00000000061798,0.538598793707566
14800.0000000363,176.339916146208,1.00000000061149,0.534324307241969
14900.0000000367,175.325470554113,1.00000000056153,0.533462219396118
15000.000000037,174.308813750174,1.00000000065078,0.545660724843011
15100.0000000374,173.298281933142,1.00000000078682,0.570675693128015
15200.0000000378,172.302485074493,1.00000000080435,0.560057612897034
15300.0000000381,171.313862371447,1.00000000065786,0.531225901714836
15400.0000000385,170.323819038088,1.000000000582,0.530143952489336
15500.0000000389,169.333317963989,1.00000000060747,0.536557878409592
15600.0000000392,168.342625018614,1.00000000066089,0.540457742204064
15700.0000000396,167.35956482304,1.00000000075104,0.5563824780457
15800.0000000399,166.388542798197,1.00000000074946,0.557123364304223
15900.0000000403,165.425515441526,1.00000000072823,0.536594475207268
16000.0000000407,164.468694544106,1.00000000062506,0.525427428086974
16100.000000041,163.513425572989,1.00000000062261,0.535625573266883
16200.0000000414,162.562416491377,1.00000000065187,0.541393734191419
16300.0000000418,161.617421524247,1.00000000069128,0.538187505267795
16400.0000000418,160.679620879912,1.00000000070542,0.545154541097932
16500.0000000404,159.751972414678,1.0000000007259,0.54733033166944
16600.0000000389,158.832686723491,1.00000000068146,0.531682819173439
16700.0000000375,157.920109487084,1.00000000063546,0.526378956586598
16800.000000036,157.014198262195,1.00000000064762,0.537922540999288
16900.0000000346,156.114000401626,1.00000000068967,0.542000948019931
17000.0000000331,155.221224438777,1.00000000064111,0.536038355973671
17100.0000000317,154.335553109817,1.00000000065957,0.531672677438164
17200.0000000302,153.457758556739,1.00000000070679,0.537192546775378
17300.0000000287,152.589014894835,1.0000000006972,0.539002578200168
17400.0000000273,151.728012503,1.00000000067303,0.533525111875215
17500.0000000258,150.875554526761,1.00000000063131,0.532884946520049
17600.0000000244,150.030992404633,1.00000000064982,0.540668693536539
17700.0000000229,149.194169454699,1.00000000062965,0.54209060334785
17800.0000000215,148.365205067577,1.00000000063146,0.533693248833115
17900.00000002,147.543663300821,1.00000000064527,0.526426751097917
18000.0000000186,146.730503303027,1.00000000063855,0.528451423004507
18100.0000000171,145.925965869325,1.0000000006498,0.536425329506455
18200.0000000156,145.129426533634,1.00000000069845,0.543366648836038
18300.0000000142,144.341542157758,1.00000000066325,0.536680183131323
18400.0000000127,143.5620066869,1.00000000065129,0.539944161965535
18500.0000000113,142.791385389531,1.00000000066901,0.545218769099503
18600.0000000098,142.029202352344,1.00000000063822,0.53905354760056
18700.0000000084,141.275638643613,1.00000000062076,0.527790070178196
18800.0000000069,140.530989504418,1.00000000062477,0.522442891654772
18900.0000000055,139.794954029082,1.00000000068281,0.529273425909436
19000.000000004,139.067291578213,1.00000000063999,0.535348610072264
19100.0000000026,138.347889773757,1.00000000069213,0.544971606462046
19200.0000000011,137.636124684251,1.00000000067356,0.544896069960188
19299.9999999996,136.932447447465,1.00000000067474,0.541460236029616
19399.9999999982,136.236878172741,1.00000000067023,0.545308813591213
19499.9999999967,135.55013457266,1.00000000065105,0.544323452906877
19599.9999999953,134.873263078997,1.00000000058561,0.530247761779503
19699.9999999938,134.206764229238,1.00000000057604,0.520044817781155
19799.9999999924,133.549706834125,1.00000000065056,0.522987326394782
19899.9999999909,132.900922129713,1.00000000070742,0.52913929625655
19999.9999999895,132.259528395803,1.00000000064786,0.532450295431569
20099.999999988,131.62580342723,1.00000000065611,0.538647806698419
20199.9999999865,130.998816622711,1.00000000068802,0.548045798931136
20299.9999999851,130.378486689694,1.00000000068925,0.546813403228581
20399.9999999836,129.764775764962,1.00000000073359,0.546124519135191
20499.9999999822,129.158289879626,1.00000000065992,0.544347060881673
20599.9999999807,128.561362799316,1.00000000059073,0.533759273583581
20699.9999999793,127.976130062248,1.00000000056242,0.5223863611387
20799.9999999778,127.402299908811,1.0000000005607,0.515361178322887
20899.9999999764,126.83801055567,1.00000000065212,0.518839593292831
20999.9999999749,126.280057255576,1.00000000070913,0.5285622798223
21099.9999999734,125.728583277701,1.00000000067731,0.524035126793386
21199.999999972,125.183984403799,1.0000000006615,0.529761257659563
21299.9999999705,124.644219580749,1.00000000069212,0.542763959301503
21399.9999999691,124.109086526262,1.00000000071002,0.551313159359903
21499.9999999676,123.578363443016,1.00000000072043,0.548709440241708
21599.9999999662,123.052775573688,1.00000000072453,0.545832167199389
21699.9999999647,122.534025891826,1.00000000067759,0.540750989691593
21799.9999999633,122.025444289413,1.00000000058069,0.526316882087143
21899.9999999618,121.529364050845,1.00000000056821,0.52175208046199
21999.9999999603,121.044986130599,1.00000000057725,0.516681608345389
22099.9999999589,120.56989295785,1.00000000065564,0.515824464885245
22199.9999999574,120.101387408224,1.0000000006899,0.519411016271877
22299.999999956,119.637650844371,1.00000000068741,0.520070615901226
22399.9999999545,119.17911125192,1.00000000068295,0.519748811501974
22499.9999999531,118.725127234676,1.00000000065703,0.526459105131755
22599.9999999516,118.273681408605,1.00000000071855,0.53985647982207
22699.9999999502,117.823970925054,1.00000000071374,0.551441343674282
22799.9999999487,117.376650862855,1.00000000074536,0.550496080598424
22899.9999999473,116.933712342662,1.00000000068454,0.538869210259397
22999.9999999458,116.497806012353,1.00000000065359,0.534010828668309
23099.9999999443,116.070680600914,1.00000000062295,0.531942800064845
23199.9999999429,115.654320558917,1.00000000059694,0.523330262157511
23299.9999999414,115.24909510109,1.00000000060275,0.524457086046735
23399.99999994,114.853609465346,1.00000000061113,0.520844923385524
23499.9999999385,114.466970114177,1.00000000065485,0.515170541660037
23599.9999999371,114.086369796278,1.0000000006909,0.515694345590229
23699.9999999356,113.710651072575,1.00000000069508,0.51694559806705
23799.9999999342,113.338509780868,1.00000000065932,0.519689051795196
23899.9999999327,112.968801687426,1.00000000069979,0.525222622419274
23999.9999999312,112.599688158809,1.00000000072679,0.532602625799056
24099.9999999298,112.229552367132,1.00000000073082,0.539274451821589
24199.9999999283,111.860100491968,1.00000000067959,0.545653579635969
24299.9999999269,111.493557177915,1.00000000067326,0.544875830326258
24399.9999999254,111.131966326187,1.00000000066221,0.539059134351419
24499.999999924,110.776649544058,1.00000000067736,0.535899321844048
24599.9999999225,110.428286844152,1.00000000064058,0.535226861740654
24699.9999999211,110.088936862016,1.00000000061193,0.532112602422323
24799.9999999196,109.759266449467,1.00000000060378,0.525132851303132
24899.9999999181,109.43860149064,1.00000000062776,0.525209337892282
24999.9999999167,109.12663789058,1.00000000062391,0.525505390184182
25099.9999999152,108.821838968669,1.00000000063256,0.520255980779389
25199.9999999138,108.52394637828,1.00000000062516,0.519806863888972
25299.9999999123,108.230393447332,1.00000000065631,0.523538344857438
25399.9999999109,107.93912551283,1.00000000069643,0.527428793315619
25499.9999999094,107.649200996594,1.0000000006883,0.532731826718022
25599.999999908,107.358848183792,1.00000000068636,0.530751772602393
25699.9999999065,107.068351623675,1.00000000069513,0.531989111240164
25799.9999999051,106.777342708893,1.00000000071989,0.537198336538998
25899.9999999036,106.486088397952,1.00000000070544,0.546348668592721
25999.9999999021,106.196911365782,1.00000000068438,0.548299896409268
26099.9999999007,105.911785598718,1.00000000062873,0.545170945109803
26199.9999998992,105.632428854535,1.00000000063764,0.543445289523893
26299.9999998978,105.359403778066,1.0000000006447,0.542377294223926
26399.9999998963,105.092717096522,1.00000000064544,0.541068524980314
26499.9999998949,104.833358268878,1.00000000065589,0.536204631509287
26599.9999998934,104.581940985657,1.0000000005962,0.527774815730777
26699.999999892,104.340852264778,1.00000000057639,0.524574007453523
26799.9999998905,104.10859331094,1.00000000062116,0.528350516772959
26899.999999889,103.88216200559,1.00000000064508,0.529455696307563
26999.9999998876,103.659979327325,1.00000000066646,0.53133834935368
27099.9999998861,103.440464714812,1.00000000066499,0.531479019806554
27199.9999998847,103.224238754216,1.00000000064219,0.530010545393996
27299.9999998832,103.009983338211,1.00000000066646,0.535350422961033
27399.9999998818,102.796147429464,1.00000000068438,0.53980362002402
27499.9999998803,102.582211426336,1.0000000007139,0.536799372272597
27599.9999998789,102.366693373617,1.00000000072279,0.539212860782155
27699.9999998774,102.149039962477,1.00000000072794,0.540555590682452
27799.9999998759,101.930625244722,1.00000000067162,0.541700260463161
27899.9999998745,101.713395149526,1.00000000063877,0.547508281090261
27999.999999873,101.499445722851,1.00000000064871,0.549941253215686
28099.9999998716,101.288339927227,1.00000000069021,0.552315534793679
28199.9999998701,101.079820816945,1.00000000068037,0.551414345525561
28299.9999998687,100.874799499402,1.00000000067056,0.545747747424823
28399.9999998672,100.674063084354,1.00000000068506,0.542210005422758
28499.9999998658,100.479012843655,1.00000000063853,0.536222967774818
28599.9999998643,100.292160689797,1.00000000059558,0.528745390307625
28699.9999998629,100.114369139788,1.00000000061532,0.525648808642194
28799.9999998614,99.9452127417216,1.00000000062781,0.527473563065682
28899.9999998599,99.7813809198343,1.00000000066668,0.534838294566367
