Time,AGPnorm,Energy,Entropy
0,0,1,-4.00428312976888e-19
99.9999999999986,0.0136554830165653,1.00000000000068,0.0343733212912218
199.999999999993,0.0345823356227432,1.0000000000011,0.101800483088357
300,0.0637676211520082,1.00000000006302,0.2165584903551
400.000000000022,0.118829665008078,1.00000000152401,0.390059565017602
500.000000000045,0.469952983522962,1.00000000370938,0.515299416043392
600.000000000068,1.56612499278402,1.00000000490923,0.576457293496649
700.000000000091,3.39921519547053,1.00000000487751,0.597774871680561
800.000000000113,5.50249548113365,1.00000000485645,0.602710204048348
900.000000000136,7.55230624813253,1.00000000417803,0.594747351373519
1000.00000000016,9.18359977260871,1.00000000375622,0.586170449594421
1100.0000000001,10.3402553785678,1.00000000348893,0.569973289755808
1200,10.97622940031,1.000000003056,0.56687681248692
1299.99999999991,11.1757790975118,1.00000000282216,0.5513928366184
1399.99999999982,11.0811440590665,1.00000000239191,0.520524601930864
1499.99999999973,10.8253760583467,1.00000000229773,0.518123503678626
1599.99999999964,10.4535212923459,1.00000000388554,0.576970138023086
1699.99999999955,10.0297348380727,1.00000000237729,0.469160206546495
1799.99999999946,9.61415946446753,1.0000000035549,0.532460633348264
1899.99999999937,9.1899874798723,1.00000000246529,0.467637020410899
1999.99999999928,8.77920783933597,1.00000000391422,0.552068239199285
2099.99999999919,8.40946157720132,1.00000000245493,0.449782820628031
2199.99999999909,8.04274666979642,1.00000000292363,0.520414966124246
2299.999999999,7.70244518341351,1.00000000363338,0.543978490163062
2399.99999999891,7.41879147096921,1.00000000207689,0.446883960466713
2499.99999999882,7.14192752226243,1.00000000322001,0.537609886548554
2599.99999999873,6.88526453419968,1.00000000334418,0.550750513540893
2699.99999999864,6.63764657395415,1.00000000318497,0.537441960688
2799.99999999855,6.45862311151899,1.00000000201481,0.45841654686935
2899.99999999846,6.29224791097168,1.00000000386269,0.532888751961079
2999.99999999837,6.1297433505557,1.00000000293127,0.532568313925385
3099.99999999828,5.96721676808024,1.00000000322249,0.572379462878343
3199.99999999819,5.80374092375211,1.00000000354519,0.558139249503584
3299.99999999809,5.67563830090109,1.00000000228277,0.49182165158621
3399.999999998,5.62082507293782,1.00000000311182,0.50589876294617
3499.99999999791,5.55203683599705,1.00000000350964,0.545375670435928
3599.99999999782,5.48038509838286,1.00000000287966,0.56788851137771
3699.99999999773,5.41228700289569,1.00000000311142,0.576987948114004
3799.99999999764,5.31785542640142,1.00000000338679,0.606696036915356
3899.99999999755,5.22384530539673,1.00000000363785,0.59696630617953
3999.99999999746,5.12714679128202,1.0000000037712,0.580482196816824
4099.99999999738,5.05039573091552,1.00000000272039,0.539652092360974
4199.99999999775,5.05564086458466,1.00000000244753,0.499484703556095
4299.99999999811,5.08340226835603,1.00000000363406,0.54875226766096
4399.99999999848,5.09040580796855,1.00000000325759,0.557883446696773
4499.99999999884,5.09057281682048,1.00000000334828,0.590497389387125
4599.9999999992,5.07582869820139,1.00000000365191,0.611069790674462
4699.99999999957,5.06508325980047,1.0000000032607,0.610582523421592
4799.99999999993,5.04158209418485,1.00000000374026,0.637221412749739
4900.00000000029,5.00567518735456,1.0000000032518,0.60271941806664
5000.00000000066,4.95810411503269,1.00000000361355,0.630025777658121
5100.00000000102,4.90506216315217,1.00000000345498,0.63811846335383
5200.00000000139,4.84643971002043,1.00000000369207,0.638121352559281
5300.00000000175,4.7859125673066,1.00000000376211,0.628452528793265
5400.00000000211,4.72722474929497,1.00000000372259,0.590256430555606
5500.00000000248,4.70680709885001,1.00000000266873,0.544521480000443
5600.00000000284,4.76242066607879,1.00000000283221,0.529506335616248
5700.00000000321,4.85024764025237,1.00000000366786,0.558005247958027
5800.00000000357,4.92297680956528,1.00000000384586,0.583951637344436
5900.00000000393,4.98340299126653,1.00000000358025,0.589128570968489
6000.0000000043,5.03149904419397,1.00000000361078,0.599007926164962
6100.00000000466,5.07192527801167,1.00000000373251,0.627973586393577
6200.00000000502,5.098467320327,1.00000000358025,0.637836350536564
6300.00000000539,5.11172969364118,1.00000000342459,0.651526737497298
6400.00000000575,5.11518954525502,1.00000000384339,0.644515612310928
6500.00000000612,5.11298730599279,1.0000000038152,0.639677567211498
6600.00000000648,5.12194886441399,1.00000000363532,0.637211404642744
6700.00000000684,5.12990703887108,1.00000000379755,0.651751836056358
6800.00000000721,5.12561457339765,1.00000000406432,0.626721331690468
6900.00000000757,5.12151901056817,1.00000000361791,0.637466520645063
7000.00000000793,5.11898355555718,1.0000000036446,0.646883847121302
7100.0000000083,5.10882156569536,1.00000000397467,0.666856597256945
7200.00000000866,5.0926892052316,1.00000000393546,0.657775467735313
7300.00000000903,5.0763029813609,1.00000000379819,0.643412005005893
7400.00000000939,5.05766171038217,1.0000000039944,0.660243106843957
7500.00000000975,5.02711831395269,1.00000000421611,0.672724692890733
7600.00000001012,4.98750077955845,1.00000000413954,0.666130033303801
7700.00000001048,4.94622624548302,1.00000000370991,0.671939239084084
7800.00000001084,4.90366609808667,1.00000000407936,0.663426100470753
7900.00000001121,4.86339279519026,1.000000004284,0.660586598452055
8000.00000001157,4.82577375199931,1.00000000430062,0.652104543026949
8100.00000001194,4.78907993820869,1.00000000415189,0.605798379102411
8200.0000000123,4.76844355747198,1.00000000326038,0.572137919086568
8300.00000001266,4.80045002032609,1.00000000317632,0.551076661414959
8400.00000001303,4.90088204266932,1.00000000360699,0.550177404701525
8500.00000001339,5.04396382446892,1.00000000383127,0.562154283201766
8600.00000001376,5.19324030328227,1.00000000402356,0.575912177972693
8700.00000001412,5.33128384721733,1.00000000427996,0.590116371993898
8800.00000001448,5.46542743355398,1.00000000435235,0.592158836118562
8900.00000001485,5.58994247565792,1.00000000417322,0.598730178835972
9000.00000001521,5.70646510286079,1.00000000430816,0.624750135931858
9100.00000001557,5.80918121408034,1.00000000414007,0.632526913871046
9200.00000001594,5.90351845297057,1.00000000438985,0.661899917046327
9300.0000000163,5.99072374560912,1.00000000447159,0.662379654251633
9400.00000001667,6.06412234255725,1.0000000044892,0.653834618578768
9500.00000001703,6.11767091134328,1.00000000443751,0.665272500538991
9600.00000001739,6.15640504864847,1.00000000465367,0.690427340366066
9700.00000001776,6.19898614366061,1.00000000374735,0.678423158455713
9800.00000001812,6.24663828079742,1.00000000445618,0.668080312338813
9900.00000001848,6.28900217763678,1.00000000448411,0.687604942923497
10000.0000000188,6.31854775598516,1.00000000443517,0.695159295699595
10100.0000000192,6.34986253425142,1.0000000043472,0.694514204755932
10200.0000000196,6.37658532114218,1.00000000449652,0.690651160344563
10300.0000000199,6.39921603057004,1.00000000465035,0.687724034778245
10400.0000000203,6.41407431713621,1.00000000461568,0.69612983437108
10500.0000000207,6.42489815545712,1.00000000455814,0.689635405777291
10600.000000021,6.43277405216001,1.00000000414444,0.687050157836256
10700.0000000214,6.43837152333449,1.00000000475212,0.686723089903719
10800.0000000218,6.44793670198796,1.00000000415001,0.675038694978315
10900.0000000221,6.46929599072131,1.00000000403674,0.683600779871043
11000.0000000225,6.50374739904146,1.00000000422253,0.678181329184921
11100.0000000229,6.54711878892088,1.00000000424831,0.667997752307179
11200.0000000232,6.58690633950234,1.00000000508492,0.682595035632757
11300.0000000236,6.62074735487126,1.00000000471586,0.662499545155889
11400.0000000239,6.65455574448243,1.00000000487933,0.662399050078907
11500.0000000243,6.68698125579836,1.00000000428599,0.666993373762696
11600.0000000247,6.72576737703914,1.00000000451271,0.671630797772338
11700.000000025,6.76173246735086,1.00000000462933,0.660168564075319
11800.0000000254,6.79857212224923,1.00000000444313,0.691662941828968
11900.0000000258,6.82487061329518,1.00000000503853,0.699279793146213
12000.0000000261,6.84459644354521,1.00000000460025,0.691871761752942
12100.0000000265,6.86159109650413,1.00000000480762,0.684292436960205
12200.0000000269,6.89032760492734,1.00000000425336,0.672085448265062
12300.0000000272,6.9218723544586,1.0000000048377,0.684159164249057
12400.0000000276,6.9550394047421,1.00000000470246,0.689496680025094
12500.0000000279,6.98182044262648,1.00000000480863,0.704638215251762
12600.0000000283,7.00532387908987,1.00000000467148,0.68392402895233
12700.0000000287,7.03238627509532,1.00000000458536,0.688761671069695
12800.000000029,7.06793964368286,1.00000000492788,0.668568720015642
12900.0000000294,7.10790409227885,1.00000000487734,0.676793207708445
13000.0000000298,7.15565799650951,1.00000000482078,0.694980011639846
13100.0000000301,7.18928504073979,1.00000000494818,0.70868110576527
13200.0000000305,7.21939563196674,1.00000000474106,0.702554242780689
13300.0000000309,7.24160920004805,1.00000000501452,0.709227510464164
13400.0000000312,7.26904342788465,1.00000000452117,0.701492203498593
13500.0000000316,7.2964904090328,1.00000000460127,0.702738244792446
13600.0000000319,7.3188628392862,1.00000000468049,0.706225172514706
13700.0000000323,7.33633523258163,1.00000000455586,0.690009458753769
13800.0000000327,7.35854856774936,1.00000000476219,0.69849259884057
13900.000000033,7.38040906362826,1.00000000560358,0.70800302676903
14000.0000000334,7.40074075855578,1.00000000510079,0.69705755163299
14100.0000000338,7.42010992604689,1.00000000504364,0.694957245455653
14200.0000000341,7.43504207191767,1.00000000480206,0.713932348281443
14300.0000000345,7.44488522892871,1.00000000515404,0.703383700744311
14400.0000000349,7.45440570340288,1.00000000488169,0.69776718284628
14500.0000000352,7.46352416490275,1.00000000494368,0.688508626231049
14600.0000000356,7.46740293222026,1.00000000537962,0.702447471567492
14700.0000000359,7.47136598183355,1.00000000507822,0.685031792549431
14800.0000000363,7.46780858311105,1.00000000511441,0.701408442567384
14900.0000000367,7.46149628817857,1.00000000479145,0.696108606034878
15000.000000037,7.45014368245868,1.00000000533834,0.6809076189344
15100.0000000374,7.43060855450904,1.00000000527867,0.700401593814641
15200.0000000378,7.40744507741555,1.00000000553466,0.704351909686785
15300.0000000381,7.38077086715281,1.00000000508278,0.696936179853637
15400.0000000385,7.35463797654578,1.00000000510442,0.705085874138743
15500.0000000389,7.32668613546151,1.00000000506266,0.697711466275917
15600.0000000392,7.29921647578207,1.0000000056144,0.692565223744144
15700.0000000396,7.27453490150517,1.00000000503069,0.70201871255331
15800.0000000399,7.25007531295746,1.00000000538491,0.70664390302638
15900.0000000403,7.23132687720689,1.00000000564139,0.712722652287356
16000.0000000407,7.21489588030047,1.00000000586359,0.69933726299411
16100.000000041,7.20732672814029,1.00000000499266,0.701033998271052
16200.0000000414,7.19935173910072,1.00000000527647,0.6837891334981
16300.0000000418,7.20468366581509,1.00000000474381,0.670960208315424
16400.0000000418,7.22259615868829,1.00000000504052,0.656133859115621
16500.0000000404,7.27667478664382,1.00000000517911,0.644027195348595
16600.0000000389,7.37839588207511,1.00000000493602,0.626226721321041
16700.0000000375,7.54142086388649,1.00000000498068,0.621397519874568
16800.000000036,7.7554437912755,1.00000000497646,0.616009420520972
16900.0000000346,8.03482827077915,1.00000000493839,0.619353476584242
17000.0000000331,8.33972488495559,1.00000000567673,0.626227604797823
17100.0000000317,8.67659208760336,1.00000000586581,0.633897048561944
17200.0000000302,8.99084970725439,1.00000000552489,0.640073453530958
17300.0000000287,9.31988573469194,1.00000000561565,0.638784042116479
17400.0000000273,9.63428098643587,1.00000000556716,0.642681511722317
17500.0000000258,9.95947476894526,1.00000000514732,0.636466977152815
17600.0000000244,10.2858084330328,1.00000000569577,0.639564013017136
17700.0000000229,10.6060066688518,1.00000000522095,0.638840812624308
17800.0000000215,10.9427193542207,1.00000000531511,0.644694206986078
17900.00000002,11.2684511457536,1.00000000539961,0.655562179263715
18000.0000000186,11.6176789988835,1.00000000538536,0.665928810121909
18100.0000000171,11.9594689872801,1.00000000534381,0.670623307865762
18200.0000000156,12.2879068174937,1.00000000598426,0.680869761501508
18300.0000000142,12.6104547899373,1.00000000549094,0.688645642311371
18400.0000000127,12.9256560335801,1.00000000656997,0.698612657108336
18500.0000000113,13.2459170219928,1.00000000571549,0.697498245819297
18600.0000000098,13.5422678422688,1.00000000582079,0.712126344877016
18700.0000000084,13.82748182138,1.00000000562261,0.70935576270544
18800.0000000069,14.1049672692524,1.00000000566313,0.700683009830655
18900.0000000055,14.3834115485088,1.00000000662568,0.710007507165518
19000.000000004,14.6357638877957,1.0000000058218,0.71782833262752
19100.0000000026,14.8719373507537,1.00000000553007,0.709817849638341
19200.0000000011,15.1070813473923,1.00000000527878,0.703123834199585
19299.9999999996,15.3348947289,1.00000000552507,0.72103957674258
19399.9999999982,15.577431619915,1.00000000554899,0.706176663919131
19499.9999999967,15.8185213232074,1.00000000582654,0.708182713874887
19599.9999999953,16.0508548602455,1.00000000555569,0.704600845522349
19699.9999999938,16.2786870201842,1.00000000543072,0.710524618424826
19799.9999999924,16.5028458479731,1.00000000614134,0.705213055035696
19899.9999999909,16.7380569224502,1.00000000585545,0.716764744286734
19999.9999999895,16.9665254812144,1.00000000616699,0.721699472056133
20099.999999988,17.2076052768373,1.00000000624801,0.715045212920052
20199.9999999865,17.4714132651053,1.00000000574281,0.724733339738652
20299.9999999851,17.7340715428933,1.0000000061565,0.724431713617817
20399.9999999836,17.9852567918837,1.00000000549989,0.715640975443483
20499.9999999822,18.2194915046037,1.00000000647449,0.724299255008446
20599.9999999807,18.4409255224217,1.00000000692669,0.720697142863657
20699.9999999793,18.6622521980848,1.00000000542118,0.721928049888129
20799.9999999778,18.9017117631719,1.00000000621709,0.709861422417604
20899.9999999764,19.1479558159916,1.00000000610286,0.717147119506545
20999.9999999749,19.3949108275638,1.00000000615399,0.714603597019301
21099.9999999734,19.6392457605481,1.00000000631175,0.720309691464352
21199.999999972,19.87776184768,1.00000000571667,0.717076825227449
21299.9999999705,20.1217039921247,1.00000000626539,0.711515344492742
21399.9999999691,20.3716955664109,1.00000000560068,0.713312500956425
21499.9999999676,20.6293898029436,1.00000000660205,0.717334873984558
21599.9999999662,20.8754190752354,1.00000000611885,0.73141068549582
21699.9999999647,21.1279270785955,1.00000000576215,0.69988108030533
21799.9999999633,21.4020846699988,1.00000000577219,0.715692211312735
21899.9999999618,21.6626583902896,1.00000000665623,0.7270484202784
21999.9999999603,21.9222710435017,1.0000000065709,0.731696134027149
22099.9999999589,22.1767881148049,1.00000000605871,0.724506720885084
22199.9999999574,22.4335931240164,1.00000000621508,0.715498838310086
22299.999999956,22.7002925985912,1.0000000060174,0.723679372834714
22399.9999999545,22.9702965882871,1.00000000584912,0.726935952324765
22499.9999999531,23.2375122318849,1.00000000655608,0.712026654698152
22599.9999999516,23.5080627373559,1.00000000632509,0.716272187341507
22699.9999999502,23.7917642410659,1.00000000696568,0.72982116170347
22799.9999999487,24.0711861282001,1.00000000586453,0.73139855786898
22899.9999999473,24.3416271239605,1.00000000597993,0.721956867206576
22999.9999999458,24.6090090001596,1.0000000062672,0.713005449403362
23099.9999999443,24.8819964631008,1.00000000623237,0.730489227885924
23199.9999999429,25.1631606801287,1.00000000648136,0.719268993594736
23299.9999999414,25.4577969864043,1.00000000691226,0.715579159356502
23399.99999994,25.7467523275951,1.00000000673956,0.70786229646464
23499.9999999385,26.0381900931465,1.00000000598352,0.706511490133547
23599.9999999371,26.3469717789806,1.00000000657031,0.706767823691856
23699.9999999356,26.6699821824824,1.00000000681772,0.717476578188728
23799.9999999342,26.9950947241083,1.00000000697076,0.732951202167698
23899.9999999327,27.310691138142,1.00000000663969,0.730194987869259
23999.9999999312,27.6103319127829,1.00000000753559,0.723746261172847
24099.9999999298,27.902771740598,1.00000000728518,0.734175120298549
24199.9999999283,28.1967800465045,1.00000000781843,0.734870169487204
24299.9999999269,28.5099281028882,1.00000000605795,0.726296757174835
24399.9999999254,28.8517737752649,1.00000000608471,0.721768821889369
24499.999999924,29.2149652855483,1.00000000673119,0.717926645920308
24599.9999999225,29.5988549204787,1.00000000721597,0.718101872540852
24699.9999999211,29.9831693264002,1.00000000710059,0.716946233459846
24799.9999999196,30.3628938645653,1.00000000643392,0.725966481118136
24899.9999999181,30.7367624233415,1.00000000687842,0.734276854662293
24999.9999999167,31.0898261552481,1.00000000818769,0.733962447431203
25099.9999999152,31.4259617616725,1.00000000753874,0.720109257056407
25199.9999999138,31.7602195480276,1.00000000660307,0.723664492701122
25299.9999999123,32.1036401708569,1.00000000729954,0.732956710164872
25399.9999999109,32.4529792849608,1.00000000712924,0.74041541541686
25499.9999999094,32.8080471491307,1.00000000639195,0.724434817566333
25599.999999908,33.1810291669633,1.00000000609145,0.71580191461848
25699.9999999065,33.5688354357307,1.00000000722967,0.719863614451817
25799.9999999051,33.9707893762631,1.00000000719148,0.711280390112564
25899.9999999036,34.3831068701467,1.00000000655561,0.713469745944974
25999.9999999021,34.8015674031943,1.00000000745947,0.716330937144006
26099.9999999007,35.2175602776552,1.00000000728112,0.722954531004861
26199.9999998992,35.6204414602548,1.00000000742305,0.727072787063835
26299.9999998978,36.0165110177567,1.00000000681179,0.72426532743925
26399.9999998963,36.4206573116338,1.00000000804879,0.729258543389443
26499.9999998949,36.8329703328522,1.00000000679493,0.728931554411229
26599.9999998934,37.2607996269574,1.00000000649836,0.727389347390717
26699.999999892,37.6932844626311,1.00000000713156,0.736102913453384
26799.9999998905,38.1282074849437,1.00000000661919,0.738044430509633
26899.999999889,38.5722431516661,1.00000000759531,0.730126776481093
26999.9999998876,39.0308430440125,1.00000000706738,0.736159475240259
27099.9999998861,39.482694795476,1.00000000724228,0.735042197163336
27199.9999998847,39.9357002489127,1.00000000660985,0.727328128118643
27299.9999998832,40.3905995526987,1.00000000817124,0.737772504204809
27399.9999998818,40.8356087365413,1.00000000753016,0.737106791879439
27499.9999998803,41.2710614797189,1.00000000770293,0.731704835860964
27599.9999998789,41.7087949247681,1.000000007267,0.730474467161512
27699.9999998774,42.1508283993527,1.00000000752894,0.744928656152708
27799.9999998759,42.5966568458574,1.00000000790825,0.734691108210842
27899.9999998745,43.0601981494483,1.00000000662816,0.721770773413036
27999.999999873,43.5391856401852,1.00000000787405,0.739985229531915
28099.9999998716,44.023190684785,1.00000000791644,0.733836675191145
28199.9999998701,44.5099625340209,1.0000000076526,0.740154012704244
28299.9999998687,44.9933092969651,1.00000000719263,0.733018034018868
28399.9999998672,45.4805734232157,1.00000000761948,0.736305476155944
28499.9999998658,45.9756677125445,1.00000000771581,0.734893413674048
28599.9999998643,46.4784832760687,1.00000000766541,0.745432234599832
28699.9999998629,46.9763289012569,1.00000000744625,0.744879470343628
28799.9999998614,47.4749921520368,1.00000000735499,0.740540479962324
28899.9999998599,47.97119189073,1.00000000862382,0.742465929233935
28999.9999998585,48.4633443576334,1.00000000774082,0.745140507604479
29099.999999857,48.9614366282109,1.00000000800171,0.730416953577166
