Time,AGPnorm,Energy,Entropy
0,0,1,4.27123533841962e-19
99.9999999999986,0.0117485061200192,1.00000000000138,0.0320710454874777
199.999999999993,0.0303562473430257,1.0000000000009,0.0943708927518797
300,0.0574358164702756,1.00000000002903,0.197720478231649
400.000000000022,0.0980286708447052,1.00000000110083,0.36052239456679
500.000000000045,0.349216938728997,1.0000000030103,0.494851491305248
600.000000000068,1.293187683652,1.00000000463333,0.563910219682941
700.000000000091,3.0236552657043,1.00000000449506,0.591721691088634
800.000000000113,5.16494931092308,1.00000000427738,0.600137106347839
900.000000000136,7.38127811968942,1.00000000413003,0.594551768387669
1000.00000000016,9.26200046913046,1.00000000353322,0.585804836092592
1100.0000000001,10.7065890406666,1.00000000326765,0.57072174362092
1200,11.6131713794534,1.00000000270014,0.562217863152646
1299.99999999991,12.0462185486483,1.00000000245822,0.546310386818988
1399.99999999982,12.1199967467437,1.00000000243174,0.536757770394418
1499.99999999973,11.9441066833384,1.0000000031642,0.569422313549416
1599.99999999964,11.5878767523229,1.00000000299356,0.55051773793602
1699.99999999955,11.1981879304946,1.00000000200296,0.46344045954141
1799.99999999946,10.7486383337111,1.00000000362549,0.576392325982952
1899.99999999937,10.3178366060821,1.00000000182241,0.430952520811546
1999.99999999928,9.86336096166194,1.00000000359706,0.552047027138694
2099.99999999919,9.45897513136907,1.00000000218331,0.458393087218913
2199.99999999909,9.06178512159534,1.00000000267979,0.493887163911711
2299.999999999,8.67969357944717,1.00000000355077,0.551558764500685
2399.99999999891,8.33976217246033,1.00000000214325,0.464307601539808
2499.99999999882,8.04271354118132,1.00000000291945,0.486600871889102
2599.99999999873,7.75117907333045,1.00000000272921,0.519856261497937
2699.99999999864,7.47277666135486,1.00000000358587,0.557792487396766
2799.99999999855,7.22896644491733,1.00000000220585,0.470125555216985
2899.99999999846,7.05619234183453,1.00000000249245,0.472148927793157
2999.99999999837,6.86851960841876,1.00000000301727,0.545798193330001
3099.99999999828,6.69442960858142,1.00000000263494,0.545464745367975
3199.99999999819,6.51561061513788,1.00000000318807,0.559969510231404
3299.99999999809,6.33983221276558,1.00000000322751,0.55281223821219
3399.999999998,6.23066834655376,1.00000000187113,0.459659917271144
3499.99999999791,6.17312295343611,1.00000000298187,0.517451571167883
3599.99999999782,6.09765095393496,1.00000000312505,0.555980126198717
3699.99999999773,6.02761045286966,1.00000000291287,0.571871117569375
3799.99999999764,5.94523723913044,1.00000000306235,0.584484467734349
3899.99999999755,5.8457791415042,1.00000000284543,0.594415188773316
3999.99999999746,5.74425620697786,1.00000000324173,0.5954744730008
4099.99999999738,5.63810807177596,1.0000000032611,0.584657049187089
4199.99999999775,5.56603501031523,1.00000000223152,0.516652063720107
4299.99999999811,5.57997958002309,1.00000000222824,0.497851882132469
4399.99999999848,5.61187227857497,1.00000000348251,0.547725031814778
4499.99999999884,5.62512666678863,1.00000000297322,0.558073935787708
4599.9999999992,5.6294050839618,1.00000000315933,0.596409651686725
4699.99999999957,5.61195354935992,1.00000000344241,0.611938685544214
4799.99999999993,5.59850543511717,1.00000000278112,0.603405056411993
4900.00000000029,5.57709755962209,1.00000000345311,0.625359806446564
5000.00000000066,5.54187517921138,1.00000000323156,0.604227818965527
5100.00000000102,5.49098810630481,1.00000000328564,0.623865735905896
5200.00000000139,5.43369252006534,1.00000000287939,0.623442576623829
5300.00000000175,5.37195286066619,1.0000000033167,0.628739766411967
5400.00000000211,5.3096197551112,1.00000000366469,0.628338506648079
5500.00000000248,5.24598634597206,1.00000000334146,0.590414066363083
5600.00000000284,5.21500419849089,1.00000000256481,0.543225467718074
5700.00000000321,5.26645537402315,1.00000000253445,0.519327905676952
5800.00000000357,5.36370070711511,1.00000000326626,0.551553330052579
5900.00000000393,5.45036644964847,1.00000000357363,0.580896629518234
6000.0000000043,5.52411550406021,1.00000000332999,0.587253271620688
6100.00000000466,5.58718052638017,1.0000000036826,0.606605933174992
6200.00000000502,5.63802010984425,1.00000000344912,0.629393584539861
6300.00000000539,5.67014877253666,1.0000000037548,0.638089386028198
6400.00000000575,5.69015897595844,1.00000000338474,0.640364451507862
6500.00000000612,5.7050133646569,1.00000000372523,0.637899263701345
6600.00000000648,5.7065844379628,1.00000000362362,0.644863935922364
6700.00000000684,5.71310180568587,1.00000000325498,0.63285583780896
6800.00000000721,5.72808689248141,1.00000000343242,0.648749150480359
6900.00000000757,5.73328387160366,1.00000000382087,0.633849179019834
7000.00000000793,5.72569887556316,1.00000000333246,0.635804657166081
7100.0000000083,5.72398042858463,1.00000000358158,0.641693114151924
7200.00000000866,5.71815313342541,1.00000000367837,0.658938182052198
7300.00000000903,5.70080778562398,1.00000000340358,0.666285870614062
7400.00000000939,5.6842632318907,1.00000000321974,0.630687856586247
7500.00000000975,5.66687321624828,1.00000000369518,0.654542367123381
7600.00000001012,5.63741071549214,1.0000000034962,0.660706459431805
7700.00000001048,5.5977338779479,1.00000000360365,0.666789130967764
7800.00000001084,5.5514942860681,1.0000000035389,0.663190817114009
7900.00000001121,5.50573422401347,1.00000000408167,0.672324916539753
8000.00000001157,5.46116323486363,1.0000000038789,0.674592825119699
8100.00000001194,5.41970922942763,1.0000000042246,0.685181295738639
8200.0000000123,5.37913107194648,1.00000000400076,0.657347827924347
8300.00000001266,5.33986699180999,1.00000000376935,0.615087766135718
8400.00000001303,5.33016383442731,1.00000000316519,0.575085607161059
8500.00000001339,5.3870870211454,1.00000000287498,0.553099914693844
8600.00000001376,5.51280378694712,1.00000000362113,0.555966590557917
8700.00000001412,5.67237751150789,1.00000000407669,0.569940392170913
8800.00000001448,5.83422918777324,1.00000000391449,0.588813268859805
8900.00000001485,5.98101816280972,1.00000000388056,0.598831377694292
9000.00000001521,6.11949513964789,1.00000000404853,0.605036102400823
9100.00000001557,6.25265315639801,1.00000000405183,0.612492906553753
9200.00000001594,6.3646963706086,1.00000000391854,0.639674471323712
9300.0000000163,6.46869286415812,1.00000000387709,0.644530052996147
9400.00000001667,6.55284847591968,1.00000000421099,0.662267918995127
9500.00000001703,6.63021106047815,1.00000000409959,0.655698634913541
9600.00000001739,6.70299646709129,1.00000000399067,0.636620876877235
9700.00000001776,6.75857463356365,1.00000000417017,0.662134088217985
9800.00000001812,6.79981802514612,1.00000000427139,0.683700571013513
9900.00000001848,6.84656901432614,1.00000000404345,0.665451930248878
10000.0000000188,6.89558609404822,1.00000000399392,0.654261864809251
10100.0000000192,6.93773249612392,1.00000000448483,0.684369092341025
10200.0000000196,6.96964745898179,1.00000000389283,0.688833416348426
10300.0000000199,7.00783914324762,1.00000000430039,0.689715441830711
10400.0000000203,7.03635812212765,1.00000000465011,0.690825020165806
10500.0000000207,7.06092818823363,1.00000000418131,0.685548886771345
10600.000000021,7.07786306806577,1.00000000445047,0.688995547553653
10700.0000000214,7.09466214982385,1.00000000405408,0.689085537483384
10800.0000000218,7.10767715236487,1.0000000042619,0.669732582539633
10900.0000000221,7.12073332368863,1.00000000468804,0.674158536201578
11000.0000000225,7.13751691109247,1.00000000458612,0.667210015091913
11100.0000000229,7.15820508971374,1.00000000409426,0.667949077918865
11200.0000000232,7.19522392417321,1.00000000448353,0.663177268428448
11300.0000000236,7.24768081144919,1.00000000413767,0.662379273052789
11400.0000000239,7.30645354820822,1.00000000448148,0.675711301119291
11500.0000000243,7.3589490721204,1.00000000457686,0.663070660600796
11600.0000000247,7.40958474608995,1.00000000470532,0.661485415909709
11700.000000025,7.45594339048766,1.00000000466409,0.677088654622587
11800.0000000254,7.50631323873646,1.00000000491728,0.685157761965272
11900.0000000258,7.54683005649796,1.00000000466629,0.662774885880523
12000.0000000261,7.5915258640326,1.00000000446656,0.688763761905983
12100.0000000265,7.63513770853431,1.00000000464481,0.709012118349034
12200.0000000269,7.67171816315319,1.00000000435531,0.698664866262708
12300.0000000272,7.69657439771408,1.00000000496926,0.7003252827302
12400.0000000276,7.73667105143698,1.00000000396122,0.664685242341519
12500.0000000279,7.78727218344092,1.00000000434988,0.668923560216229
12600.0000000283,7.83988986959393,1.00000000519475,0.685839531427023
12700.0000000287,7.88619485143577,1.00000000484431,0.700353622229719
12800.000000029,7.9231320595269,1.00000000496161,0.69258265834174
12900.0000000294,7.96463272341345,1.00000000453064,0.678917332604966
13000.0000000298,8.01673857748685,1.00000000466657,0.682598818295499
13100.0000000301,8.064993268867,1.00000000493213,0.668260276839602
13200.0000000305,8.11307816537102,1.00000000436789,0.664269100479421
13300.0000000309,8.15825430224343,1.00000000501946,0.697603695667327
13400.0000000312,8.20535580564265,1.00000000465209,0.683969148310168
13500.0000000316,8.25312693158209,1.00000000506929,0.70382931318447
13600.0000000319,8.29088684968275,1.00000000463837,0.689188368056829
13700.0000000323,8.33038076903892,1.00000000498309,0.702910401273496
13800.0000000327,8.36446393364649,1.00000000491774,0.685269881062367
13900.000000033,8.38589776055763,1.0000000050196,0.6898848131021
14000.0000000334,8.40670131624882,1.00000000441064,0.685779549364046
14100.0000000338,8.43660906309437,1.00000000481652,0.669128049922285
14200.0000000341,8.46600396389393,1.00000000525073,0.690485885826206
14300.0000000345,8.49750742534669,1.0000000048254,0.68653033126587
14400.0000000349,8.52240480896736,1.00000000491785,0.691632054826301
14500.0000000352,8.53901977358876,1.0000000041909,0.675872134433595
14600.0000000356,8.55768451230959,1.00000000492939,0.697899439382472
14700.0000000359,8.57985491641662,1.00000000520581,0.696083958044591
14800.0000000363,8.59670477402218,1.0000000050557,0.708967505980757
14900.0000000367,8.60531597666307,1.00000000531651,0.686427941624704
15000.000000037,8.60355411371651,1.00000000534808,0.714374191301544
15100.0000000374,8.59677087782861,1.00000000498176,0.714814161838128
15200.0000000378,8.58914412177788,1.00000000463873,0.70893323753372
15300.0000000381,8.57564086635211,1.0000000050636,0.710206671455738
15400.0000000385,8.55742892401904,1.00000000488047,0.716002348980299
15500.0000000389,8.53450082864658,1.00000000494439,0.715520289178349
15600.0000000392,8.5076656963598,1.00000000456599,0.682280567753032
15700.0000000396,8.4788670330257,1.0000000046737,0.692405586511217
15800.0000000399,8.45052748631161,1.00000000475615,0.69986724077188
15900.0000000403,8.42413462618086,1.00000000473114,0.679020966922859
16000.0000000407,8.39855592736781,1.00000000550585,0.688403855809439
16100.000000041,8.37617230969583,1.00000000475849,0.681340626702519
16200.0000000414,8.35507091284688,1.00000000515501,0.68831473760487
16300.0000000418,8.34325350023314,1.00000000566297,0.688490582525003
16400.0000000418,8.32922691460804,1.00000000510439,0.687950958344113
16500.0000000404,8.32027241728907,1.00000000511117,0.683855247354908
16600.0000000389,8.31158075823913,1.00000000481733,0.668376895774264
16700.0000000375,8.31521930145845,1.00000000475099,0.65271652422846
16800.000000036,8.34316376305435,1.00000000447058,0.628109591997877
16900.0000000346,8.41960807940849,1.00000000444294,0.607363527890127
17000.0000000331,8.55912333726701,1.00000000416866,0.602061658928171
17100.0000000317,8.78082524849439,1.00000000431441,0.603153503614753
17200.0000000302,9.06634373788094,1.00000000436568,0.596876631429659
17300.0000000287,9.42875657697707,1.00000000473122,0.60538010106438
17400.0000000273,9.80287473388273,1.00000000485355,0.608714557592278
17500.0000000258,10.2163994353884,1.00000000557979,0.613622014521236
17600.0000000244,10.6053050426292,1.00000000515153,0.619070917596847
17700.0000000229,11.012897907003,1.00000000565774,0.62773223057744
17800.0000000215,11.4018796262756,1.00000000547196,0.621001522083552
17900.00000002,11.7877506894744,1.00000000510632,0.636748571112199
18000.0000000186,12.1751969885257,1.00000000481172,0.638810583245612
18100.0000000171,12.5568886541044,1.00000000526339,0.645659117822048
18200.0000000156,12.9508628492172,1.00000000572299,0.648636904654518
18300.0000000142,13.3338688617389,1.00000000505523,0.657377522779616
18400.0000000127,13.7188225709782,1.00000000531906,0.671797268003068
18500.0000000113,14.0877846925007,1.00000000550395,0.67595824553226
18600.0000000098,14.4520256137681,1.00000000501269,0.6777495626082
18700.0000000084,14.8082770646497,1.00000000546856,0.673294191444471
18800.0000000069,15.1565766211795,1.00000000596592,0.698071786487377
18900.0000000055,15.49820478801,1.00000000582905,0.693901411260607
19000.000000004,15.8067262964518,1.00000000566842,0.684195125602632
19100.0000000026,16.1200354260047,1.00000000532608,0.700214939697471
19200.0000000011,16.4341356669697,1.00000000495351,0.695289327738244
19299.9999999996,16.7475439242521,1.00000000586423,0.688478466055616
19399.9999999982,17.0590158009922,1.00000000551153,0.71178543869102
19499.9999999967,17.3676809563627,1.00000000564628,0.691728150665268
19599.9999999953,17.6806432090361,1.00000000580903,0.692874736891471
19699.9999999938,17.9735282281671,1.00000000532171,0.705245060159466
19799.9999999924,18.2809482975521,1.0000000058365,0.708179013708038
19899.9999999909,18.5825908014097,1.00000000506986,0.681525815061353
19999.9999999895,18.8825125668744,1.00000000662982,0.693587765771596
20099.999999988,19.1634748261354,1.0000000054616,0.719143140230708
20199.9999999865,19.4433468666119,1.00000000591061,0.715842129002345
20299.9999999851,19.7276517988431,1.00000000560387,0.707872078982684
20399.9999999836,20.0103589938964,1.00000000584879,0.723039093390059
20499.9999999822,20.3097339961977,1.00000000594592,0.736911055552088
20599.9999999807,20.6178976602806,1.00000000610778,0.73187499342098
20699.9999999793,20.9325843332748,1.00000000574252,0.727712804404273
20799.9999999778,21.2477725347685,1.00000000630638,0.725705827000909
20899.9999999764,21.5414910240596,1.00000000587151,0.722352959169261
20999.9999999749,21.8172407437166,1.00000000636875,0.723118887437857
21099.9999999734,22.083036401511,1.00000000532936,0.728574158671345
21199.999999972,22.38456272202,1.00000000555561,0.709185757337281
21299.9999999705,22.7041838678257,1.00000000607206,0.720544910703833
21399.9999999691,23.0153235372363,1.00000000599869,0.716464481586807
21499.9999999676,23.307489587307,1.00000000643668,0.721073993352863
21599.9999999662,23.5983116542148,1.00000000609845,0.733289406883656
21699.9999999647,23.8990016261234,1.00000000580695,0.718262671526199
21799.9999999633,24.2034314164207,1.00000000602055,0.697337949565377
21899.9999999618,24.5085884917149,1.00000000642057,0.722998671412289
21999.9999999603,24.7942820761657,1.00000000647561,0.718336168527542
22099.9999999589,25.0839604107853,1.00000000531669,0.711394207846555
22199.9999999574,25.3996284971573,1.00000000508529,0.710149601923214
22299.999999956,25.7246505478919,1.0000000064569,0.727236704707992
22399.9999999545,26.0342646954837,1.00000000635708,0.715560939143301
22499.9999999531,26.3503199537275,1.00000000641122,0.703807936469938
22599.9999999516,26.6637071941992,1.00000000590588,0.719575733391042
22699.9999999502,26.9684080306738,1.00000000537069,0.715967290747106
22799.9999999487,27.2793605964261,1.00000000626101,0.702927751972291
22899.9999999473,27.5984794238572,1.00000000581342,0.695633280993205
22999.9999999458,27.9033751764695,1.00000000602149,0.700413369877926
23099.9999999443,28.1907087184218,1.00000000662984,0.703228480306831
23199.9999999429,28.4793011494798,1.00000000560546,0.692890792342014
23299.9999999414,28.7826008503743,1.00000000622054,0.700580155480672
23399.99999994,29.0909417979049,1.00000000616733,0.712820402813518
23499.9999999385,29.3985221495425,1.0000000062974,0.710484182455577
23599.9999999371,29.6939901913481,1.00000000583605,0.708834681665271
23699.9999999356,29.9863822119651,1.00000000643951,0.720597055177675
23799.9999999342,30.287924402526,1.0000000062405,0.716767331871884
23899.9999999327,30.5937461710466,1.00000000572877,0.719880507147607
23999.9999999312,30.9011422688284,1.00000000632195,0.726255254734735
24099.9999999298,31.2066550501882,1.00000000610632,0.724755271286963
24199.9999999283,31.5027674950218,1.00000000614605,0.740010232399513
24299.9999999269,31.794802782991,1.00000000596748,0.724925098220021
24399.9999999254,32.0826449475328,1.00000000675866,0.722376619657658
24499.999999924,32.3652313937405,1.00000000616819,0.735488082638379
24599.9999999225,32.6510949404337,1.00000000674763,0.733815694639995
24699.9999999211,32.9453310460954,1.00000000620704,0.735728087204919
24799.9999999196,33.2586996298873,1.00000000550913,0.720110089569945
24899.9999999181,33.5915322813664,1.00000000619657,0.721024238792962
24999.9999999167,33.9539017530321,1.00000000599671,0.712735749051224
25099.9999999152,34.3383190485599,1.00000000597625,0.720371978997204
25199.9999999138,34.7398668507975,1.00000000660258,0.703636984970729
25299.9999999123,35.1551992699338,1.00000000605332,0.727775358802577
25399.9999999109,35.5761452065928,1.00000000637651,0.735021498738289
25499.9999999094,35.9805391324266,1.00000000630983,0.729728360794163
25599.999999908,36.3676325246277,1.00000000725852,0.739972439185201
25699.9999999065,36.7277328760164,1.00000000655031,0.736698686465919
25799.9999999051,37.0938975001461,1.00000000613696,0.724696101415466
25899.9999999036,37.4642912088762,1.00000000669208,0.727882760861785
25999.9999999021,37.8288748156346,1.00000000649507,0.718970223059603
26099.9999999007,38.1962828978539,1.00000000678216,0.716650702720202
26199.9999998992,38.5733367848264,1.0000000065218,0.706072012908774
26299.9999998978,38.9687505221071,1.00000000640254,0.711012750647807
26399.9999998963,39.3608208064535,1.00000000711969,0.728396764540909
26499.9999998949,39.7574750040787,1.00000000675163,0.725521612611266
26599.9999998934,40.1608840072474,1.00000000669478,0.702147088602925
26699.999999892,40.5655504108741,1.00000000690881,0.719829479178974
26799.9999998905,40.9545466023911,1.00000000728341,0.712242888142668
26899.999999889,41.3398027184556,1.00000000656781,0.721727250769364
26999.9999998876,41.7278273174013,1.00000000689485,0.721820432588622
27099.9999998861,42.1388710057622,1.00000000689305,0.713942628938904
27199.9999998847,42.5547744766672,1.00000000704495,0.718923863635829
27299.9999998832,42.9455907768056,1.00000000805918,0.737612277903145
27399.9999998818,43.321895988671,1.00000000728702,0.730617391907916
27499.9999998803,43.7010047930443,1.0000000066218,0.711951774709576
27599.9999998789,44.0951543225276,1.00000000641286,0.717679521422123
27699.9999998774,44.4983501941392,1.00000000650715,0.719337709890056
27799.9999998759,44.9167561087443,1.0000000068162,0.72878517528946
27899.9999998745,45.3213578062889,1.00000000710312,0.735596530575797
27999.999999873,45.7119313267574,1.00000000689035,0.714121808716674
28099.9999998716,46.104177734194,1.00000000720491,0.71807448782796
28199.9999998701,46.4884431221359,1.00000000680279,0.727224122495182
28299.9999998687,46.8775450836123,1.00000000740913,0.725382384287053
28399.9999998672,47.276574112048,1.00000000684238,0.726019572538841
28499.9999998658,47.6952887953247,1.00000000656191,0.717204245855282
28599.9999998643,48.1240802684483,1.00000000730948,0.727978018232676
28699.9999998629,48.5458533423914,1.00000000746026,0.726785743598765
28799.9999998614,48.9550998266116,1.00000000728619,0.729991328999773
28899.9999998599,49.3454494680232,1.00000000750431,0.728160570894736
28999.9999998585,49.734682057085,1.00000000713807,0.732976565312738
